-0.057065   -0.044398    -0.15191    -0.06616    0.087149    -0.56571    -0.14541
-0.047971   -0.030756   -0.082725     0.30055     0.74164    -0.59592    -0.15418
-0.047646   -0.015165    -0.01484     0.56559      1.4117    -0.58553    -0.14736
-0.050244  -0.0028225    0.028359     0.65621      1.9457    -0.54168    -0.13047
-0.048945   0.0046481    0.040702     0.58313      2.2461    -0.47249    -0.10481
-0.039201   0.0085458     0.03453      0.4204      2.2949    -0.38545   -0.072006
-0.021661    0.012119    0.024786     0.25118      2.1185     -0.2854   -0.036927
-0.0067202    0.017965    0.027385     0.13197      1.7278    -0.18439  -0.0054209
0.0023744    0.023812    0.041027    0.081627      1.1145    -0.10124    0.020239
0.0039985    0.027709    0.058241    0.078704     0.26904   -0.058689     0.03518
-0.0034721    0.026735    0.066362    0.085525    -0.69759    -0.06551     0.03453
-0.01484    0.019264     0.06019     0.07708      -1.519    -0.10903    0.019589
-0.026858   0.0078962    0.041027    0.047523     -1.9634    -0.16847  -0.0044465
-0.042449  -0.0063954    0.015042   0.0023744     -1.9812    -0.22467   -0.031081
-0.063886    -0.02361   -0.010293   -0.054792      -1.735    -0.26624    -0.05804
-0.086623   -0.046022   -0.033679    -0.11813     -1.4589    -0.28346   -0.085324
-0.10286   -0.068434   -0.053168    -0.17237     -1.2978    -0.27436    -0.10351
-0.10319   -0.084349    -0.06551    -0.20388     -1.2147     -0.2448    -0.10936
-0.085973   -0.087272   -0.068109     -0.2068     -1.1039    -0.20193    -0.10254
-0.056416   -0.076879   -0.060638    -0.18666    -0.96912     -0.1623   -0.084999
-0.021661   -0.057065   -0.046347    -0.15678    -0.86064    -0.14411   -0.060963
0.0091954   -0.032705    -0.03173    -0.13242    -0.77262    -0.15483   -0.041475
0.030633  -0.0083442   -0.021337    -0.11683    -0.69304    -0.18439    -0.03173
0.040702    0.013743   -0.013541    -0.10611    -0.66348    -0.21297   -0.029132
0.042001    0.028684  -0.0044465   -0.093769    -0.79081    -0.22434    -0.02426
0.042326    0.037129   0.0078962   -0.079152     -1.1231    -0.20843   -0.010293
0.046223    0.042001    0.020239   -0.058365     -1.4898    -0.16263     0.01017
0.056942    0.041676    0.029009   -0.027508     -1.5486   -0.092145    0.032582
0.066686    0.037454    0.032906   0.0072465     -1.0156   -0.013541    0.050121
0.065387    0.027385    0.031282    0.037129     0.10566    0.053369    0.058566
0.053694    0.013093    0.027709    0.049796      1.4958    0.098517     0.05207
0.037129  -0.0037969    0.021863    0.042975      2.7457      0.1245    0.032582
0.024137   -0.020037    0.012443    0.022837      3.5697     0.14139   0.0075714
0.017316   -0.034654  0.00042559   0.0017248      3.8185     0.15763   -0.012567
0.015367   -0.045372   -0.013866    -0.01484      3.5093      0.1755   -0.024585
0.013093    -0.04992   -0.030756    -0.03238      2.8399     0.19239   -0.032055
0.0036737   -0.052518   -0.051868   -0.056741      2.0409     0.19791   -0.044398
-0.013866   -0.054467   -0.075255    -0.09182      1.2295      0.1781   -0.069083
-0.034329   -0.056741   -0.095068    -0.13047      0.4584     0.13587    -0.10221
-0.049595   -0.058689    -0.10286    -0.16003    -0.21005    0.098517    -0.12592
-0.058689   -0.059664   -0.098316    -0.16555    -0.70473    0.094295    -0.13015
-0.06616   -0.058365   -0.087922    -0.14541     -1.0208     0.12613    -0.11878
-0.071357   -0.055116   -0.077528    -0.11748     -1.3147     0.18004    -0.10514
-0.078178   -0.049595   -0.069408   -0.098316     -1.7844     0.23494    -0.10026
-0.087272   -0.043748   -0.065186   -0.093119     -2.4142     0.27067    -0.10254
-0.094093   -0.036602   -0.057065   -0.096692      -2.931     0.27099    -0.10709
-0.097017   -0.030431   -0.041475   -0.097991     -3.0401     0.23494    -0.10741
-0.094093   -0.024909   -0.019063   -0.084349      -2.636      0.1781   -0.096042
-0.08305   -0.020362   0.0062721   -0.050569     -1.8503     0.12418   -0.072331
-0.063886   -0.011592    0.032257  -0.0015233    -0.94866    0.096244   -0.037902
-0.036602   0.0059473    0.057592    0.050771     -0.1727     0.10469   0.0052977
-0.0034721    0.029983    0.081303    0.099492     0.35674     0.14821    0.052395
0.032582    0.056942     0.10469     0.14269     0.64907     0.20928    0.096244
0.067986    0.081627     0.12743     0.17939     0.78938     0.26969     0.12937
0.098193     0.10209     0.15049       0.207     0.85564     0.31192     0.14854
0.11671     0.11216     0.17095     0.22357     0.88488     0.33075     0.16088
0.1232     0.11378     0.18849     0.23266     0.87708     0.32816     0.16835
0.12483     0.11313     0.19791     0.24111     0.82381     0.31322     0.16965
0.12613     0.11183     0.19661     0.25053     0.73352     0.29275     0.16575
0.1258     0.10826     0.18297     0.24923     0.62925     0.27554     0.15731
0.12645     0.10242     0.15536      0.2122     0.53084     0.26677     0.14984
0.13132     0.10047     0.11898     0.12645     0.44509     0.26222     0.14529
0.14367     0.10826    0.080978    0.016341     0.36486     0.25897     0.14659
0.15893     0.12548    0.051096   -0.063886     0.27781     0.24923     0.15341
0.17225     0.14561    0.039727   -0.062587     0.18816     0.23266     0.16218
0.18167     0.16088     0.05207    0.036154      0.1206     0.21285     0.16965
0.18654     0.16933    0.085525     0.20603     0.10501     0.19206     0.16933
0.18394     0.17062     0.13132     0.39507     0.14432     0.17582     0.16153
0.1755      0.1703     0.17939     0.55487     0.21642     0.17062     0.15016
0.15991     0.17062      0.2174     0.65686     0.27944     0.17939     0.14139
0.13717     0.17225     0.23916     0.69486      0.2947     0.19856      0.1349
0.11216     0.17127     0.24273     0.67343     0.24988     0.22032     0.12775
0.091047     0.16705     0.22519     0.59937     0.15893     0.23916     0.12483
0.076431     0.15796     0.18946     0.48374    0.054668     0.25183      0.1297
0.074482     0.14464     0.13522     0.34959   -0.034329     0.25865     0.14204
0.084226     0.12807    0.070584     0.22779   -0.097991     0.26514     0.15731
0.10079     0.11021    0.011469     0.14399    -0.15353     0.27067      0.1664
0.11476    0.095269   -0.027508     0.11151    -0.22791     0.26872     0.16575
0.11931    0.081303   -0.044073     0.11898    -0.32795     0.24825     0.15536
0.11248     0.06961    -0.04115     0.14302    -0.43352     0.19986     0.13749
0.095269    0.058566   -0.031081     0.16088    -0.51082     0.12515     0.11573
0.075131    0.046873   -0.022636     0.15666    -0.51829     0.03453    0.091696
0.057917    0.037129   -0.018738     0.12645    -0.40916   -0.053817    0.066362
0.046223    0.029333   -0.022311    0.075781    -0.16977     -0.1282    0.041351
0.039727    0.026085   -0.031081     0.01829     0.16868    -0.18894    0.020239
0.037778    0.024786   -0.042774   -0.036602     0.57371    -0.23701   0.0062721
0.037454    0.022188   -0.056091   -0.081426      1.0343    -0.27469  -0.0021729
0.038753    0.016991   -0.067134    -0.11261      1.5329    -0.30197  -0.0099683
0.036479   0.0095202   -0.065835    -0.12657      1.9788    -0.31074   -0.017764
0.028034   0.0026992   -0.051544    -0.12268      2.1828     -0.2971   -0.019388
0.015367  -0.0028225   -0.031406    -0.11098        2.01    -0.26462   -0.012567
0.0039985  -0.0044465    -0.01484    -0.09994      1.5309    -0.22207      0.0014
-0.0024977  -0.0018481   -0.007045   -0.090196     0.98167    -0.18536    0.016341
-0.0044465   0.0049729   -0.011592   -0.080127     0.60132      -0.161    0.022512
-0.0073698    0.015042   -0.017764   -0.068758     0.46068    -0.14704     0.01829
-0.010293    0.024137   -0.018738   -0.058365     0.41098    -0.13794   0.0072465
-0.0083442    0.030633   -0.010943   -0.046347     0.22324    -0.12917  -0.0041217
-0.0047713    0.034855   0.0020496   -0.031081    -0.23961    -0.11845   -0.012242
-0.0018481    0.037454    0.014068   -0.015165     -0.9334    -0.11131   -0.017114
-0.0028225    0.039727    0.023812  -0.0031473     -1.6866    -0.11326   -0.018738
-0.0083442    0.042001    0.027709  -0.0015233     -2.3265    -0.12333   -0.021012
-0.012242    0.044924    0.026085  -0.0076946     -2.7328    -0.13599   -0.023285
-0.0054209    0.050121     0.01894   -0.019063     -2.8364    -0.14087   -0.024909
0.013093    0.052395    0.012768   -0.030106     -2.6097    -0.13047   -0.025884
0.039727     0.05207    0.014717   -0.035303     -2.1066    -0.10254   -0.026209
0.061814    0.046223    0.025111   -0.030106     -1.4606    -0.06616   -0.022961
0.071558    0.039078    0.042651    -0.01484    -0.84375   -0.029132   -0.012567
0.069934    0.032582    0.062139   0.0078962    -0.40916   0.0075714    0.003024
0.06084    0.029009    0.079354     0.03583    -0.22142    0.048822    0.020564
0.054993    0.028034    0.092996    0.065062    -0.25227    0.097543     0.03518
0.058241    0.029333     0.10047    0.092996    -0.48549     0.15114    0.050771
0.070259     0.03518    0.099817     0.11248    -0.96035     0.19531    0.065712
0.082602    0.041351    0.090397     0.10859     -1.6772     0.20798    0.075456
0.0852    0.040052    0.073507    0.081303     -2.4438      0.1755    0.075781
0.06961    0.028359     0.05272    0.033881     -2.8959     0.10534    0.061814
0.036154   0.0052977    0.030308   -0.022311     -2.7358     0.01829    0.033556
-0.0060706   -0.022636   0.0062721   -0.071032     -1.9091   -0.057715  0.00010078
-0.040175   -0.044398   -0.013866    -0.09929    -0.65016   -0.096692   -0.022636
-0.059339   -0.051219   -0.020687   -0.095717     0.61041   -0.083375    -0.02426
-0.064536   -0.045372   -0.010618   -0.064536      1.4523   -0.023285  -0.0037969
-0.060638   -0.032055    0.013743    -0.02426      1.7537    0.057592    0.028359
-0.048945   -0.016464    0.041027   0.0069217      1.6859     0.12937    0.056292
-0.035628 -0.00087364     0.06019    0.021538      1.5712     0.17127    0.070584
-0.025234   0.0088706    0.062464     0.01764      1.6725     0.17874    0.069285
-0.027833    0.010495    0.049472 -0.00087364      2.0919     0.15666    0.053369
-0.043099   0.0075714    0.027385   -0.028807      2.7649     0.11346    0.025761
-0.063561    0.003024   0.0023744   -0.059989      3.5168    0.065062  -0.0047713
-0.076879  0.00042559   -0.019388   -0.084349      4.1635    0.030957   -0.028807
-0.076879  0.00010078   -0.036927   -0.093769      4.5559    0.020888   -0.044073
-0.067784   0.0039985   -0.050569   -0.089546      4.5916    0.026085   -0.055441
-0.053168   0.0052977   -0.059664   -0.084024      4.2395    0.021863   -0.067784
-0.042774  -0.0011985   -0.062262   -0.091495      3.5883  -0.0060706   -0.084674
-0.039851    -0.01484    -0.06681    -0.11391      2.8578   -0.061613    -0.10709
-0.04992   -0.033679   -0.079477    -0.14541      2.2858    -0.13892    -0.13015
-0.075579   -0.057715    -0.10319    -0.17854      2.0146    -0.23181    -0.15061
-0.11748   -0.082725    -0.13047    -0.20745      1.9954    -0.33802    -0.17107
-0.16847    -0.10514    -0.15288    -0.23149      2.0474    -0.44748    -0.18829
-0.21037    -0.12008     -0.1662     -0.2539      2.0012    -0.53616    -0.19511
-0.22856    -0.12235    -0.16328    -0.27176      1.7671    -0.57513    -0.19024
-0.21979    -0.10903    -0.14541    -0.27566      1.2402    -0.53713    -0.17335
-0.19219   -0.084024    -0.12073    -0.26072     0.25443    -0.41825    -0.14444
-0.15938   -0.059014   -0.096692    -0.22856     -1.1835    -0.24253    -0.10968
-0.13047   -0.040175   -0.077528    -0.18634     -2.6948    -0.04862   -0.076554
-0.11261    -0.03238   -0.062912    -0.14541     -3.8206     0.12158   -0.050894
-0.10806   -0.035953   -0.056091    -0.11293     -4.2766     0.23689   -0.038551
-0.11586   -0.047646   -0.057065   -0.086948     -4.0386     0.29373   -0.034978
-0.1269   -0.060313   -0.059664   -0.058689     -3.2847     0.31224   -0.036602
-0.12917    -0.06616   -0.057715   -0.021661     -2.3525     0.31386   -0.037252
-0.11358   -0.060638   -0.045372    0.020564     -1.6522     0.30412   -0.029132
-0.075255   -0.048296   -0.022311    0.058566     -1.4456     0.27781   -0.010618
-0.020362   -0.033679   0.0033489    0.086175     -1.6545     0.22941    0.011144
0.042326   -0.018738    0.020239     0.10339     -2.0075     0.16835    0.029009
0.096244  -0.0054209    0.023487     0.11118     -2.3184     0.10794    0.036479
0.12678   0.0039985    0.017316     0.10924     -2.5493    0.051096    0.034206
0.13035   0.0091954   0.0078962     0.09462       -2.69    -0.01549    0.023812
0.11248    0.011144  -0.0031473    0.057592     -2.6523    -0.12138   0.0026992
0.082927   0.0062721   -0.019063  -0.0080194     -2.2953    -0.28963    -0.03238
0.05142  -0.0050961   -0.040175   -0.094093     -1.6048    -0.50985    -0.08305
0.029009   -0.018413   -0.063237     -0.1753    -0.80932    -0.72844     -0.1334
0.023162    -0.02426   -0.078178    -0.22207    -0.26039    -0.88695    -0.16263
0.038103   -0.017114   -0.080127    -0.22077    -0.15743    -0.94704     -0.1597
0.067661  0.00010078   -0.067459    -0.17627    -0.39097    -0.90319     -0.1256
0.099492    0.021213   -0.039201    -0.10481    -0.65179    -0.77944   -0.069733
0.1206    0.042001  -0.0041217   -0.025234    -0.66153    -0.61119  -0.0089938
0.12645    0.056617    0.027385    0.049796     -0.3351    -0.42929    0.041676
0.1245     0.06084    0.048172     0.11443     0.19758     -0.2539    0.076431
0.12223    0.058241    0.062464     0.16023      0.7124    -0.09182    0.095269
0.12483    0.057917    0.074157     0.18849      1.0466    0.047847     0.10469
0.13067    0.062464    0.083576     0.20148      1.1782     0.16673     0.11313
0.13847    0.068635    0.093321     0.20473      1.1759     0.26839     0.12645
0.13977    0.072208     0.10339      0.2044      1.1194     0.35057     0.14529
0.12515     0.06961     0.11118     0.20213      1.0505     0.41228      0.1638
0.087149    0.061814     0.11216     0.19856     0.98102     0.44963     0.17485
0.029983    0.049796     0.10599     0.19304     0.91313     0.46393     0.17615
-0.031081    0.035505    0.098193     0.18589     0.85142     0.45581     0.16445
-0.077203    0.022188    0.095269     0.17907      0.7962     0.43274     0.14724
-0.095393    0.011469    0.097218     0.17355     0.73839     0.40481      0.1297
-0.0824   0.0072465     0.10242     0.16965     0.66206      0.3785     0.11801
-0.04927   0.0095202     0.10794     0.16868     0.53473     0.35187     0.10761
-0.010943    0.018615     0.11346     0.16998     0.33043     0.32653    0.096244
0.022188    0.031282     0.11606     0.17485    0.065387     0.30477    0.091372
0.047198    0.046548     0.12125     0.18069    -0.18114     0.29015    0.094945
0.064737    0.061489     0.12678     0.18946    -0.29515     0.28528     0.10761
0.075456    0.073832     0.13197     0.19791    -0.21232     0.28756     0.12385
0.084551    0.084551     0.13132     0.20083    0.018615     0.29113      0.1349
0.095919    0.093321      0.1258     0.19953     0.26222     0.29113     0.13684
0.11216     0.10112     0.11736     0.19693     0.39961     0.28593     0.13197
0.13067     0.10859     0.10989     0.19531     0.40773     0.28073     0.12613
0.14951     0.11606     0.10534     0.19336      0.3379     0.27684      0.1245
0.1651     0.12515     0.10339     0.19141     0.25735     0.27976     0.12743
0.17452     0.13847     0.10469     0.19011     0.22422     0.29665     0.13522
0.1742     0.15276     0.11151     0.19531      0.2606     0.32458     0.14237
0.16608     0.16088      0.1284     0.20733     0.33238     0.35317     0.14561
0.15828     0.16218     0.15146     0.22227       0.385     0.36713     0.14594
0.16056     0.15861     0.17062     0.23721     0.37071     0.35901     0.14302
0.17615     0.15309      0.1768     0.24988     0.26742     0.33108     0.14237
0.20148     0.14919       0.169     0.25962    0.094945     0.29178     0.14626
0.22779     0.15049     0.15601     0.26579   -0.094418     0.24208     0.15244
0.24825     0.15341     0.14302     0.26612    -0.24903     0.18492     0.15666
0.25767     0.15276       0.131     0.25897    -0.36466       0.131     0.15828
0.25248     0.14821      0.1206     0.24436    -0.48776    0.095594     0.15309
0.23299     0.14107     0.11216     0.22584    -0.65406    0.088448     0.14432
0.19499     0.12905     0.10404     0.20116    -0.88403     0.10177     0.13197
0.13684     0.11183    0.091047     0.16315     -1.2394     0.11801     0.11638
0.066037    0.089423    0.067986     0.10339      -1.761     0.10664    0.093645
-0.0063954    0.063438     0.03453    0.019589     -2.3265    0.047847    0.061489
-0.06681    0.032582   -0.008669   -0.082076     -2.6247   -0.052518    0.017965
-0.11326  -0.0021729   -0.055441    -0.18374     -2.3086    -0.16035   -0.029782
-0.14152   -0.034004   -0.097017    -0.26234     -1.2566    -0.22434   -0.073955
-0.15516   -0.055116    -0.12365    -0.30294     0.29925    -0.21232    -0.10286
-0.16003   -0.060638    -0.13112    -0.29872      1.8301    -0.11943    -0.10838
-0.1597   -0.051544    -0.12235    -0.25585      2.8938    0.023162   -0.096692
-0.15288   -0.031406    -0.10579    -0.19478      3.3089     0.16348   -0.081426
-0.13794  -0.0099683   -0.087597    -0.14444      3.1267     0.25183    -0.07428
-0.11683   0.0052977    -0.07428     -0.1217      2.5541      0.2528   -0.080127
-0.095068     0.01017   -0.069083    -0.12592      1.8294     0.17387   -0.095717
-0.078178   0.0052977   -0.070707    -0.13924      1.1395    0.057917    -0.11033
-0.065835  -0.0031473   -0.073631    -0.14411     0.59255   -0.040825    -0.11326
-0.052518  -0.0073698   -0.071682     -0.1308     0.21707   -0.095717    -0.10384
-0.034978  -0.0044465    -0.06681    -0.10254    -0.01549    -0.10384   -0.086948
-0.013866   0.0043233   -0.059339   -0.063886    -0.16003   -0.087922   -0.068109
0.012443    0.015692   -0.047321   -0.026209    -0.26494   -0.068758   -0.048296
0.041027    0.028359   -0.031081   0.0072465    -0.34549   -0.055116   -0.025234
0.065712    0.044599   -0.016789    0.037129    -0.39909   -0.046671      0.0014
0.081303    0.062139  -0.0080194    0.067011    -0.42247   -0.039201    0.030308
0.085525    0.074806  -0.0044465    0.095594    -0.40883   -0.027833    0.054019
0.081303    0.080328  -0.0028225     0.11833    -0.36011   -0.010618    0.072858
0.074482    0.079354 -0.00087364     0.12872    -0.30684   0.0046481      0.0852
0.06831    0.076106   0.0017248     0.12548    -0.24318 -0.00022403    0.090397
0.061814    0.072858   0.0043233     0.11086   -0.087272   -0.037902    0.090722
0.057267    0.069285   0.0065969    0.084876      0.2161    -0.10936    0.082277
0.058566    0.065387    0.010495    0.052395      0.5906    -0.20063    0.067661
0.066686    0.062464    0.016341    0.025111     0.84655    -0.28216    0.053044
0.079029    0.061165    0.023487    0.016666      0.8066    -0.31626    0.048497
0.092671    0.062464     0.03583    0.033231     0.43794     -0.2893    0.061489
0.10696    0.069285    0.051745     0.06896     -0.1269    -0.22044    0.089098
0.12125    0.080653     0.06961     0.11541    -0.67128    -0.13697      0.1206
0.13132     0.09462    0.082927     0.15633     -1.0445   -0.067459     0.14724
0.1323     0.10274    0.090072      0.1768      -1.216   -0.028157     0.16056
0.12385     0.10404    0.092346     0.17095      -1.217   -0.021012     0.15991
0.10859    0.098517    0.096244     0.14529     -1.0812   -0.032705     0.14594
0.091372    0.089098     0.10436     0.11573    -0.81809   -0.043099     0.12613
0.07773    0.079354     0.11281    0.096244    -0.41793   -0.036602     0.10826
0.074157    0.075781     0.11411    0.091372     0.10014  -0.0073698    0.095919
0.081303    0.076106     0.10956     0.10242     0.65914    0.040702    0.092021
0.090722    0.077405     0.10534     0.11898      1.1421    0.092021    0.097543
0.092996    0.074806     0.10014     0.12353      1.4452     0.13002     0.10404
0.082927    0.063438    0.087474    0.097868      1.5137     0.14139     0.10177
0.064088    0.045249    0.065387    0.042651      1.3656     0.11768    0.087799
0.044599    0.025436     0.03583   -0.028482      1.0561    0.064088    0.062464
0.028034   0.0091954    0.009845   -0.092469     0.62211   -0.012242    0.033231
0.017316  -0.0015233  -0.0050961    -0.12592    0.076106    -0.09117   0.0075714
0.012119  -0.0037969  -0.0057458    -0.11878    -0.52609    -0.14769  -0.0083442
0.012443    0.003024   0.0020496    -0.08305     -1.0727    -0.16718   -0.013541
0.016016    0.013093    0.010819   -0.038227     -1.4547    -0.15451   -0.011267
0.019264    0.018615     0.01894  -0.0076946      -1.685    -0.12625  -0.0015233
0.020239    0.017316    0.025111 -0.00087364     -1.8955    -0.10871   0.0075714
0.011794   0.0091954    0.026085   -0.019063     -2.1128    -0.12657   0.0069217
-0.0057458 -0.00087364    0.019589   -0.051544     -2.1427    -0.17887  -0.0093186
-0.024909  -0.0060706   0.0085458   -0.080451     -1.7428    -0.23863   -0.031081
-0.040175  -0.0028225      0.0014   -0.085973    -0.81582    -0.26787   -0.044398
-0.043748   0.0095202   0.0059473   -0.059014     0.53279    -0.23376   -0.045047
-0.034329    0.024786     0.01894  -0.0076946      1.9895    -0.12917   -0.034004
-0.017764    0.037454    0.032906    0.047523      3.2248    0.011469   -0.014516
-0.0034721    0.040702    0.039727    0.081627      3.9913     0.13002   0.0033489
-0.0015233    0.031607    0.036804    0.076755      4.1827     0.18394    0.009845
-0.014516    0.010819    0.022512    0.027385      3.8562       0.169   0.0026992
-0.038876   -0.016464  -0.0011985   -0.053168      3.1907     0.11736    -0.01549
-0.064536   -0.041475   -0.025234    -0.14444      2.4446    0.074157   -0.038551
-0.084999   -0.058689   -0.044073    -0.22369      1.8444    0.070259   -0.056741
-0.094093    -0.06551   -0.047971    -0.27956      1.4783     0.11476   -0.064211
-0.089871   -0.062912   -0.039201    -0.30749      1.2483     0.19076   -0.059664
-0.080776   -0.059014   -0.029782    -0.31334     0.91606     0.26579   -0.050569
-0.072981   -0.057065   -0.032705    -0.30489      0.2187     0.31224   -0.046022
-0.068434   -0.059014    -0.04927    -0.27891    -0.98601     0.31679   -0.051544
-0.071032   -0.062912   -0.070058    -0.22142     -2.5535     0.27781    -0.06616
-0.078178   -0.064861   -0.083375     -0.1295     -4.0389     0.19531   -0.084999
-0.090196    -0.06616   -0.080776  -0.0096434     -4.9129    0.076431    -0.10806
-0.10741   -0.068109   -0.067134      0.1206     -4.8548   -0.059664    -0.12982
-0.12722   -0.072656   -0.055441     0.23201       -3.96    -0.19056    -0.14801
-0.14444     -0.0824   -0.054792     0.30022     -2.6883    -0.29482    -0.16425
-0.15581   -0.096042   -0.063886     0.30737     -1.5599    -0.36953    -0.18147
-0.16782    -0.10968   -0.081426     0.25605     -0.8902    -0.43871    -0.20096
-0.18114    -0.12138    -0.10449      0.1625    -0.60372    -0.52674    -0.22369
-0.19316     -0.1295     -0.1269     0.05207    -0.39324    -0.62515    -0.23993
-0.19933    -0.13404    -0.14054   -0.051868   -0.020687    -0.70343    -0.24708
-0.20128    -0.13632    -0.14281    -0.13275     0.48861    -0.73656    -0.24448
-0.19706    -0.13697    -0.13664    -0.19089     0.91541     -0.7187    -0.23571
-0.18407    -0.13372     -0.1282    -0.23376      1.0502    -0.66348    -0.22012
-0.16068    -0.12268    -0.12138    -0.27111     0.83713     -0.5852    -0.19446
-0.12625   -0.099615    -0.11261    -0.29872     0.41098    -0.49361    -0.16068
-0.087597   -0.068758    -0.10026    -0.30132   0.0010752    -0.39129      -0.123
-0.053168   -0.038551   -0.085324    -0.26819    -0.22142    -0.28313   -0.089546
-0.029132    -0.01484   -0.072331    -0.20745    -0.22142    -0.17919   -0.067134
-0.015165  -0.0041217   -0.062912    -0.13112   -0.077203    -0.08305   -0.057715
-0.0093186  -0.0063954   -0.055766   -0.055766    0.089423    0.013093   -0.053817
-0.0060706   -0.012567    -0.04927   0.0046481     0.18589     0.11378   -0.047321
0.0014   -0.017764   -0.042774    0.045574     0.19726     0.21675   -0.029457
0.016016    -0.01484   -0.031406    0.073507     0.15406     0.31744    0.003024
0.03518  -0.0028225   -0.010943    0.096569    0.092996     0.41098    0.047847
0.06019    0.017965     0.01829     0.11833    0.046548     0.48731    0.097218
0.089423    0.042001    0.050446     0.13782     0.06084     0.54058     0.14496
0.11801    0.067661    0.080653     0.15276     0.13197     0.56462     0.18492
0.14367    0.092021     0.10339     0.15926     0.17874     0.55844     0.21382
0.1625     0.11118     0.11541     0.15698     0.15828     0.52304     0.23006
0.16998     0.12125     0.11898     0.15633     0.15309     0.46295     0.23266
0.16738     0.12288     0.12093     0.16315     0.30282     0.39117     0.22292
0.16153     0.11671     0.12385     0.17907     0.63802     0.32621     0.20505
0.15796     0.10859     0.12483     0.19888       1.019     0.28268     0.19109
0.15828     0.10404     0.12548     0.20863      1.2483     0.26612     0.18914
0.15958     0.10859     0.12613     0.19856      1.2142     0.27196     0.20246
0.16121     0.11995      0.1258     0.16738     0.94107     0.29145     0.22227
0.16283     0.13295     0.12385     0.12483     0.55487     0.31192     0.23786
0.1638     0.14367      0.1219    0.080978     0.21025     0.32166     0.24111
0.16315     0.14984     0.12255    0.044599    0.020564     0.31289     0.22941
0.16315     0.14854     0.12872    0.018615    0.029983     0.28236     0.20505
0.16315     0.13879     0.13327  -0.0031473     0.21317     0.23494     0.17874
0.16218     0.12548     0.12937   -0.025559     0.49186     0.18199     0.16088
0.15796     0.11346     0.11638   -0.034978     0.76405     0.14302     0.15763
0.15276     0.11054     0.10534   0.0052977     0.94432      0.1284     0.16218
0.15081     0.11801     0.11118      0.1271     0.98102     0.13587     0.17257
0.15601     0.13555     0.13879     0.33075     0.84947     0.15503     0.18427
0.16835     0.15698     0.18167     0.56657     0.54091     0.17322     0.19369
0.18297     0.17387     0.22259     0.76177    0.073832     0.18134     0.19953
0.19401     0.18297     0.24598     0.86052    -0.49685      0.1768     0.20148
0.19758     0.18362     0.24501       0.842     -1.1237      0.1664     0.19661
0.19011     0.17647     0.22617     0.72994     -1.8276     0.15146     0.18589
0.17387      0.1651     0.19986     0.56851     -2.6302     0.12483     0.17095
0.15276     0.14789       0.169     0.40026     -3.4175    0.080653     0.15536
0.13132     0.12678     0.13587     0.25345     -3.9116    0.021863     0.13717
0.11476     0.10339     0.10209     0.14172     -3.8346   -0.034978     0.11541
0.10144    0.084551    0.073832    0.066037     -3.0872   -0.068434    0.091696
0.0865    0.074157    0.053044    0.015692     -1.8081   -0.071032    0.071558
0.071558    0.070909    0.039727   -0.017764    -0.31561   -0.054142    0.057917
0.053694    0.066362    0.028359   -0.043748     0.97257   -0.028482    0.047523
0.038103    0.059541    0.016341   -0.065835      1.7433  -0.0015233    0.038753
0.029009    0.048822   0.0010752    -0.08305       1.974    0.024786    0.027709
0.020888    0.036154   -0.015165   -0.097017      1.8323     0.05142    0.017316
0.010495    0.022837   -0.029457    -0.10416      1.5569    0.080978    0.014717
-0.0034721    0.014392   -0.034329    -0.10514      1.3292     0.11281     0.01829
-0.017439   0.0088706   -0.026858   -0.096692      1.2133     0.14432    0.023812
-0.025234   0.0091954   -0.010618   -0.084999       1.184     0.16868    0.025436
-0.025234    0.016016   0.0095202   -0.073955      1.2032     0.18069    0.021538
-0.018413    0.028359    0.024461   -0.065835      1.2652     0.17387   0.0095202
-0.0076946    0.041676    0.032582   -0.060963      1.3708     0.14659  -0.0060706
0.0059473     0.05272    0.032257   -0.058689      1.4916     0.10469   -0.017764
0.021538    0.061165    0.027385   -0.056741      1.5329    0.062464   -0.022961
0.033881    0.065387    0.023162    -0.05804      1.3204    0.020564   -0.022636
0.039727    0.067986    0.021213   -0.065835     0.77347   -0.027183   -0.021986
0.040377     0.06831    0.016991   -0.078827    0.024786     -0.0824   -0.025234
0.033881    0.065712   0.0088706   -0.095393    -0.69109    -0.13404   -0.031406
0.025436     0.06019   0.0026992    -0.10611     -1.2033    -0.17172   -0.034654
0.016666    0.056292  0.00075039    -0.10091     -1.4723    -0.19251    -0.03303
0.0091954    0.055643   0.0043233   -0.078178     -1.5554    -0.19673   -0.027508
0.0010752    0.058566    0.014392   -0.047321     -1.5427    -0.18764   -0.025234
-0.0067202    0.059541    0.030957   -0.026533     -1.4921    -0.16912   -0.027508
-0.012567    0.054993    0.045249   -0.032705     -1.4138    -0.15158   -0.031081
-0.015815    0.044599    0.047847   -0.070058      -1.293    -0.13859   -0.031406
-0.019063    0.030308    0.037778    -0.12463     -1.1189    -0.12625   -0.031081
-0.025884    0.018615    0.023812    -0.17562    -0.89572    -0.10903   -0.027833
-0.033679    0.009845    0.011794    -0.19868    -0.64821   -0.087922   -0.023935
-0.041799 -0.00054884   0.0039985    -0.18082    -0.40981   -0.068109   -0.019712
-0.046022   -0.012892 -0.00054884     -0.1256    -0.20615   -0.051868   -0.020037
-0.044723   -0.021661  0.00042559   -0.050894    -0.04992   -0.042449   -0.023285
-0.036927   -0.027508   0.0020496    0.019589    0.059865   -0.033354   -0.027833
-0.027833   -0.033679  -0.0015233    0.065712     0.13555   -0.022636   -0.027833
-0.023285   -0.042449  -0.0083442    0.078055     0.19531  -0.0099683   -0.021012
-0.027833   -0.053168   -0.017114    0.058566     0.25378   0.0091954   -0.010618
-0.039526   -0.059989   -0.026858    0.024461     0.31614    0.032582   0.0020496
-0.051868   -0.063561   -0.034329    -0.01549     0.37688    0.055968    0.012768
-0.059989   -0.062912   -0.039201   -0.057065      0.4217    0.072208    0.018615
-0.063886   -0.059014   -0.040175    -0.10871     0.43664    0.075131    0.016991
-0.067459   -0.053168   -0.042449    -0.17172     0.41196    0.062139   0.0075714
-0.069733   -0.050894   -0.048296    -0.24221     0.34992    0.040052  -0.0047713
-0.06616   -0.053168   -0.059989    -0.31691     0.25702    0.022188   -0.015815
-0.056091   -0.056416   -0.072981    -0.39422     0.14691    0.015042   -0.020362
-0.04115   -0.055441     -0.0837    -0.47119    0.038753    0.015692   -0.014516
-0.019388   -0.047646   -0.088247    -0.51862   -0.045697    0.024137      0.0014
0.0091954   -0.031081   -0.084024    -0.47574    -0.10481    0.036804    0.022837
0.04395  -0.0099683   -0.067459     -0.2893    -0.14639    0.050121    0.044599
0.079679    0.012768   -0.036927   0.0072465    -0.18439    0.064088    0.065712
0.11313    0.036479   0.0056225     0.29113    -0.22661    0.081303    0.082927
0.13814    0.059541    0.053044     0.44574    -0.27241     0.10144     0.09397
0.15049    0.082927    0.095594     0.43632    -0.29742     0.12028    0.092996
0.14529     0.10436     0.12548     0.31711    -0.24903     0.12905    0.078379
0.12288     0.11898     0.13425     0.18394    -0.09117     0.11411    0.056617
0.090722     0.12028     0.12288     0.12093     0.13392    0.067986    0.038428
0.054344     0.10404    0.096244     0.15244     0.31841  -0.0076946    0.029333
0.024461    0.075781    0.065387      0.2554     0.33433   -0.097666    0.024461
0.003024     0.04395    0.041351     0.37428     0.15666    -0.18342    0.019914
-0.008669    0.019264    0.033556     0.46945    -0.10449     -0.2435    0.013743
-0.011917   0.0072465    0.042001     0.52304    -0.31106    -0.26169   0.0069217
-0.0067202   0.0078962    0.055968     0.53311    -0.40623    -0.24156   0.0010752
0.0049729    0.015367    0.067011       0.512    -0.41793    -0.19381  -0.0031473
0.01764    0.025111    0.071883     0.47399    -0.35524    -0.12917  -0.0018481
0.030308    0.036479    0.071883     0.43015    -0.20096   -0.048296   0.0052977
0.041351     0.04395    0.066362     0.37915    0.062139    0.037129    0.016016
0.045249    0.041676     0.05272     0.31224      0.4571     0.10436    0.024137
0.034206    0.024786    0.028684     0.22584     0.98979     0.14204    0.016666
0.0075714 -0.00087364  -0.0024977     0.12645      1.6258     0.15568  -0.0073698
-0.030431   -0.028482   -0.034654    0.028034      2.2913     0.15601   -0.043748
-0.07428   -0.053492   -0.064536   -0.057065      2.9058     0.14984   -0.084024
-0.11391   -0.070707   -0.087272    -0.12138      3.4109     0.12807    -0.12105
-0.14216   -0.077528    -0.10481    -0.16523      3.7419    0.090072    -0.14834
-0.15288   -0.075255     -0.1191    -0.19348      3.8338    0.050771    -0.16523
-0.14704   -0.069408    -0.12982    -0.21037      3.6698    0.030957      -0.174
-0.12852   -0.060963    -0.13469     -0.2146      3.3222    0.042651    -0.17205
-0.10676   -0.051219    -0.13047     -0.2068      2.9425    0.092021    -0.15938
-0.089546   -0.044723    -0.11488    -0.19251      2.6772     0.17745    -0.13859
-0.081751   -0.044398   -0.097991    -0.18049      2.5667     0.28528    -0.12073
-0.0837   -0.050894   -0.085648    -0.17757      2.4998     0.38857    -0.11261
-0.092794   -0.062262   -0.077853    -0.18277      2.2595     0.46295    -0.10968
-0.10384    -0.07493   -0.073955    -0.18666      1.6862     0.49218    -0.10254
-0.10709    -0.08305   -0.069733    -0.18049     0.77639     0.46555    -0.09182
-0.10546     -0.0837   -0.065835    -0.16718    -0.30554     0.37233     -0.0824
-0.10319   -0.076229   -0.062912    -0.15158       -1.29      0.2161   -0.076879
-0.10124    -0.06681   -0.060963    -0.13534     -1.9939    0.022188   -0.076229
-0.095717   -0.053817   -0.058689    -0.11651     -2.3577    -0.16945   -0.075255
-0.084999   -0.039526   -0.055441   -0.094743     -2.4541    -0.32893   -0.072981
-0.069733   -0.027508   -0.050244   -0.080451     -2.4496    -0.45106   -0.073306
-0.050244   -0.018738   -0.044073   -0.084024     -2.5126     -0.5511   -0.080451
-0.025884   -0.014191   -0.038227    -0.10903     -2.7325    -0.64821   -0.089871
-0.0044465   -0.013216    -0.03173    -0.15029     -3.0999    -0.75053   -0.096692
0.0069217   -0.012567   -0.025884    -0.19413     -3.4286    -0.85479   -0.097666
0.0075714   -0.010943   -0.021986    -0.23214     -3.3922    -0.93405    -0.09182
-0.00054884  -0.0093186   -0.021986    -0.26007     -2.7562    -0.94704   -0.084024
-0.008669  -0.0054209   -0.027183    -0.27404     -1.5674    -0.85447   -0.073306
-0.0083442  0.00010078   -0.035303    -0.26689    -0.14476    -0.65471   -0.054467
0.0010752   0.0052977    -0.04115    -0.23084      1.0528     -0.3848   -0.026533
0.015042   0.0088706   -0.041799    -0.17594      1.6605    -0.10806   0.0056225
0.030633    0.011144   -0.041475     -0.1191      1.5666     0.11054    0.036804
0.046223    0.014068   -0.037252   -0.076554     0.90566     0.23266    0.061814
0.058566     0.01894   -0.025234   -0.047321   -0.007045     0.25962    0.075131
0.065712     0.02706  -0.0015233   -0.020037    -0.81192     0.22357    0.078704
0.071558      0.0433    0.028359    0.015042     -1.2832     0.16868    0.082602
0.079354    0.067011    0.058891    0.054344     -1.3807       0.131    0.092996
0.093321    0.095594    0.087799    0.092346     -1.2079      0.1232     0.10729
0.11671     0.12158     0.11443     0.12775    -0.93275     0.13879     0.12125
0.14724     0.13717     0.13847     0.15926    -0.69759     0.16088     0.13295
0.17647     0.14107     0.15211     0.18524    -0.56539     0.17127     0.14302
0.19726     0.13879     0.15373     0.20343    -0.53291     0.15893     0.15406
0.20928     0.13425     0.14659     0.21415    -0.56214     0.12613     0.16835
0.21317       0.131     0.13587     0.22097    -0.60437    0.083251     0.18492
0.21123     0.12678     0.13197     0.22682    -0.62678    0.041027     0.19563
0.20538     0.12385     0.13814     0.23461    -0.61833   0.0095202     0.19921
0.20116      0.1245     0.14984     0.24208    -0.58228   -0.007045     0.19888
0.19856     0.12775     0.15568     0.24208    -0.53583   -0.019063     0.19336
0.19434     0.12905     0.15016     0.23039    -0.50562   -0.032705     0.18069
0.18264     0.12613      0.1323     0.20733     -0.5092   -0.056091     0.16315
0.1651     0.11995     0.10794     0.18362    -0.52934   -0.084999     0.14984
0.14886     0.11151    0.088448     0.16575    -0.51407    -0.11033     0.14561
0.13782     0.10144    0.078704     0.15471    -0.40234    -0.12235     0.14756
0.1323    0.090722    0.074157     0.14529    -0.18147    -0.11293     0.14951
0.13067    0.079679    0.071234     0.13262     0.11443   -0.076554     0.14756
0.12872    0.067011    0.068635     0.11736     0.43274   -0.018413     0.13847
0.12353    0.056292    0.066686     0.10534      0.7189    0.054019     0.11963
0.11963    0.050771    0.064413     0.10014     0.91768     0.12223    0.094295
0.11736    0.050121    0.062464     0.10274     0.98687     0.16185    0.068635
0.11573    0.053044    0.061489     0.10729     0.91313     0.16608    0.049147
0.11183    0.058566    0.067986     0.11313     0.71728     0.15049    0.037454
0.10891    0.065387    0.084226     0.12028     0.45093     0.13782    0.031607
0.10696    0.072533     0.10404     0.12872     0.17745     0.14302    0.036154
0.10924    0.078704     0.12158     0.14367   -0.056741     0.16738    0.049796
0.11606    0.084876     0.13197      0.1625    -0.23116      0.2044    0.070909
0.1245    0.093321     0.13749     0.18232    -0.35069     0.23721    0.092021
0.13165     0.10242     0.14204     0.19531    -0.43644     0.25378     0.11086
0.13197     0.10631     0.14367     0.19921    -0.50985     0.24338     0.12613
0.11931     0.10469     0.14302     0.19174    -0.58163     0.21025     0.13814
0.093645    0.099817      0.1336      0.1742     -0.6388     0.17322     0.14269
0.056942    0.091047     0.11703     0.15081    -0.65276     0.15276     0.13847
0.015042    0.078379     0.10112     0.12872    -0.60989     0.16088     0.12645
-0.022961    0.062789    0.091047     0.11541    -0.52804     0.19141     0.11216
-0.050244    0.051096      0.0865     0.11378    -0.44424     0.22584    0.096569
-0.064861    0.044924      0.0865     0.11768    -0.38804       0.258    0.082927
-0.067134    0.042975    0.088773     0.12125    -0.35069     0.30899    0.073507
-0.055441    0.041676    0.088448     0.12678    -0.29482     0.41261    0.072208
-0.03173    0.040052    0.086824     0.13847    -0.18374     0.57436    0.079354
-0.0018481    0.041351    0.086824     0.15406    0.010495     0.75495    0.091372
0.024461    0.046873      0.0852     0.16478     0.28106     0.89495     0.10079
0.043625    0.054019    0.075456     0.16315      0.5958     0.95049     0.10534
0.058241    0.059865    0.061489     0.14496     0.94594     0.91671     0.10891
0.06896    0.061165    0.045574     0.11963      1.3273     0.82056     0.11508
0.074482    0.058891    0.032906     0.09397      1.6569     0.69811     0.12093
0.071883    0.054019    0.019264    0.064737      1.7381     0.55974     0.11995
0.057917     0.04395 -0.00022403    0.024461        1.44     0.39312     0.10339
0.031282    0.027385    -0.02426    -0.03238     0.88098     0.20051    0.070909
-0.0034721   0.0095202   -0.044723   -0.090845     0.37071    0.015692    0.032582
-0.038551  -0.0028225   -0.051544    -0.12365     0.12353    -0.11586   0.0043233
-0.061613  -0.0050961   -0.037902    -0.11423     0.11703    -0.16685  -0.0018481
-0.062587   0.0091954  -0.0060706   -0.064211     0.16868    -0.13989    0.019589
-0.040175    0.033231    0.033556   0.0065969    0.071558   -0.068758     0.06084
-0.0037969    0.059216    0.067986     0.06961    -0.21427  -0.0011985     0.10306
0.036154    0.080328    0.086175     0.10339    -0.52739    0.039727     0.13262
0.067011    0.087149     0.08585     0.10371    -0.69856    0.080978     0.14399
0.078704     0.07708    0.069934    0.079679    -0.68232     0.16933     0.14139
0.067661    0.054993    0.044599    0.045574    -0.47055     0.32426     0.13132
0.0433    0.031282    0.017965     0.01764   -0.070058      0.5042     0.12223
0.020564    0.011469  -0.0015233   0.0039985     0.45126     0.63445     0.11866
0.012443   0.0046481  -0.0089938    0.008221     0.93717     0.65004      0.1232
0.027385   0.0085458  -0.0047713    0.028684      1.1821     0.53084     0.13295
0.06019    0.019589   0.0075714    0.062464     0.94269     0.30542     0.14009
0.09397    0.033231    0.026735     0.10339   -0.012567    0.020239     0.13944
0.11216     0.04395    0.048497     0.14334     -1.6496    -0.28605      0.1297
0.10371    0.050121    0.068635     0.17225     -3.5442     -0.5826     0.11183
0.073507    0.051096    0.087149     0.19109     -4.9685     -0.8457      0.0852
0.033556    0.051745     0.10404     0.20278     -4.9685     -1.0575    0.057917
0.0014    0.051096     0.11736       0.207     -4.9685     -1.1958    0.040052
-0.019063    0.045899     0.12255     0.19661     -4.4137     -1.2433    0.031607
-0.039201    0.025111     0.11476     0.15828     -2.5392     -1.2134    0.023812
-0.080776   -0.016464    0.080003    0.072858     -0.4621     -1.1673  -0.0011985
-0.15613     -0.0837    0.008221   -0.070382      1.2269     -1.1692   -0.058689
-0.25585    -0.16847   -0.097991    -0.26267      1.9486     -1.2264    -0.14899
-0.35004    -0.25455     -0.2172    -0.47704      1.5358     -1.2809    -0.25162
-0.40981    -0.32113    -0.32893    -0.67355     0.48569      -1.254    -0.34809
-0.42085    -0.35556     -0.4202    -0.81939    -0.19186     -1.1003    -0.43027
-0.38674    -0.34907    -0.48484    -0.88922     0.29568    -0.82783    -0.49133
-0.32536    -0.31171    -0.51862    -0.87331      1.9187    -0.47314    -0.51862
-0.25975    -0.26007    -0.52316    -0.78626      3.9108   -0.094093    -0.50433
-0.2107    -0.21037    -0.50173    -0.65276      4.9583     0.25053     -0.4543
-0.17724    -0.16718    -0.45138     -0.4988      4.9586     0.52077     -0.3796
-0.14866     -0.1217    -0.37733     -0.3377      4.9583     0.70526    -0.29093
-0.11163   -0.068109    -0.28963    -0.17952      3.7864     0.79815    -0.20031
-0.064211   -0.008669    -0.19998     -0.0405      1.7875     0.79555    -0.11618
-0.0093186    0.053044    -0.11715    0.062789     -0.5118     0.70071   -0.045697
0.0433     0.11346   -0.046996      0.1219      -2.613     0.52402      0.0014
0.080978     0.17062   0.0075714     0.13879     -4.2084     0.28268    0.021863
0.098193     0.21707    0.044275     0.11995     -4.9685  -0.0037969    0.011794
0.089423     0.24468    0.064088    0.071883     -4.9685    -0.31594   -0.021337
0.054344     0.24728    0.061165   0.0010752     -4.9682    -0.63165   -0.067134
0.0020496     0.22877    0.039727   -0.087272      -4.058    -0.91975    -0.11261
-0.054792     0.19563   0.0085458    -0.17854     -1.9981     -1.1445    -0.14541
-0.10416     0.15828   -0.021012    -0.25292      0.5133     -1.2806      -0.161
-0.13762     0.12223   -0.045047    -0.30002      2.8558     -1.3193    -0.16425
-0.15841    0.090722   -0.062262    -0.31626      4.6286     -1.2705    -0.16295
-0.16555    0.063438   -0.070707    -0.30782       4.958     -1.1591    -0.16068
-0.16295    0.044275    -0.07428     -0.2867      4.9583     -1.0081     -0.1636
-0.15646    0.033231    -0.07428    -0.26657       4.958     -0.8405    -0.16912
-0.14769    0.027385   -0.072006    -0.25162      4.9583    -0.66835    -0.17107
-0.13827    0.023812   -0.060313    -0.22824      4.7429    -0.48679    -0.16425
-0.12203    0.019589   -0.039201    -0.18309      4.1164    -0.28865    -0.14249
-0.093769    0.014717  -0.0063954    -0.11098      3.7127   -0.076229    -0.10709
-0.047321    0.014392    0.037778   -0.017439      3.4424     0.14042   -0.065186
0.014392    0.021863    0.086175    0.082277      3.1105     0.34992   -0.020037
0.080978    0.036154     0.13067      0.1768      2.5908     0.53603    0.025111
0.13717    0.053694      0.1625     0.25572       1.897     0.68252    0.065062
0.17517    0.070909     0.18102     0.31744      1.1411     0.79036    0.098517
0.19076    0.083576     0.18654     0.35609     0.43827     0.87513      0.1232
0.19206    0.087799     0.18654     0.36453    -0.15353     0.95244     0.13749
0.18557    0.082602     0.18914      0.3431    -0.64139      1.0219     0.14334
0.17874    0.072533     0.19563     0.29762     -1.0646      1.0765     0.14367
0.16933    0.057917     0.20181     0.23266     -1.4492      1.1057     0.13717
0.15373    0.040377     0.20473     0.15926     -1.7958       1.098     0.12385
0.13197    0.022188     0.20343    0.095594     -2.0943      1.0496     0.10599
0.10794    0.008221     0.19856    0.067986     -2.3405     0.95796    0.091047
0.089748   0.0010752     0.19076    0.093321     -2.5123     0.82251    0.080328
0.081303   0.0023744     0.18394      0.1638     -2.5529     0.65978    0.080003
0.083576    0.014068     0.17874     0.25248     -2.3736     0.49706    0.092996
0.092996    0.031932     0.17257     0.33303     -1.9328     0.36843     0.11963
0.10924    0.056617     0.16575     0.39702     -1.3059     0.29697     0.15958
0.13392    0.084551     0.16575     0.44704    -0.66348     0.28041      0.2083
0.1664     0.11573     0.17485     0.49316    -0.18342      0.2999      0.2593
0.20181     0.14237     0.18979      0.5461    0.053044     0.33563     0.30477
0.23559     0.16185     0.20733     0.61334    0.078704     0.37006     0.33628
0.26092       0.169     0.22162     0.69292   -0.012242      0.3863     0.34732
0.27716     0.16738     0.22877     0.76924    -0.13112     0.37785     0.34472
0.28008     0.15731     0.22844     0.82316    -0.22954      0.3457       0.334
0.26904     0.14529     0.22129     0.84103    -0.30262      0.2934     0.32231
0.24566      0.1336     0.20863     0.82511    -0.36044     0.23104     0.30964
0.21902     0.12288     0.19141     0.78321      -0.415     0.17517      0.2986
0.19661     0.10794     0.16965      0.7189    -0.47249     0.14984     0.29048
0.18329    0.087149     0.14626     0.63088    -0.53388     0.16023     0.28333
0.18199    0.066686     0.12223     0.52077    -0.60242     0.18816     0.27521
0.18329    0.048497    0.097868     0.40416    -0.67875      0.2096     0.26027
0.17907    0.034855    0.074482     0.31354     -0.7593     0.21025     0.24111
0.16835    0.028359    0.054668     0.28041    -0.83043     0.19044     0.21935
0.15049    0.028034    0.040702     0.31516    -0.88597     0.16543     0.19434
0.12905    0.028684     0.03453     0.39831    -0.92657     0.16218     0.16835
0.10859    0.025436    0.037778     0.49933    -0.96068     0.19531     0.14399
0.095269    0.020239    0.048172     0.59255    -0.99738      0.2554      0.1219
0.091047    0.015367    0.061165     0.65524     -1.0435     0.31451    0.099492
0.090722   0.0095202    0.065712     0.67473     -1.1052       0.347    0.078704
0.094295   0.0046481    0.056292     0.65329      -1.177     0.35284     0.06084
0.098842   0.0026992     0.03518     0.61204     -1.2358     0.35966    0.046873
0.10339   0.0072465    0.015692     0.56884     -1.2501     0.39539    0.037778
0.10339    0.016341   0.0059473     0.52499     -1.2023     0.45288    0.031282
0.098842    0.028684   0.0056225     0.47237      -1.112     0.49901    0.024137
0.091372    0.039727    0.013743     0.40416     -1.0263     0.50745    0.014068
0.083251    0.049796    0.023487     0.32004    -0.99381     0.47724   0.0023744
0.073507    0.054019    0.029333     0.21935     -1.0601      0.4178   -0.012242
0.065387    0.054019    0.026085    0.098193     -1.2585     0.34082   -0.028157
0.061489    0.054019    0.019264   -0.044723     -1.5833     0.25378   -0.042124
0.06019    0.058566    0.015042     -0.2029     -1.9705       0.169   -0.051219
0.062789    0.067986    0.015042    -0.35232     -2.3236    0.088773   -0.059014
0.068635    0.078704    0.018615     -0.4608     -2.5552   0.0062721   -0.062262
0.07708    0.090397     0.02641    -0.49653      -2.601   -0.085648   -0.056091
0.0865     0.10079    0.039402    -0.45625     -2.4116    -0.18861   -0.042774
0.096244     0.10664    0.059865    -0.36271      -2.004    -0.30359   -0.029782
0.099492     0.10534    0.086175     -0.2578     -1.4079    -0.42637   -0.021012
0.092346    0.097543     0.11346    -0.17172    -0.58001    -0.54525   -0.017764
0.073507    0.089748     0.13847    -0.11586      0.5081    -0.63685    -0.01614
0.054668    0.087474     0.15568   -0.087922      1.7589    -0.66738  -0.0083442
0.049472    0.091696      0.1651    -0.07493      3.0448    -0.60599    0.013418
0.062789    0.097868      0.1677    -0.07428      4.2781    -0.45041    0.050446
0.083251    0.097543     0.15893    -0.10903      4.9583    -0.21427    0.088773
0.094945    0.085525     0.13717     -0.2094       4.958    0.049147      0.1206
0.086824    0.061814     0.10339    -0.38512      4.9586     0.26807     0.13912
0.058891    0.030308    0.060515    -0.61736      4.9164      0.3772     0.14042
0.017965  -0.0037969   0.0072465    -0.87298       3.369     0.35382     0.12775
-0.027833   -0.036602   -0.052193      -1.114      1.6771     0.22454     0.10112
-0.076879   -0.068434    -0.11423     -1.3115     0.34797    0.038103    0.057592
-0.1295    -0.10189    -0.17172     -1.4625    -0.47249     -0.1675  -0.0021729
-0.18147    -0.13534    -0.22337      -1.582     -1.1338     -0.3783   -0.072656
-0.22207    -0.16523    -0.26299     -1.6493     -2.0007    -0.59202    -0.14476
-0.23701    -0.18504    -0.28183     -1.5954     -2.9859    -0.80185     -0.2068
-0.22467    -0.18959    -0.27014     -1.3657     -3.5539    -0.98374     -0.2448
-0.19089    -0.17367    -0.22694    -0.98212     -3.2363      -1.088     -0.2435
-0.14639    -0.13599    -0.16425    -0.54558     -2.0855     -1.0487    -0.19641
-0.10546   -0.090196    -0.10806    -0.18894    -0.66283    -0.82718    -0.11293
-0.08305   -0.054792   -0.081426   -0.014191     0.34212    -0.45723   -0.016464
-0.084349   -0.045047   -0.097341   -0.042449     0.64322    -0.02361    0.061814
-0.10838    -0.06616    -0.14931     -0.2172     0.48796     0.36843    0.098842
-0.15353    -0.10449    -0.21687    -0.44651     0.36583      0.6299     0.08585
-0.21785    -0.14444    -0.27761    -0.64269     0.65589     0.70883    0.032582
-0.28963    -0.17107    -0.31756     -0.7567      1.3802     0.61691   -0.042124
-0.35361    -0.18114    -0.33413    -0.78301      2.2757     0.40936    -0.11131
-0.40136    -0.18017    -0.33315    -0.74761      2.9672     0.14594    -0.16718
-0.42865    -0.17887    -0.32633    -0.69336       3.077    -0.13762     -0.2133
-0.43936    -0.18504    -0.32081    -0.64919      2.4345    -0.42735    -0.25715
-0.43482     -0.2029    -0.32308    -0.62385      1.2084    -0.72844    -0.30522
-0.4215    -0.22564    -0.33575    -0.61963    -0.14736     -1.0354    -0.36303
-0.40851    -0.24773    -0.35686    -0.63425     -1.0536     -1.3215    -0.42865
-0.40039    -0.26234    -0.37992    -0.65211     -1.3388      -1.545    -0.49198
-0.39227    -0.26527    -0.39292    -0.65309     -1.2813     -1.6678     -0.5407
-0.37343     -0.2539     -0.3809    -0.61606     -1.2111     -1.6639    -0.56019
-0.33478    -0.22499    -0.33965    -0.52998     -1.2049     -1.5284    -0.54882
-0.27696    -0.18212    -0.27469    -0.39649     -1.0945     -1.3021    -0.51147
-0.2094    -0.13275    -0.19836    -0.23538    -0.67777     -1.0571    -0.46113
-0.14379   -0.084674    -0.12495   -0.074605    -0.01484    -0.86031    -0.41208
-0.09182   -0.043748   -0.060638    0.070584     0.51037    -0.73916    -0.36563
-0.050244   -0.011267  -0.0028225     0.19888     0.54968    -0.66933    -0.31756
-0.012892    0.017316    0.055643     0.31581      0.1206    -0.58975    -0.25552
0.02706    0.045574      0.1206     0.42397    -0.38804    -0.44261    -0.17659
0.073832    0.072858     0.18394     0.51362      -0.555    -0.20615   -0.085324
0.12483    0.096569     0.23916     0.57988    -0.23116    0.090397   0.0036737
0.17257     0.11736     0.28008     0.61951      0.4204     0.38467    0.080653
0.2096     0.13392     0.30737     0.63477       1.097     0.61659     0.14074
0.23526     0.14269     0.32523     0.62893       1.592     0.76177     0.18427
0.2515     0.14561       0.334     0.59612      1.8548     0.83745     0.22032
0.26157     0.14269      0.3314     0.53506      1.9142     0.87351     0.25962
0.27067     0.13977     0.31841     0.46198      1.7492     0.88942     0.29957
0.28236     0.14496     0.30185     0.41098      1.2922     0.88715     0.33205
0.29503     0.16315      0.2895     0.41066     0.52726     0.85272     0.35024
0.30477     0.19271     0.29113     0.46847    -0.39259     0.77087     0.35284
0.3012     0.22454     0.31029     0.56786     -1.1751     0.63542     0.34375
0.26774     0.25053     0.33433     0.66758     -1.5794     0.45256     0.32361
0.20018     0.25865     0.34407     0.71598     -1.4995     0.24013     0.29405
0.10306     0.24566     0.32653     0.67375    -0.96685    0.037454     0.25767
-0.0073698     0.22065     0.28496     0.52661    -0.15841    -0.10189     0.22812
-0.10124     0.19401     0.22714      0.2986     0.63737    -0.13892     0.21772
-0.15483     0.17517     0.16868    0.068635      1.1519   -0.078503     0.23461
-0.15841     0.16803     0.13035    -0.04992      1.2701    0.037778     0.27424
-0.11423     0.17192     0.12775    0.032906      1.0385     0.15763     0.31809
-0.036278     0.18102     0.15796     0.31549     0.61756     0.24598     0.35057
0.05207     0.18784     0.20408     0.70331     0.18751      0.2934     0.35934
0.13295     0.19011     0.24533      1.0658    -0.12722     0.31614     0.34602
0.19953     0.18751     0.27002      1.3188    -0.29385     0.33887     0.32134
0.24923     0.18524     0.28008      1.4442    -0.34777      0.3811     0.29892
0.27944     0.18362     0.28268      1.4634    -0.33965     0.44704     0.28268
0.29373     0.18751     0.28268      1.4127    -0.29775     0.52629     0.26839
0.29762     0.19434     0.28171      1.3273    -0.23311     0.60067     0.24728
0.29762     0.19953     0.27586      1.2331    -0.15256     0.65719      0.2161
0.29697     0.19953     0.26092      1.1437   -0.068758     0.69032     0.17777
0.2895     0.19336     0.23234      1.0648   0.0039985     0.70948     0.13717
0.27294     0.18069     0.19401     0.99206    0.054993     0.73871     0.10436
0.25345     0.16543     0.14691     0.91541    0.080003     0.79555    0.087149
0.24078     0.15211    0.096244     0.81862    0.091696     0.87286     0.09462
0.24143     0.14237    0.039402     0.69389     0.12483     0.94399     0.12288
0.25507     0.13684    -0.02361      0.5565     0.21382     0.98199     0.16478
0.27716     0.13262   -0.085324     0.43794      0.3444     0.97063     0.20733
0.2947     0.12613    -0.13437     0.36291     0.47205     0.90956     0.24046
0.29957     0.11443    -0.15678     0.33563     0.54805     0.81862     0.25767
0.28885     0.10112    -0.15223     0.34635     0.53766     0.72085     0.25897
0.26807    0.092021    -0.12722     0.36908     0.42527     0.62406     0.24923
0.24306    0.088448   -0.095717      0.3772     0.22097     0.52239     0.23136
0.21707    0.088124   -0.072331     0.35057   -0.030756     0.40514      0.2044
0.19174    0.085525   -0.068434     0.28268    -0.29547     0.26839      0.1664
0.16835    0.079679   -0.081101     0.18394    -0.62385     0.13977     0.11995
0.14626    0.067011    -0.10351    0.070909     -1.1309    0.054344    0.073182
0.12385     0.05207     -0.1256   -0.034978      -1.786    0.032906    0.030308
0.10339    0.037454    -0.13859    -0.11488     -2.3551    0.067011   0.0017248
0.089098    0.027709    -0.13827    -0.15223     -2.5893     0.12223   -0.007045
0.081952     0.02706    -0.12138    -0.14541      -2.369     0.15601   0.0020496
0.083251    0.031607    -0.09117    -0.10156     -1.7724     0.14139    0.016341
0.088773    0.037129   -0.059014   -0.042124     -1.0302    0.076106    0.025761
0.087799    0.031932   -0.040825   0.0033489    -0.41923   -0.027183    0.022188
0.068635    0.010495   -0.044723    0.016016    -0.11715    -0.15548   0.0023744
0.031607    -0.02426    -0.06681  -0.0093186    -0.12138    -0.28703   -0.027183
-0.013216   -0.062912   -0.097991   -0.057715    -0.26592    -0.40136   -0.060638
-0.050244   -0.092145    -0.13145    -0.10903    -0.35979    -0.49003   -0.085973
-0.069733    -0.10514    -0.15288    -0.14509    -0.30489    -0.54947   -0.095717
-0.067784   -0.097991    -0.15418    -0.15905    -0.12787    -0.59495   -0.085648
-0.044723   -0.078178    -0.13372    -0.15483    0.071883    -0.65016   -0.060963
-0.011917   -0.053492    -0.09994    -0.14574     0.18849    -0.73624   -0.031081
0.016991   -0.029457   -0.064861    -0.14704     0.14691    -0.85447  -0.0060706
0.033231  -0.0099683   -0.034004    -0.16912   -0.073955    -0.97205    0.015042
0.040377   0.0065969   -0.011267    -0.20972    -0.40299      -1.036    0.039402
0.045899    0.023487   0.0095202    -0.25292    -0.71058     -1.0052    0.071883
0.053694    0.040377    0.030957    -0.29288    -0.89085    -0.87753     0.11346
0.066037    0.055643    0.055643     -0.3299    -0.90254    -0.68037     0.15698
0.080653    0.069285    0.081303     -0.3705    -0.75962    -0.45885     0.19336
0.09462    0.078379     0.10469     -0.4189    -0.49523     -0.2513     0.21155
0.10014    0.086824      0.1206    -0.47996    -0.14444   -0.078827     0.20473
0.093321    0.086824     0.12418    -0.55759     0.23656    0.056942     0.17517
0.074157    0.078055     0.11768    -0.64886     0.56981     0.16315     0.13067
0.046873    0.061489     0.10631    -0.74208     0.77477     0.22162    0.080653
0.015042    0.042001    0.098517    -0.82588     0.78354     0.21252    0.027385
-0.01549    0.023487    0.098842     -0.8876     0.57566       0.131   -0.027833
-0.043423   0.0078962     0.10631    -0.91651     0.20505 -0.00054884   -0.078503
-0.066485  -0.0024977     0.11346    -0.91001    -0.16198    -0.14087    -0.11845
-0.084674  -0.0089938     0.11898    -0.87428    -0.36563    -0.24935    -0.14671
-0.09994    -0.01484      0.1206    -0.82199    -0.43352    -0.30522    -0.16945
-0.11651   -0.023935     0.11183    -0.76937    -0.55694    -0.31171    -0.19316
-0.13859   -0.043423    0.087149    -0.73299    -0.85609    -0.27664    -0.22402
-0.16588   -0.071032    0.047847    -0.72097     -1.1984    -0.20323     -0.2552
-0.19543   -0.099615   0.0039985    -0.72552     -1.3092    -0.10221    -0.27534
-0.21557     -0.1217   -0.035953    -0.73819     -1.0068  0.00075039    -0.28151
-0.21849    -0.13697   -0.064861    -0.74306    -0.29028      0.0852    -0.27436
-0.20388    -0.14444   -0.081751    -0.73949     0.71208     0.15568    -0.25455
-0.18407    -0.14671   -0.086623    -0.73364      1.7797     0.23104    -0.22856
-0.16685    -0.14314   -0.081101    -0.73137      2.6736     0.31971    -0.20128
-0.15418    -0.13599   -0.072331    -0.71772      3.1631     0.41553    -0.17919
-0.14411    -0.12592   -0.061937    -0.64302      3.0325      0.5042    -0.16393
-0.13145    -0.11196   -0.046347    -0.45073      2.2127     0.56884    -0.15386
-0.11521   -0.090521   -0.020037    -0.15386     0.95926     0.60067    -0.14379
-0.096042   -0.062912    0.010495     0.14237    -0.23896      0.5997    -0.13372
-0.082076   -0.036927    0.033231     0.31419    -0.90904     0.57079    -0.13015
-0.077528   -0.018413    0.039402     0.31874    -0.87818     0.52044    -0.13145
-0.080776   -0.010943    0.029009       0.207    -0.30489     0.45451    -0.13827
-0.0837    -0.01484    0.012443    0.084226     0.44866      0.3863    -0.14769
-0.075579   -0.022636  -0.0015233    0.044599      1.0606     0.33595    -0.15711
-0.0405   -0.025884  -0.0050961     0.12678      1.4016     0.31744    -0.16295
0.024137   -0.016464   0.0039985     0.30315      1.4871     0.33335    -0.15841
0.10696   0.0043233    0.024137     0.50388      1.4094      0.3785    -0.14249
0.18427    0.028359    0.052395     0.66173      1.2464     0.42885    -0.11163
0.23624     0.05142    0.080978     0.73514       1.021     0.45451   -0.068758
0.25248     0.06896     0.10371     0.72182     0.75235     0.43209   -0.022636
0.23591    0.081627     0.11931     0.64419     0.47919     0.35609    0.016341
0.19726    0.091047     0.12483     0.53733     0.27034     0.24988    0.037778
0.14529    0.096569     0.12353     0.43242     0.16608     0.14724    0.041027
0.087799    0.097218      0.1206     0.34375     0.15146    0.076755    0.032257
0.030308    0.087799     0.11703     0.26514     0.19011    0.037454    0.018615
-0.028807    0.065387     0.10501     0.18329     0.18167  0.00075039    0.009845
-0.086298    0.031932    0.078055    0.091047   -0.056091   -0.069083    0.010819
-0.14152  -0.0037969    0.032257    -0.01484    -0.63327    -0.19803    0.020888
-0.19056   -0.037252   -0.025234    -0.12495     -1.3995    -0.38642    0.031282
-0.22986   -0.063886   -0.080451    -0.21947     -2.0079    -0.60307    0.034206
-0.26007   -0.084024    -0.12105    -0.27274     -2.1816    -0.79438    0.028684
-0.27988   -0.096367    -0.13469    -0.26527     -1.8747    -0.91131    0.015692
-0.28735    -0.09929    -0.12138    -0.19381     -1.2325    -0.93729  0.00075039
-0.27891    -0.09182   -0.085648    -0.06616    -0.48159    -0.88013  -0.0047713
-0.25    -0.07428   -0.040175    0.095919     0.15211    -0.75767    0.009845
-0.20518   -0.048945   0.0026992     0.26027     0.51395    -0.59105     0.04395
-0.1597   -0.021337    0.036479     0.39247      0.5906    -0.40104    0.088124
-0.1308  -0.0028225     0.06019     0.46133     0.46198    -0.22532     0.12743
-0.1282   0.0017248    0.067011     0.45093     0.20246    -0.10286     0.14659
-0.14964  -0.0093186     0.05207     0.37688    -0.05739   -0.051868     0.14237
-0.18439   -0.028482    0.021538     0.27684   -0.092794   -0.063561     0.12548
-0.2146   -0.045047   -0.007045     0.19109     0.28723    -0.10156     0.10664
-0.22434   -0.048945   -0.023935     0.14951      1.0531    -0.13242    0.088773
-0.19998   -0.038227   -0.028482     0.15666      1.9749    -0.13534    0.074157
-0.14509   -0.016464   -0.024585     0.19596       2.772    -0.10579    0.063113
-0.072981    0.011794   -0.019063     0.23851      3.2787   -0.051868    0.059865
-0.0024977    0.037454    -0.01614     0.26255      3.4411   0.0036737    0.054668
0.048822    0.050771   -0.022961     0.25053      3.2024    0.024137    0.033231
0.06831    0.041676   -0.043423     0.19141      2.5346   -0.023285   -0.012892
0.051096    0.014717   -0.077203    0.092021      1.4247    -0.14054   -0.081426
0.0033489   -0.021337    -0.12138   -0.025884    -0.17335    -0.29905    -0.16003
-0.054467   -0.052518     -0.1662    -0.13567     -2.0381    -0.46178    -0.23603
-0.10156   -0.072331    -0.20031    -0.22369     -3.6991    -0.57968    -0.29547
-0.12203   -0.080451    -0.21265    -0.27664     -4.6788     -0.5969    -0.32503
-0.11066   -0.075255    -0.19771    -0.28898     -4.6852    -0.46957    -0.31756
-0.071682   -0.055441    -0.15711    -0.25682     -3.7849    -0.21979    -0.26722
-0.014516   -0.023285    -0.10221    -0.18471     -2.3742    0.068635    -0.17984
0.046548    0.014717   -0.047646   -0.089871    -0.94834     0.30542    -0.07493
0.098842    0.051745  -0.0024977   0.0095202    0.036804     0.44509    0.024137
0.12872    0.082602    0.029983    0.095594     0.33173     0.48764    0.097218
0.13067     0.10306    0.052395     0.15796    0.049147     0.44704     0.13555
0.11346     0.11411    0.067336     0.19401    -0.43741     0.34992     0.14237
0.089098     0.11833    0.080978      0.2161    -0.74955     0.22422     0.13327
0.073182     0.11963    0.099492     0.23883    -0.74014    0.095594       0.131
0.079029     0.12613     0.13002     0.26417    -0.54882   -0.010293     0.15081
0.11118     0.14237      0.1729     0.29275    -0.49133   -0.081426     0.19628
0.16153     0.16933     0.22162     0.31614    -0.78106     -0.1178      0.2593
0.21772     0.20083     0.26807     0.33043      -1.317     -0.1191     0.32556
0.27099     0.22779     0.30185     0.32848      -1.798   -0.088247     0.38207
0.31192     0.24566     0.31906     0.30672      -1.978   -0.045047     0.41943
0.3327     0.25313     0.31744     0.26449     -1.7675   -0.010943     0.43762
0.33368     0.25118     0.29795     0.21252     -1.2543    0.010819     0.44379
0.32458     0.24533     0.27099     0.16965     -0.6297    0.031282     0.44314
0.31159     0.23851     0.24533     0.14984    -0.09117    0.065387     0.44541
0.30315     0.23396     0.22714     0.15958     0.25118     0.13847     0.45386
0.29925     0.22941      0.2161     0.19434     0.46425     0.25637     0.45938
0.2921     0.22357     0.20538     0.22877     0.71045     0.38922     0.44736
0.27424      0.2083     0.18167     0.23234      1.1002     0.48309     0.40416
0.23981     0.17582     0.14107     0.18849      1.6345     0.49186     0.32621
0.19076     0.12807      0.0865     0.10534      2.1955     0.39637     0.21967
0.13425    0.076431    0.031282    0.014068      2.5544      0.2083     0.10209
0.079029    0.032906   -0.015815   -0.050569      2.5076   -0.033354   -0.011917
0.034855   0.0026992   -0.047321   -0.073306      2.0594    -0.27534    -0.10644
0.0026992   -0.014516   -0.063237   -0.058365      1.5124    -0.48451    -0.17594
-0.016464   -0.022961   -0.070058    -0.02361      1.2675    -0.64432    -0.21785
-0.024909   -0.026858    -0.07428    0.012119       1.502    -0.74728    -0.23961
-0.022311   -0.029457   -0.080451    0.039402      2.0149    -0.79016    -0.24773
-0.011917   -0.027833   -0.085324    0.058566      2.3978    -0.78009    -0.24221
0.0043233   -0.020037   -0.090521    0.070909      2.3446    -0.72812    -0.22239
0.021213  -0.0080194   -0.092469    0.084551      1.8284    -0.64464    -0.18601
0.032906   0.0043233   -0.092145     0.10469      1.0726    -0.54428    -0.13404
0.044599    0.015367   -0.088896     0.13652      0.3837    -0.44196   -0.076879
0.056292    0.025111     -0.0837     0.17972   -0.033354    -0.34939   -0.028157
0.070259    0.033881   -0.075255     0.22487    -0.14411    -0.26169   0.0043233
0.082277    0.039727   -0.063886     0.27067   -0.042449    -0.16295    0.020239
0.093645    0.048822    -0.04927     0.31549     0.12645   -0.044723    0.025436
0.10209     0.06019   -0.036602     0.35934     0.23981    0.092346     0.02641
0.10761    0.074157   -0.031081     0.39767     0.23396     0.23721    0.030633
0.10989    0.086175   -0.033679     0.42365     0.10014     0.37623     0.04395
0.11118    0.093645   -0.047646     0.42625    -0.12852     0.49511    0.062139
0.11378    0.093321   -0.071682     0.40416    -0.40104     0.59255    0.076431
0.11995    0.084551    -0.10546     0.35869    -0.67875      0.6744    0.080003
0.12905    0.071883    -0.13924     0.30445    -0.93762     0.76177     0.06961
0.13944    0.059541    -0.16425     0.25118     -1.1582     0.86474    0.044275
0.14821    0.051745    -0.18017      0.2109     -1.3573     0.98199    0.011469
0.15179    0.049796    -0.18894     0.18557     -1.5804      1.0918   -0.020037
0.14756    0.051745    -0.18926     0.16348     -1.8526      1.1593   -0.046347
0.14269     0.05207    -0.17659     0.12905     -2.1417      1.1473   -0.059339
0.14139    0.048822    -0.15158    0.080653      -2.384      1.0421   -0.056091
0.14496    0.044599    -0.12138    0.028034     -2.5311     0.86604   -0.040175
0.15438    0.041027   -0.089221   -0.017439     -2.5695     0.66336   -0.020037
0.16738    0.043625   -0.057065   -0.043423     -2.4886     0.46458  -0.0034721
0.18362    0.055318   -0.025234   -0.044723     -2.2362     0.28463    0.011144
0.20473    0.074482   0.0039985   -0.020037     -1.7344     0.14984    0.032582
0.23071    0.099167    0.032582    0.031932    -0.97919    0.075131    0.071558
0.258      0.1258    0.067011     0.10534   -0.092794    0.054993     0.12743
0.28203     0.15049     0.10956     0.18654     0.73384    0.056617     0.18784
0.29892     0.17095     0.15373     0.26255      1.4137    0.031932     0.24013
0.30087     0.18394     0.18946     0.33465      2.0159   -0.034654     0.27294
0.28561     0.18394       0.207     0.40449      2.5732    -0.11326     0.28885
0.25475     0.16738     0.19823      0.4662      3.0283     -0.1688     0.28885
0.20798     0.13749     0.16185     0.51395      3.3716    -0.18309     0.27489
0.15179    0.097868     0.10404     0.54968      3.6867     -0.1597      0.2528
0.088448    0.050446    0.034206     0.58313      3.9634    -0.13567     0.22422
0.015367  0.00042559   -0.034004     0.62016      3.9556    -0.15353     0.18589
-0.065186   -0.052518   -0.093769     0.64907      3.4768    -0.21102     0.14107
-0.14119    -0.10156    -0.13859     0.65978      2.7269    -0.22564     0.10274
-0.19608    -0.13859    -0.16198      0.6351      2.0314   -0.095393    0.086824
-0.22207     -0.1636    -0.16782     0.54285      1.3789      0.2109    0.090397
-0.22467    -0.18212     -0.1688      0.3457     0.45126     0.60814    0.099492
-0.21622    -0.20096    -0.17237    0.039078      -0.923     0.96056    0.094295
-0.20648    -0.21947    -0.17757    -0.33997     -2.4837      1.1671    0.067986
-0.19901    -0.23344    -0.18114    -0.74403     -3.7917      1.1869    0.029658
-0.19089    -0.23571    -0.17757     -1.1429     -4.5508      1.0314  -0.0034721
-0.18114    -0.22467    -0.16685     -1.5177     -4.8295     0.73904   -0.024909
-0.17367    -0.20453    -0.15029       -1.85     -4.9155     0.35544   -0.042449
-0.17562    -0.17854    -0.12982     -2.1215     -4.9146   -0.076554   -0.069408
-0.19478    -0.15418    -0.11196     -2.3346     -4.7333    -0.52934    -0.11163
-0.23896    -0.14346    -0.10416      -2.499     -4.1997    -0.98991    -0.17172
-0.30977    -0.14704    -0.10936     -2.6182     -3.1051       -1.43    -0.24253
-0.39876     -0.1597     -0.1217     -2.6757     -1.2735     -1.7964    -0.31074
-0.48256    -0.17075     -0.1308     -2.6477      1.2285     -2.0124    -0.35849
-0.52836     -0.1714    -0.12365     -2.5168      3.8224     -2.0131    -0.36433
-0.52316    -0.15841   -0.093119     -2.2927      4.9583     -1.7831    -0.31951
-0.46892    -0.13015   -0.037902     -2.0088      4.9583     -1.3846    -0.23896
-0.3835   -0.089871    0.029009     -1.7032       4.958    -0.92463    -0.14541
-0.28605   -0.047321    0.095919     -1.4027      3.9871    -0.50887   -0.061613
-0.19154   -0.008669     0.15601     -1.1192        1.35    -0.19868  -0.0047713
-0.10936    0.022512      0.2083     -0.8496    -0.88857  -0.0054209    0.019264
-0.041799    0.046223     0.25507     -0.5878     -2.0377     0.10664    0.017965
0.008221    0.065062     0.29633    -0.32568     -2.1875     0.18881   0.0033489
0.045899    0.083251     0.32783   -0.070058     -2.0082     0.27456   -0.010943
0.079354     0.10696     0.34829     0.15958     -2.4168     0.36324   -0.018088
0.11508     0.13912     0.36064     0.35284     -3.8661     0.45288   -0.012892
0.14886     0.17517     0.37363     0.51492     -4.9685     0.54188   0.0078962
0.1742     0.20993     0.38987     0.65589     -4.9678     0.62048    0.043625
0.18134     0.23429     0.40449     0.77607     -4.9682     0.67115    0.077405
0.16185     0.23948     0.40449     0.86734     -4.9682      0.6718    0.090397
0.11801     0.22227     0.38792     0.92775     -4.9685     0.61106    0.072858
0.061814     0.18687     0.36226     0.96153     -2.5938     0.51427    0.039727
0.0078962     0.13944     0.33465     0.97322    -0.52576     0.42982   0.0033489
-0.036602    0.091047      0.3038     0.96413     0.24371     0.39117   -0.029457
-0.068434    0.048822     0.26319      0.9323     0.21675     0.38825   -0.056091
-0.09117    0.010819       0.207     0.87741     0.45321     0.38662   -0.079802
-0.11521   -0.026533     0.14107     0.79523      1.7544     0.34245    -0.10838
-0.14574   -0.064861    0.068635     0.68317      4.0423     0.22617    -0.14996
-0.17627    -0.09994  -0.0034721     0.54383      4.9583    0.042326     -0.2029
-0.19316    -0.12105   -0.063237     0.40514      4.9583    -0.16815    -0.25422
-0.18634    -0.12203    -0.10026     0.30217      4.9586    -0.34257      -0.288
-0.14996    -0.10546    -0.11358      0.2554      4.9586    -0.44781    -0.30035
-0.084349   -0.078503    -0.10968     0.26287      4.9583    -0.49263    -0.29255
-0.0083442   -0.053817   -0.089871      0.2999      4.9583    -0.51537    -0.27144
0.048497   -0.038227   -0.064861     0.32004      3.3099    -0.56961    -0.25195
0.063438   -0.034978   -0.046671     0.29048      1.2571    -0.68329    -0.23896
0.038753   -0.041799   -0.047321     0.20993     -0.5891    -0.84083    -0.22921
-0.0047713   -0.053168   -0.060313     0.12093      -1.926    -0.99024    -0.21655
-0.035303   -0.059664   -0.073306    0.079029      -2.499     -1.0708    -0.19543
-0.033679   -0.047646   -0.074605     0.10891     -2.2066     -1.0477     -0.1636
0.0023744   -0.014516   -0.062587     0.19011      -1.279    -0.90384    -0.12008
0.057917    0.031932   -0.035953     0.30022     -0.2107     -0.6297   -0.063561
0.11638    0.080653   0.0069217     0.46977     0.47594    -0.23896   0.0095202
0.17062     0.13067    0.073507     0.73611     0.49478      0.2148    0.096244
0.22162     0.17615     0.15633      1.0694     -0.1701     0.64679      0.1781
0.26709     0.21382     0.23104      1.3666     -1.3358     0.95828     0.23136
0.29633     0.23266     0.26969      1.5205     -2.6185       1.082     0.24501
0.30055     0.22941     0.25637      1.4838     -3.4714      1.0232     0.21837
0.28008     0.20505     0.19823      1.2958     -3.5172     0.85045      0.1664
0.2463     0.17387     0.11931      1.0473     -2.7358     0.65231     0.11281
0.21188     0.14984     0.05207     0.82966     -1.4232     0.48147    0.084876
0.19239     0.14107    0.014717     0.69941    0.042651      0.3431      0.0852
0.18394     0.14139    0.010495     0.65816      1.3753     0.22065    0.097218
0.1781     0.14009    0.025761     0.66401      2.4781    0.099492     0.10242
0.16608     0.13002    0.040702     0.66888      3.3713   -0.034329    0.089098
0.14367     0.10599    0.037778     0.63997      4.0891    -0.17789    0.053044
0.11183    0.071883    0.015042     0.56949      4.6621    -0.29515    0.012119
0.07773    0.035505   -0.018413     0.47822      4.9583    -0.33932  -0.0080194
0.050121   0.0043233   -0.049595     0.38954      4.9583    -0.26916   0.0072465
0.037778   -0.012892    -0.06681     0.32361      4.6426   -0.096692    0.057267
0.042001   -0.015815   -0.063561     0.29015      3.5756     0.11216      0.1219
0.059216   -0.007045   -0.041799     0.28496      2.0444     0.27651     0.17485
0.082277   0.0056225   -0.012242      0.3012     0.35609     0.34472     0.19499
0.10047    0.016341     0.01764     0.32816      -1.037     0.32718     0.18329
0.10274    0.021213    0.039078     0.35609     -1.7834     0.26742     0.15049
0.0852    0.022188     0.05272     0.37753     -1.8312     0.21512     0.11541
0.044924    0.024137    0.061489     0.39279     -1.3527     0.20635    0.094945
-0.014191    0.031282    0.074806     0.40773    -0.64692      0.2515    0.099167
-0.0837    0.042975    0.096893     0.42527      0.0014     0.34082     0.12905
-0.15256    0.055318     0.12418     0.44119      0.4178     0.44898     0.17615
-0.20388    0.064413     0.14984     0.44411     0.57728     0.55162     0.22162
-0.22629    0.071234     0.16575     0.43145     0.56754     0.63932     0.24728
-0.21427    0.076755     0.17192     0.41131     0.48179     0.72345     0.25443
-0.16815    0.084551      0.1716     0.39637     0.36324     0.81309     0.25215
-0.095393    0.096244     0.17095     0.38825     0.26839     0.91638     0.25248
-0.010943     0.11281     0.17387      0.3824     0.30347      1.0392     0.26222
0.073507     0.13132     0.17939      0.3733     0.50518      1.1795     0.27684
0.15438     0.14919     0.18394     0.35901     0.76177      1.3126     0.28658
0.22649     0.16478     0.18849     0.34602     0.98459      1.4023     0.29113
0.28691     0.17874     0.19628     0.34732      1.1993      1.4442     0.29633
0.3366     0.18914     0.20765     0.37655      1.4864      1.4595     0.31192
0.37753     0.20278     0.22357     0.43047      1.8103      1.4621     0.33465
0.41066     0.21772     0.24273     0.49381      1.9707      1.4439     0.35349
0.42852     0.23429     0.25995     0.54415      1.6602       1.399     0.36096
0.42332     0.24566     0.27067     0.56104     0.60911      1.3269     0.34862
0.39507     0.24468     0.26547     0.52889     -1.0981      1.2233     0.31874
0.34375     0.22584     0.24176     0.44963      -2.878      1.0837     0.27554
0.27684     0.18881     0.19693     0.33335      -4.224     0.90144     0.23169
0.2083     0.14139     0.13847     0.19109     -4.9688     0.66758     0.19791
0.14984    0.091047     0.07773    0.042326     -4.9685     0.37298     0.17874
0.10631    0.050446    0.025436   -0.093769     -4.9685     0.01017      0.1742
0.077405    0.023162   -0.010293    -0.20323     -4.9682    -0.41825      0.1755
0.058891   0.0052977   -0.034978     -0.2867     -4.9685    -0.90319     0.16803
0.0433   -0.014191   -0.061613    -0.35719      -4.516     -1.4144     0.13977
0.024461   -0.039201    -0.10026    -0.42572     -3.4623     -1.8981    0.082927
0.0026992   -0.070058    -0.15029    -0.48808     -2.3067     -2.2869   0.0043233
-0.018413    -0.09994    -0.19998    -0.53161     -1.2917     -2.5353   -0.079802
-0.039851     -0.1178    -0.23376    -0.54752      -0.593     -2.6341    -0.14866
-0.060313    -0.12008    -0.24318    -0.54298     -0.2435     -2.5753    -0.19056
-0.072656    -0.10709    -0.23214    -0.52804    -0.19543     -2.3398    -0.20225
-0.06681   -0.084349     -0.2107    -0.50562    -0.37635     -1.9348    -0.19056
-0.043748   -0.056091    -0.18796    -0.47607    -0.64724     -1.4326    -0.17042
-0.0099683   -0.031406    -0.16782    -0.44099    -0.75053    -0.94541    -0.15223
0.023162    -0.01549    -0.15321    -0.40786    -0.40331    -0.58228    -0.14346
0.046873   -0.013541    -0.14704    -0.38155     0.64939    -0.38902    -0.14314
0.06084   -0.022961    -0.14769    -0.35881      2.4254    -0.32308    -0.13924
0.073832   -0.031406    -0.14671    -0.32503      4.5893     -0.2552    -0.10579
0.10112   -0.021986    -0.13275    -0.26624       4.958    -0.04862   -0.013216
0.15081   0.0095202    -0.09929    -0.18277      4.9583     0.36161     0.14691
0.21285    0.057592   -0.050894   -0.089546      4.9583     0.94659     0.35284
0.26417     0.10859  0.00010078  -0.0044465      4.9583      1.5887     0.55617
0.28788     0.15276    0.042326    0.053369      4.9586      2.1211     0.70298
0.27294     0.18394    0.071883     0.06831      1.4929      2.3884     0.74976
0.22162     0.19693      0.0852    0.028359     -4.1886      2.2828     0.69292
0.14204     0.19109    0.078379   -0.075579     -4.9678      1.7817     0.55455
0.041027     0.16413    0.053369     -0.2435     -4.9678     0.95179     0.37493
-0.074605     0.11281    0.012443    -0.44781     -4.9682   -0.064861     0.18914
-0.19154    0.040702   -0.033679    -0.64107     -4.9682     -1.0393    0.027709
-0.29417   -0.040175   -0.080776    -0.77879     -4.9678     -1.7617    -0.09117
-0.37018    -0.11813     -0.1243    -0.84505     -4.9678      -2.116    -0.17075
-0.41598    -0.18244    -0.16263    -0.85414     -1.0263     -2.1193    -0.22142
-0.43482    -0.22726    -0.19836    -0.83725      4.9583     -1.9117    -0.26137
-0.42865    -0.25455    -0.23701    -0.82523      4.9583     -1.6895    -0.30392
-0.40201    -0.26819    -0.27793    -0.85057      4.9583     -1.5986    -0.35329
-0.36433    -0.27664    -0.32081    -0.92593       4.958     -1.6593    -0.39876
-0.3351    -0.28573    -0.36303     -1.0448      4.9583     -1.7714    -0.43124
-0.32666    -0.29612    -0.40234     -1.1854      4.9583     -1.8097    -0.45593
-0.34679    -0.30587    -0.43741     -1.3274      4.9583     -1.7266    -0.48938
-0.38642    -0.31074     -0.4686     -1.4489      4.6747     -1.5798    -0.54265
-0.43189    -0.30912    -0.48808     -1.5294      1.7196     -1.4437    -0.61281
-0.47022     -0.2971    -0.49101     -1.5496     -1.6165     -1.3436    -0.68102
-0.48711    -0.27696    -0.47282     -1.4947     -4.6268     -1.2605    -0.72714
-0.47087    -0.25098    -0.43384     -1.3677     -4.9682     -1.1624    -0.73331
-0.41858    -0.22207     -0.3796     -1.1971     -4.9678     -1.0237    -0.69661
-0.34225    -0.19186    -0.31951     -1.0133     -4.9682    -0.82036    -0.62808
-0.2591    -0.15938    -0.26007    -0.83238     -4.9678    -0.54752    -0.54168
-0.18049    -0.12203    -0.20518    -0.64659     -4.9682    -0.23019    -0.44878
-0.10838   -0.080127    -0.15321    -0.45268      -3.273    0.076755    -0.36336
-0.038876   -0.034978    -0.10546    -0.24805    -0.90351     0.33173     -0.2997
0.036479   0.0085458   -0.062587   -0.036927     0.87188     0.52856    -0.25975
0.11833    0.045899   -0.024909     0.15958      1.6829      0.6809    -0.23733
0.18979    0.071558   0.0069217     0.30445      1.6329     0.79393    -0.22986
0.22324    0.082927    0.031932     0.36941      1.0986     0.84363    -0.23798
0.20538    0.081952    0.049796     0.38175     0.51395     0.79101    -0.25845
0.14561    0.074806     0.06896     0.41131     0.19563     0.62795    -0.27339
0.073832    0.067986    0.094295      0.5055      0.3353     0.39669    -0.26397
0.021538    0.065712     0.12743     0.65491      1.0375     0.18004    -0.22369
-0.00022403    0.066686      0.1625     0.81407      2.2543    0.074482    -0.15223
0.0062721    0.074806     0.19141     0.94821      3.7799     0.14659   -0.060313
0.030957    0.090397     0.21188      1.0327      4.9583     0.39442    0.044924
0.063763     0.11118     0.22227      1.0586      4.9583     0.74359     0.15244
0.096569     0.13165     0.22194      1.0268      4.9583      1.0879      0.2476
0.12548     0.15016     0.21707     0.95049      4.9583      1.3448     0.32069
0.15211     0.16543     0.21252     0.84265       4.958      1.4851     0.36746
0.17485     0.17452     0.21252     0.70916      4.9583      1.5387      0.3889
0.18914      0.1781     0.20733     0.51525      4.9586      1.5592     0.39247
0.19076     0.17257     0.18232     0.20116      4.9583      1.5793     0.39182
0.17972     0.15796     0.13457    -0.23376      4.9583      1.5783     0.39312
0.16575     0.13587    0.076755    -0.67225      4.9583      1.4984     0.39344
0.15568     0.11443    0.038428     -0.9217      4.7361      1.3088     0.38305
0.15438     0.10242    0.040377    -0.82426      3.3086      1.0336     0.36259
0.16283     0.10794    0.088124    -0.36856      1.6206     0.75138     0.34635
0.17939     0.12937     0.16185     0.26125    -0.23246     0.54448     0.34375
0.20018     0.15309     0.22292     0.77672     -1.9088     0.44054     0.35057
0.21707     0.16445     0.23656     0.98687     -3.1129     0.41033     0.35382
0.22812     0.15698     0.19499     0.88293     -3.9349     0.40059     0.34212
0.23429      0.1349     0.12125     0.62243     -4.7349     0.39637     0.31809
0.24208     0.11118    0.055643     0.40124     -4.9682      0.4243     0.29925
0.25475    0.095919    0.028684     0.33855     -4.9685     0.49478     0.29015
0.26774    0.093321    0.042326     0.42365     -4.9685     0.55942     0.27976
0.27164    0.099167    0.071234     0.55877     -4.9685     0.52531     0.24501
0.258     0.10306    0.086824      0.6377     -4.9682     0.31906     0.17322
0.22259    0.097543    0.073507     0.61366     -4.9682   -0.067459    0.063113
0.16868    0.080003    0.038753     0.50323     -4.9682    -0.55077   -0.068109
0.10729    0.050121  -0.0037969     0.35901     -4.9682     -1.0016    -0.19966
0.041351    0.011469     -0.0405     0.22357     -4.9678     -1.3342    -0.31983
-0.029457   -0.030756   -0.067134     0.10696     -2.8907     -1.5541    -0.43059
-0.10644   -0.072656   -0.086948   0.0023744     0.75008     -1.7246    -0.53616
-0.17984    -0.11066    -0.10644    -0.09994      3.1342     -1.8838    -0.63068
-0.23896    -0.14119    -0.12463    -0.20485      4.0995     -1.9994    -0.69661
-0.27339    -0.16133    -0.14022     -0.2997       4.169     -2.0007    -0.71577
-0.27664    -0.16977    -0.14541    -0.36661      4.0751     -1.8292    -0.67907
-0.25325    -0.16393    -0.13177    -0.38252      4.2707     -1.4869    -0.59365
-0.2107    -0.14444    -0.10026    -0.33478      4.7572     -1.0347    -0.47964
-0.16035    -0.11098   -0.053817    -0.23181      4.9583    -0.55792    -0.36271
-0.11326   -0.068434  -0.0028225    -0.10124       4.958    -0.12495    -0.25812
-0.072656   -0.021337    0.045899    0.024137       4.958     0.22779     -0.1662
-0.033354    0.025761    0.092021     0.12807      4.7709     0.50323   -0.082725
0.0095202     0.06896     0.13717     0.21025      4.0102     0.72734 -0.00087364
0.054019     0.10534     0.18264     0.27424      3.2963      0.9297    0.081952
0.09462     0.13067     0.22259     0.32426      2.7662      1.1311     0.16445
0.12515     0.14367      0.2489     0.35804      2.4232      1.3409      0.2463
0.14496     0.15114     0.26352     0.37655      2.1737      1.5481     0.32686
0.15828     0.15796     0.27034     0.38207       1.898      1.7063     0.40416
0.16868     0.16868     0.27196     0.38207      1.5225      1.7658     0.46587
0.1781     0.18264     0.27456     0.37915      1.0483      1.7157     0.50388
0.19076     0.19693     0.28431     0.37883     0.53603      1.6089     0.52531
0.20505     0.20993      0.2999     0.38467    0.057592      1.5221     0.54675
0.22357      0.2187     0.31614     0.39864    -0.33413      1.5036     0.58151
0.24143     0.22487     0.32881      0.4165    -0.62158      1.5433     0.62438
0.25085     0.22422     0.33628     0.42982    -0.82036      1.5985     0.65654
0.2476     0.21577     0.33855     0.43307    -0.95256      1.6407     0.66238
0.23656     0.20148      0.3353     0.42625     -1.0217      1.6758     0.63607
0.22552     0.18492     0.32523     0.40773     -1.0113      1.7388     0.58378
0.21707     0.16965     0.30867       0.385    -0.90774      1.8531     0.51914
0.2135     0.15861     0.29015     0.36031    -0.72357      1.9899     0.45418
0.2096     0.14951     0.27067      0.3353    -0.51374      2.0899     0.39734
0.20376     0.14334      0.2489     0.30867    -0.33672      2.0993     0.35512
0.19726     0.14107     0.22389     0.28463    -0.23376      1.9844     0.33108
0.19271     0.14269     0.20018     0.26449     -0.2107      1.7385     0.32361
0.19531     0.14496     0.18134     0.24695    -0.26332      1.3945     0.33303
0.20376     0.14756     0.16998     0.23624    -0.39292     0.99986     0.35024
0.22     0.15049     0.17062     0.23689    -0.60242     0.59905     0.36551
0.24241     0.15341     0.18232     0.25345    -0.86519     0.23039     0.37753
0.27164     0.15763     0.19823     0.28561     -1.1218   -0.077853     0.39117
0.30152      0.1664     0.21317     0.32328     -1.3212    -0.32146     0.40481
0.32523      0.1781     0.22227     0.35609     -1.4638    -0.52414     0.41975
0.34277     0.19141     0.22974     0.37493     -1.5843    -0.72357     0.43437
0.35447     0.20246     0.23883     0.37493     -1.7191    -0.94054     0.44216
0.35317      0.2083     0.24501     0.35317     -1.8636     -1.1897     0.43372
0.3353     0.20863     0.24501     0.30964     -1.9299     -1.4781     0.40514
0.3025     0.20213     0.23851      0.2541     -1.8178     -1.8071     0.35576
0.26449     0.19141     0.22779     0.20993     -1.5073     -2.1352     0.29633
0.23006     0.17842      0.2187     0.19044     -1.1062     -2.3882     0.24078
0.20018     0.16673      0.2135     0.19434    -0.78398     -2.5123     0.19499
0.17127     0.15049     0.20765     0.20408    -0.68394     -2.5097     0.15244
0.1362      0.1284     0.19336     0.19921    -0.88467     -2.4317    0.097543
0.088773    0.098842     0.16705     0.17192     -1.4102      -2.359     0.01829
0.029009    0.064088     0.13165     0.12158     -2.1888     -2.3538   -0.084024
-0.037902    0.028684    0.087799    0.047847     -3.0209     -2.4249    -0.19576
-0.10351  -0.0060706    0.036804   -0.041799     -3.6416     -2.5178     -0.2919
-0.16003   -0.039201   -0.018413    -0.13989     -3.8596     -2.5552    -0.35621
-0.20713   -0.072981   -0.078503     -0.2461     -3.6345      -2.486    -0.38967
-0.25227    -0.11131    -0.14964    -0.36044     -2.9716      -2.294    -0.41435
-0.29905    -0.15613    -0.22954    -0.47087     -1.8591     -2.0092    -0.45528
-0.34744    -0.20453    -0.30554    -0.56117    -0.35069     -1.6951    -0.52154
-0.39454    -0.24903    -0.36173    -0.61898      1.3757     -1.3901    -0.59754
-0.42702    -0.27631    -0.38804    -0.62645      3.1744     -1.0708    -0.65211
-0.43254    -0.27761    -0.37862    -0.57383      4.9583    -0.67712    -0.66023
-0.40786     -0.2591    -0.34257    -0.46892      4.9583    -0.16588    -0.61963
-0.36791    -0.23311    -0.30035    -0.34322      4.9586     0.43307    -0.55045
-0.3299     -0.2107    -0.26592    -0.23409      4.9583      1.0333    -0.47639
-0.29872    -0.19868    -0.24773    -0.16653       4.958      1.5468    -0.40721
-0.28151    -0.20128     -0.2461    -0.15061      4.9586      1.9197    -0.34874
-0.27793    -0.21882    -0.25585    -0.18407      4.9583      2.1341    -0.30229
-0.28573    -0.24643    -0.27274    -0.25747      2.4449      2.1994    -0.26299
-0.29872    -0.27923     -0.2945    -0.36141     -1.7798      2.1308    -0.23246
-0.30847    -0.30652    -0.32178    -0.48256     -4.9685      1.9408    -0.22272
-0.30944    -0.31886    -0.35459    -0.60469     -4.9682      1.6427     -0.2461
-0.301    -0.31171     -0.3848    -0.71577     -4.9682      1.2574    -0.29612
-0.28638     -0.2893    -0.40104    -0.80542     -4.9682     0.82251    -0.34907
-0.26754    -0.25877    -0.40169    -0.86778     -4.9685     0.42105    -0.37733
-0.24838    -0.22661    -0.39227    -0.90579     -4.9685     0.13782    -0.36433
-0.22954    -0.20096    -0.37895    -0.91975     -4.9682   -0.010943    -0.30684
-0.20745    -0.18601    -0.36466    -0.90221     -4.9685   -0.038876    -0.21427
-0.1688    -0.17757    -0.34062    -0.84732     -3.8391    0.033231    -0.09929
-0.10968     -0.1623    -0.30554    -0.76092     -1.3716     0.16056     0.02641
-0.038876    -0.13567    -0.26267    -0.65276       1.185     0.27424     0.14367
0.031282   -0.095717    -0.21395    -0.53323      2.8854     0.31971     0.24078
0.090722   -0.042774      -0.161    -0.40786      3.1767     0.28463     0.31289
0.13392    0.019914    -0.10416    -0.28248      2.0012     0.20993     0.35447
0.16121    0.084551   -0.046996      -0.161    -0.15029     0.15211     0.37006
0.16998     0.14789    0.003024   -0.040825     -2.4343     0.11411     0.36713
0.15958     0.20505    0.044924    0.079679     -4.0457    0.030633     0.34797
0.12872     0.25313    0.081303     0.20733     -4.4628    -0.17757     0.31029
0.078379     0.28398     0.12093      0.3444     -3.5244    -0.53778     0.25832
0.019589     0.29762     0.16868     0.48471     -1.3852     -1.0003     0.19888
-0.035953      0.2986     0.22162     0.59093      1.6836     -1.4615     0.14009
-0.078503     0.28431     0.26092     0.60879      4.9583     -1.8182    0.095269
-0.10124     0.25215     0.27034     0.51914       4.958     -1.9916     0.07708
-0.096692     0.20798     0.25443     0.37493      4.9583     -1.9562     0.09397
-0.059664     0.16575     0.22649     0.28333      4.9583     -1.7594     0.14367
0.0069217     0.13457     0.20278     0.32491      4.9583     -1.4921      0.2057
0.082927     0.11151     0.18492     0.48699      4.4682     -1.2423     0.24468
0.13879    0.083251     0.15438     0.66563   -0.055441     -1.0646     0.23071
0.14984    0.043625    0.092671     0.73904     -3.7134    -0.97205     0.15828
0.10729  -0.0080194  -0.0018481       0.639     -4.9682    -0.94217    0.041027
0.022188   -0.062262    -0.11488     0.38045     -4.9682    -0.95029   -0.096042
-0.086623    -0.10514    -0.22044    0.047198     -4.9682    -0.98179    -0.22532
-0.19803     -0.1269     -0.2958    -0.26592     -4.7203     -1.0165    -0.32893
-0.30132    -0.12527    -0.33055    -0.48549     -3.1859     -1.0084    -0.40169
-0.38707    -0.10384    -0.32308    -0.57936     -1.4839    -0.89507    -0.43677
-0.44586   -0.072331    -0.28086    -0.55987     0.19109    -0.64269    -0.43741
-0.4686   -0.042449    -0.21914     -0.4647      1.6807    -0.26689    -0.41143
-0.45463   -0.020687    -0.15191    -0.33413      2.9597     0.16348    -0.37538
-0.40916   -0.008669   -0.093769    -0.20583      4.0498     0.54968    -0.34127
-0.34225  -0.0015233   -0.053168    -0.10611      4.8891     0.81959    -0.31854
-0.26494   0.0017248   -0.033354   -0.047971       4.958     0.94691    -0.31074
-0.18634   0.0017248   -0.029457   -0.029132       4.958     0.93262    -0.31334
-0.10806  -0.0015233   -0.033354   -0.028807      4.9174     0.79815    -0.31626
-0.023935  -0.0031473   -0.034978   -0.023285      3.9962     0.59093    -0.31139
0.06831   0.0023744    -0.03173   0.0062721      2.6778     0.37753    -0.29677
0.16998     0.01829   -0.022636     0.06019       1.072     0.21675    -0.26787
0.27554    0.041027  -0.0050961     0.13555    -0.55889     0.13847    -0.22109
0.37168    0.064737    0.028684     0.22227        -1.8     0.14074    -0.16068
0.44509    0.086175    0.080978     0.30022     -2.3317     0.18557   -0.097341
0.47952     0.10047     0.13717     0.34602     -2.0959     0.22454   -0.046996
0.47399     0.10631     0.18492       0.347       -1.38     0.23494   -0.016789
0.43794     0.10599      0.2174     0.31484     -0.6742     0.23818  0.00010078
0.39702     0.10664     0.23396     0.28496    -0.34809     0.27294    0.017316
0.36811     0.11183     0.23851      0.2908    -0.44294     0.36648    0.043625
0.35901     0.12125     0.23981       0.347    -0.68687     0.51947    0.083251
0.36096     0.13457     0.24436     0.44444     -0.6781     0.71435     0.13392
0.35512     0.14691     0.25637     0.56007    -0.14574     0.92678     0.19369
0.33335     0.15568     0.27424     0.66726     0.86994      1.1428     0.25702
0.29633     0.15893      0.2908     0.74488      2.0607      1.3471     0.31744
0.24988     0.15633     0.30185     0.78191      3.0114      1.5234     0.37103
0.20213     0.15114     0.30672     0.77282      3.3521      1.6576     0.41391
0.15568     0.14594      0.3038     0.72117      2.9331      1.7326     0.44476
0.11931     0.14172     0.29113     0.63575      1.9356      1.7385      0.4623
0.095269     0.13652     0.27034     0.53214     0.71338      1.6764     0.46652
0.0865      0.1271      0.2476     0.43177    -0.38902      1.5696     0.46068
0.090722     0.11313     0.22909     0.34992     -1.1039      1.4422     0.45126
0.10631     0.10014      0.2148     0.29113      -1.316      1.2945     0.43794
0.12613    0.094295     0.19888     0.25215     -1.1319       1.121     0.41813
0.14237    0.098842     0.18037     0.22454    -0.83563     0.94009     0.39052
0.15438     0.10729     0.16121     0.20181    -0.61801     0.79263     0.35641
0.16705     0.11573     0.14821     0.18199    -0.44618     0.70786     0.32588
0.18167      0.1258     0.14821      0.1716    -0.18342     0.68934     0.30282
0.19856     0.13652     0.15568     0.16998     0.20213     0.71013     0.28593
0.21188     0.14139     0.15309     0.16315     0.57533     0.71565     0.26677
0.21382     0.13522     0.12872      0.1336     0.75008     0.66466     0.23851
0.20181     0.11736    0.089098    0.079029     0.63932     0.54773      0.2044
0.18004    0.091696    0.046548    0.012119     0.30087     0.39799      0.1716
0.15438     0.06831    0.012768   -0.048296    -0.10449     0.25183     0.14237
0.12872    0.050771  -0.0083442   -0.087597    -0.41305     0.11638     0.11736
0.10404    0.038428   -0.014191   -0.098965    -0.53291   -0.021661    0.090722
0.078379    0.023812   -0.010293   -0.087272    -0.47737    -0.16847    0.063113
0.05272   0.0039985 -0.00054884   -0.059339    -0.32925    -0.30165    0.041027
0.028034   -0.016789    0.011144   -0.018088    -0.17984    -0.37668    0.038428
0.0091954   -0.035628    0.029658     0.03583   -0.078827    -0.35556    0.061489
-0.00054884   -0.046671     0.06084     0.10209   -0.038551    -0.23603     0.10794
-0.0015233   -0.050244     0.10079     0.17647   -0.044398    -0.06616     0.15861
0.0026992   -0.050894     0.14269     0.24923   -0.062587    0.095594     0.20018
0.016991   -0.043748     0.18329     0.31549   -0.082725     0.20765     0.23299
0.048497   -0.019388     0.22032     0.37168    -0.17789     0.24858     0.25702
0.094295    0.021538     0.24923     0.41618     -0.4699     0.23429     0.27132
0.14529    0.074806     0.26774     0.44476     -1.0331     0.21415     0.27749
0.19336     0.12678     0.27456     0.45548     -1.7623     0.23071     0.27846
0.23201     0.16933     0.27002     0.45158     -2.4171     0.28788     0.27944
0.25865     0.19888      0.2554     0.43404     -2.7695     0.35544     0.27651
0.27229     0.21382     0.23266     0.40189     -2.7078     0.40286     0.26742
0.27619     0.21935     0.20603     0.36551     -2.3083     0.42885      0.2606
0.28138     0.22259     0.18297      0.3431     -1.7418     0.46815     0.25832
0.29243     0.22844       0.169     0.35024     -1.0987     0.56397     0.26514
0.30217     0.23818     0.16673     0.37428    -0.37603      0.7267     0.27749
0.2973     0.24208     0.16705     0.37363     0.45548     0.90761     0.28236
0.26514     0.22714     0.15016     0.30477      1.3971      1.0018     0.25605
0.19466     0.18134    0.092346     0.14269      2.4079     0.88975      0.1677
0.083251     0.10566  -0.0089938    -0.10806      3.3732     0.52954    0.012119
-0.054792     0.01017    -0.13859    -0.40428      4.1034    0.009845    -0.18926
-0.19803    -0.09117    -0.27014    -0.68979      4.4441     -0.5014    -0.39909
-0.32438    -0.18764    -0.38382    -0.92982      4.3675    -0.88013    -0.58001
-0.42377    -0.27046    -0.47769     -1.1176      3.8491     -1.0997    -0.71058
-0.49458    -0.33867    -0.55662     -1.2628      2.8698     -1.2108    -0.79503
-0.542    -0.39064    -0.62061     -1.3774      1.5699     -1.2767    -0.84537
-0.56409    -0.42929    -0.66608     -1.4606      0.2554     -1.3089    -0.87428
-0.55012    -0.45268    -0.68557     -1.4891    -0.67193     -1.2585    -0.87461
-0.49685    -0.45073    -0.67063     -1.4378      -1.011     -1.0653    -0.82653
-0.40883    -0.41858    -0.61801     -1.2985     -0.9191    -0.72292    -0.71675
-0.30002    -0.35719    -0.53875     -1.0935    -0.82816    -0.31366    -0.55759
-0.19446    -0.27858    -0.44878    -0.86973     -1.1273    0.039727    -0.38512
-0.11196    -0.19576    -0.36368    -0.67323      -1.761     0.24046    -0.23961
-0.059989     -0.1204    -0.29288    -0.52349     -2.3434     0.25637    -0.14736
-0.037577   -0.060638    -0.23376    -0.41435     -2.4681     0.11118    -0.10644
-0.033679   -0.019388    -0.18114    -0.31464     -1.9153    -0.12625   -0.098641
-0.029782   0.0046481    -0.12885    -0.19511       -0.72    -0.37213   -0.098965
-0.01484    0.017316   -0.075904    -0.04992     0.82739    -0.55207   -0.090521
0.0039985    0.023487   -0.025234     0.10469       2.215    -0.63262   -0.062912
0.014392    0.028359    0.019589     0.24663      3.0088    -0.62353    -0.01614
0.0033489    0.030957    0.062464     0.35057      2.9318    -0.58163    0.037454
-0.04115    0.028034    0.099492     0.40124       1.961    -0.59462    0.078055
-0.11618    0.011469     0.12125     0.39831     0.32751    -0.73331    0.085525
-0.20745   -0.019063     0.12418     0.35479     -1.5931    -0.98504    0.055968
-0.29093   -0.055116     0.11346     0.29535      -3.385     -1.2485    0.012119
-0.3429   -0.079802     0.10079     0.24825     -4.6995     -1.4018   -0.018413
-0.35004   -0.085973    0.098193     0.23201     -4.9685     -1.3891   -0.017764
-0.31691   -0.073631     0.11183     0.25085     -4.9685     -1.2394    0.012768
-0.26072   -0.048296     0.14172     0.30087     -4.4676     -1.0279    0.055643
-0.2016   -0.017764     0.18004     0.37103     -3.8005      -0.834    0.092346
-0.15743    0.011144     0.21415     0.44411     -3.4662    -0.70148     0.11736
-0.13177    0.031607     0.23721     0.50615      -3.552    -0.62938     0.13912
-0.12203    0.040052     0.24923     0.54675     -3.6952    -0.57481       0.169
-0.12527    0.039078      0.2554     0.56332     -3.3792    -0.46762     0.20603
-0.13989    0.031932     0.25735     0.56559     -2.3083    -0.23506     0.24013
-0.15646    0.028034     0.26092     0.57501    -0.51667     0.14886     0.26807
-0.15873    0.035505     0.27132     0.60489      1.6975     0.69097     0.29178
-0.13307    0.059541     0.29113     0.65296      3.9413      1.3679     0.32036
-0.071032    0.097868     0.31419     0.69616      4.9583      2.0909     0.35674
0.021538     0.13977     0.33205     0.70071      4.9586      2.7275     0.38857
0.13165     0.16738     0.32686     0.63413      4.9586      3.1371     0.39572
0.23526       0.169     0.29048     0.48764      4.9583      3.2297     0.36421
0.31939     0.14561     0.22909     0.28626      4.9583      3.0052     0.29795
0.37753     0.11183     0.15991    0.084226      4.9583      2.5375        0.22
0.40838    0.080003    0.097218   -0.064211      3.5662      1.9174     0.15179
0.41715    0.058241    0.047198    -0.13664     0.57761      1.2262     0.10306
0.40221    0.042326   0.0052977    -0.14769     -2.4525     0.52142    0.071558
0.35934    0.030308   -0.028157     -0.1269     -4.9685     -0.1701    0.050121
0.29275    0.022837   -0.049595    -0.10351     -4.9682    -0.82199    0.038428
0.21415    0.022837   -0.054142    -0.10709     -4.9678     -1.3917    0.040702
0.13652    0.032582    -0.04992    -0.16847     -4.9682     -1.8185    0.054993
0.064413    0.048497   -0.048945    -0.31366     -4.9682     -2.0715    0.069934
-0.0024977     0.06019   -0.067459    -0.54395     -4.9682     -2.1927    0.069934
-0.070058    0.059541    -0.10806    -0.83043     -4.9682     -2.2898    0.044924
-0.14314    0.044275    -0.16393     -1.1146     -4.9682     -2.4645   -0.010618
-0.20908    0.020239    -0.22564     -1.3303     -4.1146     -2.7478   -0.089546
-0.2461 -0.00087364    -0.28151     -1.4391    -0.34647     -3.0638    -0.17367
-0.23701  -0.0076946    -0.31659     -1.4381      2.5771      -3.274    -0.22921
-0.18634   0.0056225    -0.31626     -1.3173       3.827     -3.2762    -0.23149
-0.11196    0.037778    -0.26949     -1.0451      3.4194      -3.069    -0.18212
-0.037902     0.07773    -0.18179    -0.63815      2.0961     -2.7325    -0.11131
0.010495     0.11671   -0.077853    -0.19316      1.0963     -2.3749   -0.055441
0.017965     0.14107   0.0062721     0.15731      1.3883     -2.0744   -0.035628
-0.012242     0.14561    0.036479     0.32621      3.1131     -1.8672   -0.051544
-0.056741     0.13067   0.0043233     0.31614      4.9583      -1.748   -0.086948
-0.087922     0.10794    -0.07493     0.20116      4.9586     -1.6528    -0.11228
-0.094418    0.091372    -0.16815      0.0865      4.9583     -1.4706    -0.10514
-0.076554    0.090722    -0.23506    0.045574      4.9583     -1.1065   -0.057715
-0.041475     0.10826    -0.25585    0.088448      4.9583    -0.57578    0.012119
-0.0041217     0.13977    -0.22824     0.17615      4.9583   -0.014191    0.073182
0.02641      0.1781     -0.1623     0.25702      4.9586     0.41585     0.10729
0.055643     0.21512   -0.072656     0.29827      4.4425     0.62178     0.11833
0.092996     0.24793    0.024461     0.30542      1.7404     0.63413     0.12385
0.14464     0.27489     0.12385     0.32361    -0.96945     0.58313     0.13782
0.20765     0.29503     0.21805     0.40351     -3.2788     0.60684     0.17095
0.27911     0.31094     0.29762     0.56169     -4.9682     0.77931     0.22844
0.35771     0.32426     0.35154     0.77087     -4.9685       1.083      0.3051
0.44151     0.33368     0.37428      0.9716     -4.9682      1.4159     0.38078
0.51817     0.33887     0.36973      1.1083     -4.9682      1.6644     0.43372
0.56916     0.33465     0.34667      1.1551     -4.9688      1.7537     0.44411
0.58313     0.31809     0.31322      1.1126     -4.9682      1.6836     0.40741
0.56072     0.28885     0.27261      1.0086     -4.9678      1.5176     0.33205
0.50972     0.24403     0.22259     0.88715     -4.9682      1.3188     0.23169
0.43924     0.18946     0.16056     0.76957     -4.9682      1.1061     0.11963
0.35057     0.12807    0.086824     0.64939     -4.9685     0.87351    0.010495
0.24468    0.062464   0.0075714     0.49738     -4.9682     0.60847   -0.086298
0.12548  -0.0031473   -0.069083     0.28983     -4.6433     0.31581    -0.17205
0.0036737   -0.063561    -0.13729    0.028359     -3.1193    0.022512    -0.25455
-0.11001    -0.11683    -0.19089    -0.25195    -0.71253    -0.24058    -0.33185
-0.19836    -0.16393    -0.22889     -0.5027      2.3569     -0.4543    -0.40136
-0.25033    -0.20485    -0.25195    -0.68102      4.9583    -0.59235    -0.45268
-0.25942    -0.23506    -0.26039    -0.76644      4.9586    -0.62678    -0.47509
-0.23214       -0.25       -0.25    -0.75085      4.9583    -0.52804     -0.4582
-0.18309     -0.2435     -0.2146    -0.64237      4.9586    -0.28086    -0.39519
-0.1217    -0.21395    -0.15353    -0.46632      4.9586     0.10794    -0.28703
-0.052193    -0.16198   -0.067784    -0.25552      4.9583     0.61041    -0.14834
0.025111   -0.094743    0.030308   -0.036602       4.958       1.161  -0.0011985
0.10761   -0.020687      0.1271      0.1716       4.958      1.6816     0.13392
0.19174    0.048497     0.21188     0.36194       4.958      2.1006     0.24695
0.27034     0.10664     0.28041     0.53149      4.9583        2.38     0.33465
0.33758     0.14919     0.32491     0.67895       4.958      2.5193     0.39637
0.38727     0.17485     0.35154     0.79458      4.9586      2.5411      0.4308
0.40968     0.18654     0.36648     0.86961      4.9583      2.4738     0.44216
0.40708     0.19044     0.37298     0.89397      4.9583        2.34     0.43274
0.38435     0.18849     0.37168     0.85857      4.1778      2.1562     0.40384
0.35154     0.18427     0.36226     0.76632      2.6275      1.9441     0.35836
0.31192     0.17355     0.34147     0.63413     0.74846      1.7291     0.30412
0.26677     0.15373     0.30574     0.48082     -1.1913       1.526     0.23883
0.21512     0.12028     0.24663     0.31289     -2.8426      1.2954     0.14951
0.15731    0.073507     0.15926     0.12905     -4.0853      0.9716    0.028034
0.094945    0.013418    0.051745   -0.073306     -4.9685     0.52109    -0.11748
0.032582   -0.056741   -0.060963    -0.29417     -4.9682   -0.028157    -0.26754
-0.027833    -0.12982    -0.16523    -0.52414     -4.9678    -0.58715    -0.40396
-0.080127    -0.19608    -0.25617    -0.74728     -4.9685     -1.0675    -0.51537
-0.12138     -0.2513    -0.33283    -0.94931     -4.9685     -1.4151    -0.59592
-0.14379    -0.29158    -0.39162     -1.1228     -4.9682      -1.598    -0.64497
-0.14834    -0.31594    -0.42215      -1.252     -4.9682     -1.5999    -0.66478
-0.14314    -0.32113    -0.41208     -1.3001     -4.9682     -1.4505    -0.66186
-0.13794    -0.30782    -0.35914     -1.2244     -4.8493     -1.1984    -0.64042
-0.14184    -0.27339    -0.27306     -1.0195     -1.9962    -0.88013    -0.59235
-0.1636    -0.22661    -0.17465    -0.74014     0.45548    -0.51472    -0.50692
-0.20648    -0.17594   -0.085973    -0.48289       2.073      -0.123    -0.38934
-0.25877    -0.13015   -0.027183     -0.3299      2.9315     0.26092    -0.25292
-0.30294   -0.093769  -0.0037969    -0.29937      3.2589     0.59612    -0.11521
-0.33185   -0.068434  -0.0063954    -0.32958      3.2362     0.84817   0.0078962
-0.35102   -0.050244   -0.011592    -0.30847      2.9965     0.99726     0.10242
-0.36433   -0.030106  0.00075039    -0.15093      2.6561      1.0427      0.1625
-0.35914  -0.0024977    0.046223     0.11183      2.2958       1.008     0.19628
-0.31204    0.039402     0.12125     0.36746      1.9463     0.94497      0.2187
-0.22109    0.092346     0.20505     0.51557      1.6154     0.88747     0.23396
-0.10676     0.14139     0.27229     0.54155      1.3279     0.82381     0.24371
0.0046481     0.17225     0.30834     0.50777      1.0937     0.71825     0.25475
0.096244      0.1755     0.31809     0.49673     0.89202     0.57339     0.28431
0.1638     0.15503     0.31354     0.56462     0.72767     0.43372     0.34212
0.21837     0.12385     0.30899     0.71273     0.63413     0.35317      0.4269
0.2606    0.094295     0.31451     0.90079     0.63672     0.36908     0.52921
0.28885    0.075131     0.33887      1.0798     0.75171     0.50128     0.63607
0.31094    0.075131     0.38402      1.2237     0.93814     0.73969     0.73579
0.3327     0.10014     0.44476      1.3185      1.1041      1.0265     0.81699
0.36194     0.14724      0.5107      1.3552      1.2233      1.2798     0.86019
0.40059     0.20473     0.56657      1.3357      1.3815      1.4468      0.8511
0.44866     0.26157     0.59742      1.2681      1.7138      1.5429     0.80108
0.5107     0.31192     0.59872      1.1779      2.2088      1.6264     0.74326
0.59028     0.34797     0.57046      1.0863      2.5963      1.7557      0.7124
0.68285     0.35804     0.51849      1.0067      2.4764      1.9308     0.71825
0.76535     0.33368     0.45386     0.93522       1.566       2.086     0.74586
0.79393     0.27911     0.38078     0.85272     0.15341      2.1406     0.76015
0.73482     0.20603      0.2973     0.73709    -0.90774      2.0565     0.73222
0.59547     0.13002     0.19986     0.57241     -1.0789      1.8431     0.65134
0.41001    0.064413     0.09397     0.35317    -0.66803      1.5062     0.52661
0.20635    0.016666   -0.014516    0.081952    -0.64984      1.0177     0.37655
-0.00022403  -0.0057458    -0.11293    -0.22434     -1.9302     0.33108     0.22422
-0.18439 -0.00054884    -0.18894    -0.53323     -4.5699    -0.55727    0.087474
-0.3299    0.021863    -0.24091    -0.82231     -4.9685     -1.5635   -0.043423
-0.46015    0.035505    -0.28053     -1.0841     -4.9682     -2.5987    -0.20193
-0.61346    0.020888    -0.32341     -1.3241     -4.9682     -3.5364      -0.415
-0.80834   -0.027183    -0.37862     -1.5336     -4.9678     -4.2065    -0.67485
-1.0292    -0.10644    -0.44131     -1.6821     -4.9682     -4.4559     -0.9295
-1.2452    -0.20583     -0.5014     -1.7347     -3.4412     -4.2068     -1.1172
-1.4196    -0.31301     -0.5485     -1.6795      2.2676      -3.512     -1.1968
-1.5158     -0.4163    -0.57578     -1.5327      4.9586     -2.5665     -1.1669
-1.4917    -0.50173    -0.57676     -1.3209      4.9583     -1.6275     -1.0532
-1.3267    -0.54785    -0.54298     -1.0591       4.958    -0.89507    -0.88597
-1.0399    -0.54265    -0.47152     -0.7606      4.9576    -0.44359    -0.69174
-0.69174    -0.48938    -0.37473    -0.45171      4.9583    -0.22597    -0.49978
-0.33965    -0.40363    -0.27793     -0.1675      4.9583    -0.14574    -0.32276
-0.0041217     -0.2932    -0.19089    0.058241      4.0518     -0.1217    -0.15873
0.32166    -0.15678    -0.11423     0.20895      2.0142    -0.12722  -0.0080194
0.63055   0.0010752   -0.045047     0.27099    -0.29417    -0.18179     0.12353
0.87578     0.15601     0.01017     0.23851     -2.6571    -0.30814     0.22097
0.98297     0.27976    0.044924     0.11703     -4.8421    -0.48808     0.27261
0.90177     0.35057    0.055968   -0.074605     -4.9685    -0.66316     0.27489
0.64517     0.36713    0.049472    -0.29807     -4.9682    -0.76774     0.24436
0.28788     0.34732    0.033881     -0.5014     -4.9682    -0.77846     0.20863
-0.064211     0.31776    0.012443     -0.6349     -4.9682    -0.74143     0.18037
-0.31139     0.29568   -0.010943    -0.67745      -3.957    -0.76287     0.15406
-0.39487     0.29015   -0.030106    -0.63425    -0.53648     -0.9191     0.11476
-0.32113      0.3012   -0.037577    -0.52804      2.4751     -1.1815    0.061165
-0.14899     0.32004   -0.033679    -0.39779      4.1976     -1.4151   0.0075714
0.033231     0.32491   -0.028482    -0.31106      4.7287     -1.4986   -0.036927
0.14074       0.296   -0.038227    -0.31886       4.641     -1.4128   -0.073306
0.1336     0.23364   -0.072331     -0.4137      4.3558     -1.2306    -0.11326
0.034206     0.15796    -0.12235    -0.49978      3.9641     -1.0143    -0.15158
-0.084024    0.097543    -0.16165    -0.45593      3.5444    -0.77911    -0.17302
-0.15029    0.071883    -0.16588    -0.21525       3.228    -0.52089     -0.1662
-0.13177    0.082927    -0.13145     0.17355      3.0637    -0.25098     -0.1334
-0.042124     0.11378   -0.080776     0.56754      2.8847   -0.011592   -0.089546
0.073507     0.14074   -0.048296     0.82154      2.3098     0.13912   -0.059339
0.16153     0.14302   -0.057715     0.87026      0.9729     0.16608   -0.065835
0.19141     0.11281    -0.09929     0.74911     -1.2338    0.074482    -0.10903
0.16088    0.057267    -0.14866      0.5539     -3.8502   -0.090521     -0.1714
0.091047  -0.0089938    -0.18471     0.38078     -4.9685     -0.2552    -0.22889
0.012443   -0.072006    -0.19641     0.27781     -4.9682    -0.36531    -0.26949
-0.048945    -0.12333    -0.18764     0.24338     -4.9678    -0.40169    -0.28995
-0.0837    -0.15841    -0.16912     0.24468     -4.9682    -0.36758    -0.29515
-0.098316    -0.17887    -0.15223     0.24663     -4.7561    -0.27599    -0.28833
-0.10286    -0.18926    -0.13892     0.22584     -2.4938    -0.14476    -0.27534
-0.10449    -0.19608     -0.1256     0.18394    -0.53616   0.0043233     -0.2565
-0.10579    -0.20518    -0.10871     0.13262     0.83973     0.15373    -0.23409
-0.10936    -0.21492   -0.086623    0.088773      1.6917     0.29113     -0.2081
-0.11163    -0.22337   -0.061288    0.067011      2.2042     0.41001    -0.17757
-0.11163    -0.22564   -0.034654     0.06961      2.4927     0.50842    -0.14541
-0.10254    -0.22109   -0.011917     0.07773      2.6385     0.57956    -0.11813
-0.084349    -0.21395   0.0059473    0.064737      2.7658     0.61853    -0.10091
-0.058365     -0.2081    0.016666   0.0036737      3.0004     0.62146   -0.093444
-0.024909    -0.20583    0.017316    -0.10903       3.306     0.59093   -0.088896
0.021538    -0.20485   0.0078962    -0.24805      3.4613     0.53441   -0.080776
0.084551    -0.19738  -0.0073698    -0.37765      3.1147     0.46165   -0.064536
0.15666    -0.17984   -0.021661     -0.4686      1.9389     0.37558   -0.041799
0.22552    -0.15158   -0.029132    -0.50757   -0.021012     0.27391   -0.012567
0.28398    -0.11618    -0.02426    -0.49945     -2.1657     0.14172    0.021538
0.32946   -0.079477  -0.0015233    -0.42832      -3.729   -0.020362    0.056942
0.36064   -0.038551    0.046873    -0.22889     -4.1867    -0.17692    0.092021
0.37785    0.013093     0.12613     0.14919     -3.3932    -0.28118     0.13327
0.37558    0.074806     0.23299     0.65491     -1.6766    -0.29775     0.18362
0.35122     0.13555     0.34375      1.1373     0.35382    -0.20713     0.23786
0.30964     0.17777     0.42787      1.4325      2.0064  -0.0089938     0.28723
0.26222     0.19011     0.46555      1.4653      2.9162     0.27229     0.32458
0.21805     0.17712       0.461      1.2876      3.0578     0.58768     0.34375
0.17647     0.14821     0.43274      1.0278      2.6609     0.87221     0.34472
0.1323      0.1206     0.39702     0.80367       2.049       1.059     0.32946
0.084876    0.098517     0.36129      0.6744      1.4166      1.1226     0.30574
0.036154    0.083251     0.32523     0.63023     0.80887      1.1022     0.27976
-0.0044465     0.07708     0.29113     0.62341     0.30217      1.0538     0.25735
-0.027508    0.079354     0.26222     0.60944     0.05142      1.0414     0.23916
-0.043423      0.0865     0.24176     0.56527     0.13165      1.1158     0.22032
-0.078503    0.092671     0.22714     0.49413     0.46652      1.2945     0.19239
-0.14671    0.092671     0.21772     0.40871     0.90404      1.5364     0.15471
-0.23668    0.086824      0.2109     0.32751       1.301      1.7252     0.10729
-0.33088    0.079354     0.21025     0.26807      1.5634      1.7076    0.055968
-0.40656    0.072533     0.21382     0.23948      1.6612      1.4224    0.013418
-0.43806    0.062464      0.2187     0.24208      1.6196     0.96575  -0.0083442
-0.39779    0.049796     0.22097     0.27034      1.4991     0.51654  -0.0080194
-0.27274    0.044275     0.21935     0.31679      1.3802     0.19401    0.010819
-0.072006     0.05272      0.2174     0.37103      1.3234    0.021538     0.04395
0.18199    0.082277     0.21837     0.42203      1.3442  0.00010078    0.085525
0.45613     0.13002     0.22584     0.46295      1.4137     0.11411     0.13002
0.71013     0.18557     0.23494     0.48991      1.4978     0.31516     0.18134
0.90274     0.23721     0.24046     0.49901       1.503      0.5474     0.25345
1.0106     0.27911     0.23786     0.48666      1.3052     0.75268     0.36486
1.0385     0.30672     0.22714     0.44996     0.85629     0.86669     0.51395
1.0164     0.31939     0.20928      0.3876     0.23006     0.83843     0.67083
0.9794     0.31971     0.18719     0.30639    -0.43449     0.65459      0.7975
0.93912     0.30867     0.16348     0.21382    -0.94639     0.34635     0.85694
0.87448     0.29048     0.13814     0.11833     -1.0597   -0.028807     0.82771
0.7647     0.26872     0.11248    0.027709    -0.71285    -0.39584     0.72637
0.61951     0.24468    0.089748   -0.057065     -0.2435    -0.65536     0.60847
0.48017     0.22129    0.075456    -0.13404   -0.020687    -0.67323     0.54675
0.38695     0.19921    0.070259    -0.18699    -0.15288     -0.3757      0.5854
0.33725     0.17939    0.073832    -0.20453    -0.59852     0.13522     0.69811
0.30542     0.16121    0.082277    -0.18666     -1.0308     0.61821     0.81115
0.27002     0.14886    0.087149    -0.14704    -0.99284     0.87546     0.85207
0.21772     0.14237    0.082277    -0.10351    -0.31821     0.85434     0.79198
