-0.12138     0.10859     0.11768     0.14691     0.96835      1.8158   -0.092469
-0.13989      0.0852     0.10274   -0.059339    -0.41923      1.6638    -0.13632
-0.15808    0.067336    0.097543    -0.15581     -1.0143      1.4273    -0.16393
-0.15061    0.062464     0.11508   -0.095717    -0.73104      1.2061     -0.1701
-0.10189    0.072858     0.15341    0.097543    0.098517      1.0612    -0.16068
-0.0093186    0.092021     0.20278     0.34959     0.86344     0.98752    -0.14411
0.10924     0.11118     0.24793     0.56332      1.0203     0.92775    -0.12657
0.21837     0.12093     0.27586       0.677     0.36811     0.82446    -0.11293
0.28431     0.12125     0.28236     0.67765    -0.80737     0.66173    -0.10091
0.3025     0.11508     0.26937      0.5971     -1.9052     0.46035     -0.0824
0.30315     0.11346     0.24728     0.48894     -2.4145     0.26904   -0.047321
0.32816     0.12288     0.22941     0.39604     -2.1089     0.12255    0.008221
0.39117     0.13782     0.21967     0.32848     -1.0848    0.030308    0.080328
0.46717     0.14756      0.2109     0.27846     0.34505  -0.0063954     0.15568
0.52044     0.14594     0.19693     0.23883      1.7482   0.0072465     0.22292
0.52564     0.13847     0.18102      0.2109      2.7905     0.06084     0.28073
0.48276     0.13749     0.16933     0.19888      3.3326     0.14204     0.33043
0.4191     0.15341      0.1677     0.20635      3.4151     0.24371     0.37168
0.36778     0.18979     0.17907     0.22877       3.217     0.35544     0.40059
0.3457     0.24306     0.19758       0.258      2.9253     0.46652     0.42138
0.34667     0.29925     0.21545     0.27814      2.6119     0.54448     0.44184
0.36259     0.34537     0.22194     0.27489       2.251     0.54513     0.45775
0.38402     0.37298      0.2135     0.24825      1.8281     0.45191     0.45678
0.39669      0.3746     0.19434     0.20928      1.3825     0.30899     0.42885
0.3824     0.35544     0.17322     0.18329     0.94594     0.18427      0.3733
0.32718     0.31549     0.15828     0.18979     0.53279     0.14496     0.29697
0.22649     0.25572     0.15211      0.2187     0.15373     0.21447     0.20733
0.096893     0.17452     0.15633     0.24793    -0.18894     0.36161     0.11638
-0.019063    0.084226     0.16575      0.2567    -0.52836     0.53473    0.032582
-0.073955   0.0072465     0.18362     0.23883    -0.91683      0.6783   -0.037252
-0.030431   -0.034978     0.20343     0.20505     -1.2832     0.75625   -0.093119
0.11768   -0.034004     0.22032     0.17127     -1.4342     0.75398    -0.13502
0.33465   0.0046481     0.22844     0.14432     -1.1539     0.67505     -0.1597
0.5474    0.058891     0.22032      0.1258    -0.32925     0.55487    -0.16393
0.67732     0.10664     0.19369      0.1206      0.9651     0.45873    -0.14541
0.66953      0.1349     0.15406     0.13652      2.4238     0.45873    -0.10546
0.51622     0.14464     0.11021     0.19141      3.5818     0.60229   -0.038876
0.2593     0.14659    0.070909     0.28496      3.8617     0.86929    0.059216
-0.020037     0.14854    0.046873     0.39377      2.7749       1.173     0.18719
-0.24188     0.15276    0.042001     0.47724     0.30672      1.3896     0.32816
-0.35946     0.15341    0.051745     0.51037     -2.8676      1.4046      0.4571
-0.36433     0.14789    0.065387     0.48341     -4.9688      1.1502     0.55065
-0.26527     0.14009    0.073182     0.39767     -4.9688      0.6338     0.59515
-0.071682     0.14237    0.074482     0.26579     -4.9685   -0.046671     0.59417
0.19044      0.1664    0.070909     0.10469     -4.9682    -0.72357     0.56007
0.47042     0.21025    0.063763   -0.060963     -4.9685     -1.2423     0.51395
0.69194      0.2593     0.06019    -0.19706     -3.2126     -1.5275     0.46815
0.79458     0.29795     0.06084    -0.27988     -0.6258     -1.5967     0.41943
0.76177     0.31744    0.062139    -0.30912      1.3926     -1.5336     0.35447
0.62795     0.31906    0.058241    -0.30035      2.5872     -1.4459     0.27976
0.44021     0.29535    0.042651    -0.27404      3.0426     -1.4079      0.2109
0.24371     0.24046    0.011144    -0.24968      2.8457     -1.4252     0.16088
0.061814     0.15666   -0.032705    -0.24448      2.2029     -1.4326     0.13165
-0.10481    0.055968   -0.080451    -0.28053      1.4552     -1.3501     0.11183
-0.26462   -0.042124    -0.12398    -0.36823     0.97485      -1.138    0.088773
-0.41988    -0.11488    -0.15776    -0.49166     0.91931    -0.81484    0.057917
-0.55435    -0.14606     -0.1727    -0.61638      1.1012    -0.42377    0.029009
-0.64269    -0.13697    -0.16458    -0.69986      1.2224  -0.0028225    0.013743
-0.67615    -0.10644    -0.14314     -0.7148      1.2691     0.39539    0.020239
-0.67095    -0.08305    -0.12365    -0.67972       1.539     0.69876    0.042651
-0.65439   -0.086298    -0.11975    -0.64951      2.0032     0.82933    0.057267
-0.64789    -0.12235    -0.13892    -0.65698      2.0909     0.72929    0.034206
-0.65763    -0.17952    -0.17335    -0.66056      1.3692     0.39442   -0.045047
-0.67517    -0.24188    -0.21265      -0.593    0.076431    -0.10059    -0.18147
-0.68914    -0.29645    -0.24935    -0.44489     -1.0633    -0.61249    -0.35784
-0.68947    -0.33802    -0.28508    -0.28313     -1.4856     -1.0165    -0.54168
-0.6703    -0.36466    -0.32211    -0.19641     -1.1728     -1.2517    -0.69109
-0.63068    -0.37895    -0.35784    -0.23474    -0.57806     -1.3072    -0.77294
-0.58098    -0.38869    -0.39389     -0.3861    -0.23538     -1.2231    -0.78626
-0.53843    -0.40104    -0.43027    -0.59007    -0.43904     -1.0646    -0.76222
-0.51959    -0.41208     -0.4595    -0.77197     -1.0958    -0.84277    -0.73299
-0.51927    -0.41435    -0.47379    -0.87753     -1.8273    -0.53161    -0.70506
-0.51537    -0.39487    -0.46307    -0.88338     -2.2891    -0.19089    -0.66186
-0.48451    -0.34874    -0.42117    -0.80347     -2.3768    0.020564    -0.58878
-0.42507    -0.28183    -0.35621    -0.67063     -2.1953   -0.065186    -0.48419
-0.35491    -0.20745    -0.27988    -0.52057     -1.9351    -0.47607    -0.36498
-0.28865    -0.14087    -0.20193     -0.3757     -1.7211     -1.0075    -0.24838
-0.22467   -0.097341    -0.13275    -0.24058     -1.5447     -1.3742    -0.15256
-0.15548   -0.085973   -0.079802     -0.1204     -1.3011     -1.3969   -0.095068
-0.078827    -0.10156   -0.042449   -0.022636    -0.88078     -1.0659    -0.08305
-0.0083442     -0.1269   -0.012242    0.048822    -0.26234     -0.5014    -0.11001
0.045574    -0.14314    0.013743    0.099167     0.48212     0.13587    -0.15483
0.084876    -0.13729    0.033881     0.13457      1.2396     0.71435    -0.18504
0.1206    -0.11098    0.046873     0.16056      1.9356      1.1636    -0.17432
0.15763   -0.070058     0.05142     0.18004      2.5196      1.4549    -0.11845
0.19563   -0.025234     0.04395     0.18751      2.9263      1.5852   -0.028157
0.23266    0.015042    0.026085     0.18134      3.0004      1.6017    0.081627
0.26742     0.05272   0.0078962       0.169      2.6161      1.5991     0.19726
0.29892    0.094945    0.003024     0.16705      1.8954      1.6238     0.31094
0.31581     0.14496    0.017316     0.19109      1.2386      1.6115     0.41585
0.30347     0.19596    0.046223     0.23851      1.0781      1.4413     0.49251
0.2567     0.23331    0.079354     0.28983      1.5653      1.0496     0.52044
0.18329     0.25183     0.11054     0.33335      2.4573     0.48699     0.50128
0.099167     0.25605     0.14042     0.37006      3.3563    -0.10968      0.4584
0.029983     0.25767     0.17127     0.41001      3.9251    -0.62353      0.4165
-0.010618     0.27067     0.20538     0.45386      3.9543     -1.0003     0.39279
-0.024585      0.2921     0.23299     0.48764      3.3411     -1.2014     0.38792
-0.019712     0.30932     0.24403     0.49056      2.2578     -1.1806     0.40124
0.0065969     0.30932     0.23591     0.44963      1.1782    -0.93015     0.42495
0.064413     0.29145     0.21285      0.3733     0.41163    -0.54785     0.44931
0.15081     0.25637     0.18167     0.27229    -0.17789    -0.21492     0.46133
0.24501     0.20635     0.14626     0.15341     -1.0286    -0.10286     0.44801
0.32426     0.15049     0.10534   0.0078962     -2.4964     -0.2919     0.39669
0.37428     0.10079    0.059216    -0.18212     -4.5644    -0.75085     0.30802
0.39214    0.062789    0.012119     -0.4163     -4.9682     -1.3634     0.18914
0.38597    0.037454   -0.031406    -0.65536     -4.9682     -1.9975    0.052395
0.36389    0.020239   -0.062912     -0.8496     -4.9682     -2.5256   -0.087922
0.32491   0.0091954   -0.077203    -0.96263     -4.9678     -2.8293    -0.21492
0.27456  -0.0018481   -0.076229    -0.98049     -4.9682     -2.8576    -0.32438
0.22877   -0.012567   -0.061288    -0.90449     -4.9678     -2.6305     -0.4228
0.21188   -0.026858   -0.038227    -0.75248     -4.9685       -2.22    -0.51569
0.22682   -0.043423   -0.013866    -0.55435     -4.3345     -1.7263    -0.60047
0.25735   -0.059339   0.0046481    -0.33737     -2.7536      -1.242    -0.67355
0.28301   -0.076554    0.015692     -0.1204     -1.2017    -0.80185    -0.73169
0.29145   -0.093119    0.021538    0.096893     0.19986    -0.35849    -0.76644
0.27651    -0.11033    0.022512     0.33043      1.2662     0.19174    -0.75865
0.22779     -0.1243    0.024461     0.58768      1.9655      0.9638    -0.69888
0.1206     -0.1308    0.029658     0.80595      2.4352      2.0058    -0.58878
-0.062262     -0.1321    0.031607     0.85272      2.7587      3.2219    -0.44131
-0.29775    -0.13145    0.020239     0.65069      2.8565       4.384    -0.27404
-0.52154     -0.1295    0.003024     0.28496      2.6616      4.9583   -0.094418
-0.6664    -0.11488   0.0017248    -0.01484      2.3033      4.9586    0.094295
-0.70213   -0.079802    0.034206   -0.037902      2.0565      4.9583     0.27944
-0.64562   -0.021012    0.097543     0.26547      2.1162       4.857     0.44639
-0.53681    0.048822     0.17257      0.7608       2.468      4.0511     0.59222
-0.41143     0.11183     0.23169      1.2198      2.9718      3.1975     0.72605
-0.28411     0.15179     0.25313      1.4533      3.4083        2.39     0.86149
-0.14834     0.16868     0.23364      1.3971      3.4505      1.6375      1.0164
0.011144     0.17582     0.18751      1.1077      2.7934     0.90826      1.1908
0.19693     0.18654     0.13847     0.71013      1.4819     0.16413      1.3497
0.38467     0.20051    0.096244     0.32686     0.03518    -0.61508      1.4302
0.51752     0.20928    0.062464    0.036479    -0.87006     -1.3979      1.3812
0.54935     0.20343    0.033881    -0.13599    -0.87396     -2.1267       1.197
0.47627     0.18459   0.0095202     -0.2042   -0.012892     -2.7231     0.92645
0.34212     0.15991  -0.0096434    -0.19478      1.4273     -3.0888     0.63932
0.21382     0.14074   -0.018738     -0.1321      3.0647     -3.1366     0.40156
0.1336     0.13262   -0.011917   -0.034654       4.564     -2.8163     0.25053
0.10306     0.13944    0.011144    0.084226      4.9586     -2.1706     0.18199
0.10274     0.15114     0.04395     0.20473      4.9583      -1.369     0.15438
0.10826     0.15666     0.07773     0.30769      4.9583     -0.6349      0.1219
0.11086     0.15309     0.10696     0.38727      4.8602    -0.14996    0.062139
0.10631     0.13944      0.1336     0.44151      2.7298  -0.0037969   -0.025234
0.092021     0.11671     0.15309     0.44769    -0.48711    -0.19543    -0.14087
0.062789    0.077405     0.15049     0.36096     -4.0749    -0.63587    -0.29255
0.016666    0.016341     0.10794     0.15211     -4.9682     -1.1848    -0.47704
-0.047646   -0.062587    0.022512    -0.16263     -4.9682     -1.7061    -0.66933
-0.11845    -0.14216   -0.086298    -0.51147     -4.9682      -2.078    -0.83271
-0.17497     -0.2029    -0.19024    -0.80737     -4.9675     -2.2131    -0.93112
-0.20583    -0.23831    -0.26332    -0.99933     -4.9685     -2.0881    -0.95873
-0.2146    -0.25195     -0.2984     -1.0841     -2.4038     -1.7707    -0.94184
-0.21362    -0.25357    -0.30879     -1.1016     0.18622     -1.4008    -0.91521
-0.21622    -0.25292    -0.31236     -1.0857      1.4598     -1.1348    -0.90124
-0.22921    -0.25195    -0.31594     -1.0399      1.4075     -1.0906    -0.90676
-0.2487    -0.24708    -0.31236    -0.93047     0.53376     -1.2686    -0.91716
-0.25715    -0.22661    -0.28995    -0.71805    -0.40234     -1.5138    -0.90871
-0.24643    -0.18342    -0.24253    -0.39876    -0.75085     -1.6334    -0.86096
-0.21687    -0.12495    -0.16718   -0.015165     -0.2461     -1.5366    -0.76417
-0.17075   -0.059664   -0.073631     0.36259     0.98102     -1.2585    -0.62515
-0.11196   0.0010752    0.020888     0.66823      2.5401    -0.85089     -0.4569
-0.039851    0.050446    0.098842     0.86766      4.0888    -0.32633    -0.27469
0.039078    0.082927     0.15341     0.95406       4.958     0.33075    -0.10741
0.11963    0.091372     0.18394     0.92515      4.9583      1.0772     0.01764
0.19336    0.074806     0.20311     0.80108      4.9583      1.8349    0.091372
0.26612    0.038428     0.22454     0.64907      4.9583      2.5336     0.12872
0.35154   0.0046481     0.26482     0.56721      4.9583      3.0984      0.1638
0.46198  -0.0031473     0.32523     0.61171      4.7829      3.4317     0.22877
0.5906    0.029009     0.39409       0.753      3.3713      3.4587      0.3366
0.70721    0.092671     0.45093     0.90826      1.6475      3.2021     0.47497
0.77607      0.1651     0.48439      1.0083    -0.24968      2.7944     0.61659
0.78126     0.22747     0.49283      1.0385     -2.0913      2.4131     0.73644
0.72215     0.27294     0.48536      1.0385     -3.7521      2.1942     0.82414
0.61236     0.29762     0.47302      1.0486     -4.9688      2.1383     0.87578
0.48439     0.29957     0.46425      1.0785     -4.9685      2.1247     0.88812
0.38142     0.28431     0.45581      1.0957     -4.9682      2.0487     0.85369
0.32816     0.26547     0.44379      1.0548     -4.9682      1.8824     0.77639
0.32523     0.25313     0.42397     0.93685     -4.9685      1.6644     0.66985
0.36324     0.24176     0.38857      0.7556     -4.9682      1.4637     0.55325
0.4243     0.22422     0.32426     0.53214     -4.9682      1.2704     0.43274
0.48764     0.19661     0.23104     0.28236     -4.9685     0.97842     0.30834
0.53376     0.16413     0.11963     0.01017     -4.9685     0.49608      0.1677
0.54155     0.14139   0.0069217    -0.26397      -3.882    -0.18179   0.0078962
0.47757     0.13522   -0.091495    -0.51115    -0.14996    -0.93242    -0.16555
0.31419     0.13847    -0.16458    -0.69953      4.3275     -1.5531    -0.33088
0.063113     0.13944    -0.20583    -0.80802      4.9583     -1.8802    -0.45853
-0.21979     0.12743    -0.21882    -0.84148      4.9586     -1.8584    -0.52609
-0.47249     0.09397    -0.21232    -0.82199      4.9583     -1.5483    -0.53551
-0.65601    0.042651    -0.20031    -0.77781      4.9583     -1.0994     -0.5118
-0.75605   -0.014516    -0.19511    -0.73137       4.958    -0.68167    -0.47834
-0.77099   -0.071357    -0.20355    -0.70018      2.6496    -0.41728    -0.44683
-0.71805     -0.1256    -0.23149    -0.69206     0.70201    -0.36336    -0.41825
-0.6323    -0.17659    -0.27858    -0.70376    -0.29385    -0.54005    -0.39649
-0.55532    -0.22304    -0.33607    -0.72974    -0.56052    -0.93729    -0.38577
-0.52057    -0.26364    -0.39129    -0.76027    -0.33575     -1.4833    -0.38512
-0.54233     -0.2906    -0.43157    -0.78788     0.26417     -2.0433    -0.38902
-0.60372     -0.2958    -0.44813    -0.80022      1.1476     -2.4775    -0.38967
-0.66186    -0.28216    -0.44131    -0.79081      2.1812     -2.6789    -0.37733
-0.6651    -0.25715    -0.41825     -0.7554      3.1569     -2.5824    -0.34484
-0.58098    -0.22467    -0.37927    -0.69759      3.8133     -2.1872     -0.2854
-0.40883    -0.18017    -0.32731    -0.61898      3.9433     -1.5742    -0.20096
-0.18699    -0.11943    -0.26397    -0.52576       3.498     -0.8889    -0.10611
0.030957   -0.045047    -0.19641     -0.4254      2.6431    -0.29028    -0.01484
0.20116    0.030308    -0.13242    -0.32048      1.6923     0.09397    0.064088
0.29762    0.094295   -0.075579     -0.2055     0.95601     0.20408     0.12905
0.31354     0.13879   -0.024909   -0.078503     0.59222    0.078704     0.17485
0.25995     0.16673    0.022837    0.050771     0.55357    -0.16068     0.19271
0.15828     0.18427    0.071558     0.15828     0.66498    -0.36238     0.17939
0.042001     0.19434     0.12093     0.22617     0.74651    -0.41208     0.14009
-0.056091     0.19336     0.16283     0.24566     0.69194    -0.26462    0.092346
-0.11098     0.17874     0.18881      0.2096     0.48276    0.052395    0.052395
-0.11326     0.15503     0.19401     0.10209     0.16933       0.461    0.034206
-0.066485     0.13165     0.17485   -0.067134    -0.18017     0.86246    0.042001
0.017965     0.11671     0.13522    -0.24156    -0.49361      1.1671    0.072533
0.12548     0.11541    0.093321    -0.32763    -0.71935      1.2951     0.12483
0.24013     0.13002    0.066037    -0.24123    -0.83368      1.2178     0.18881
0.34959     0.15666    0.068635    0.039727    -0.83855     0.99856       0.258
0.43664     0.18589     0.10696     0.42885    -0.78236     0.76307     0.32458
0.49024     0.21025     0.17127     0.75593     -0.7148     0.64484     0.38142
0.5068     0.22454     0.24306     0.88942    -0.62873     0.73774     0.42235
0.49056     0.23169      0.2999     0.81959    -0.48581      1.0489     0.43274
0.44801     0.23624     0.33075     0.64517    -0.30879      1.4942     0.40124
0.39117     0.24111     0.33758     0.48926    -0.15905      1.9681     0.32523
0.33075     0.24208     0.32556     0.42105   -0.067784      2.3835     0.23201
0.27944     0.23331     0.30185     0.43599   -0.059014       2.684     0.15601
0.24403     0.20505     0.27132     0.47887    -0.14346      2.8396     0.11963
0.22552     0.15536     0.23786     0.49121    -0.31918      2.8392     0.11995
0.21967    0.091696     0.20343     0.44184    -0.52186      2.7025      0.1362
0.21512    0.025111     0.16315       0.334    -0.61671      2.4829     0.14691
0.2044   -0.033679     0.11931     0.21512    -0.54395      2.2487     0.14594
0.18264   -0.080127    0.080653     0.15406    -0.36563      2.0422      0.1362
0.15633    -0.10806    0.053044     0.20083    -0.16295       1.858      0.1245
0.13652    -0.11228     0.03583     0.34505    0.058241      1.6755     0.11898
0.1284   -0.093444    0.025761     0.51687     0.21707      1.4929     0.12515
0.1271    -0.05739    0.023812      0.6338     0.10112      1.3062     0.15179
0.12255   -0.012892    0.027385     0.66011    -0.30847      1.0924       0.207
0.12028    0.039727    0.036804     0.62113    -0.76352     0.82901     0.29048
0.13717     0.10729    0.056942     0.57566     -1.0312     0.49088     0.39344
0.19206     0.19141      0.0865     0.57533     -1.1016    0.066362     0.49673
0.28236     0.28333     0.12353     0.64062     -1.2199    -0.44196     0.58443
0.37688     0.36161     0.16673     0.74521     -1.8052     -1.0162     0.63932
0.43437     0.40838     0.20798     0.83713     -3.2847      -1.633     0.64257
0.42755     0.41131     0.23624     0.86571     -4.9678     -2.2232     0.57923
0.35154     0.37525     0.24013     0.80043     -4.9685     -2.7029     0.44834
0.22097     0.30932     0.21188     0.63867     -4.9682     -3.0265       0.258
0.056292     0.22032     0.15406     0.40221     -4.9685     -3.2113    0.022837
-0.12592     0.11346    0.072533     0.11671     -4.5131     -3.3188    -0.23376
-0.30912  -0.0076946   -0.026858    -0.19673    -0.53843     -3.3704    -0.47704
-0.46925    -0.12755    -0.13827    -0.49848      3.4275     -3.3051    -0.66283
-0.57871    -0.22272    -0.23961    -0.73884      4.9583     -3.0547    -0.75183
-0.62418    -0.28216    -0.31366    -0.89507      4.9583     -2.6243    -0.72779
-0.61638    -0.30684    -0.35361    -0.98829      4.9586     -2.0796    -0.60437
-0.57221    -0.30782    -0.36433     -1.0649       4.958     -1.5197    -0.40526
-0.51017    -0.29872    -0.36109     -1.1647      3.7286     -1.0708    -0.16458
-0.44489      -0.288    -0.35069     -1.2855    -0.14379    -0.80575    0.087799
-0.3822    -0.27436     -0.3299     -1.3771     -3.0664    -0.66088     0.32426
-0.32503    -0.25098    -0.28865     -1.3891     -4.3968    -0.51634     0.52337
-0.27664    -0.21849    -0.23246     -1.3212     -4.3721     -0.3757     0.66238
-0.24578    -0.18666    -0.18049     -1.2234      -3.652     -0.3705     0.71468
-0.23409    -0.16555    -0.14444      -1.113     -3.0326    -0.63068     0.66401
-0.23798    -0.15451    -0.11748    -0.94152     -2.9414     -1.2017     0.51752
-0.2526    -0.14834   -0.089546    -0.67095      -3.083       -1.99     0.31516
-0.26494    -0.13794   -0.063237    -0.35264     -2.8192     -2.7543     0.10696
-0.26137    -0.12463   -0.053817    -0.11228     -1.8565     -3.2022    -0.06551
-0.24091    -0.10838   -0.071682   -0.066485    -0.53063     -3.1275    -0.18764
-0.2146   -0.097341    -0.11683    -0.24188     0.40903     -2.5155    -0.26072
-0.19154   -0.096367    -0.17724    -0.54493     0.34537      -1.521     -0.2971
-0.17367    -0.10806    -0.23603    -0.80575    -0.76482    -0.37668    -0.30879
-0.15808    -0.12625    -0.27209    -0.85544     -2.3187     0.68382    -0.30165
-0.14411    -0.14249    -0.27111    -0.60631     -3.5751      1.4958    -0.27793
-0.12463    -0.15061    -0.23084   -0.096042     -4.1418      2.0136    -0.23636
-0.094418    -0.14379    -0.15451     0.52337     -3.9548      2.2803    -0.16815
-0.047321    -0.11975   -0.055441      1.0664     -3.1168       2.378    -0.08305
0.012443   -0.079802    0.050121      1.4033     -1.7837      2.3705 -0.00087364
0.073182   -0.030756     0.14464      1.4932    -0.09994      2.2731    0.065712
0.12515    0.016016      0.2187      1.3828      1.6712       2.087     0.11443
0.16283    0.053369     0.26774      1.1597      3.1897      1.8561     0.14789
0.19076    0.079679      0.2934     0.90274      4.3447      1.6579     0.16868
0.21123    0.094295      0.2934     0.65524      4.9583      1.5527     0.17712
0.22454    0.092346     0.26742     0.42138       4.958       1.553      0.1768
0.22812    0.074806     0.22259      0.2057      4.9583      1.6352     0.17387
0.2161    0.050446      0.1703    0.025111      4.9586      1.7466      0.1664
0.18102    0.029333     0.11508    -0.12625      4.9586      1.8232     0.14399
0.11931     0.01764    0.053694    -0.27371      4.6855      1.8012    0.090722
0.037454    0.014392   -0.017439    -0.43482      2.6223      1.6521   0.0069217
-0.056416    0.015692   -0.091495    -0.58228     0.29697      1.3805   -0.092794
-0.15743    0.016016    -0.15126    -0.65471     -1.6766      1.0008    -0.19316
-0.26234    0.012119    -0.17919    -0.60534      -2.689     0.56657    -0.27761
-0.35719   0.0033489    -0.16458    -0.41111     -2.6276     0.18654    -0.33965
-0.42247   -0.010943    -0.10806   -0.092794     -1.8617   -0.011592     -0.3822
-0.44489   -0.038551   -0.033354      0.2619    -0.91033    0.030957    -0.41663
-0.43092   -0.080451    0.028684     0.52986    -0.21525     0.24501    -0.45301
-0.39194     -0.1282    0.056617     0.62113    0.015692     0.45646    -0.49328
-0.33348    -0.16393    0.047847     0.52629    -0.13047     0.49738    -0.53031
-0.25422    -0.17042    0.013418     0.30477    -0.55272     0.30055    -0.55402
-0.15841    -0.14444   -0.029457    0.047523     -1.1653    -0.10156    -0.55824
-0.054792   -0.094743   -0.061288    -0.15516     -1.7084    -0.65211    -0.54265
0.041351   -0.035953   -0.066485     -0.2526      -1.952     -1.3199    -0.51472
0.11541     0.01894   -0.039526    -0.23928     -1.9663      -2.042    -0.47574
0.16023    0.060515    0.015042    -0.13989     -2.0072     -2.6763    -0.42247
0.17615    0.082277    0.083576   0.0062721       -2.23     -3.0641    -0.35881
0.16705    0.085525     0.14496     0.15666     -2.6045     -3.1112    -0.29093
0.1284    0.074157     0.18362     0.27944     -2.8767     -2.8053    -0.22856
0.054668     0.05142     0.19856     0.36421     -2.5535     -2.1901    -0.17887
-0.042774    0.030308     0.19888     0.41715     -1.1939     -1.3498    -0.12885
-0.123     0.02706     0.19856     0.45126      1.0749    -0.42247   -0.048296
-0.13275     0.06019     0.20538     0.47562      3.4216     0.42787    0.081303
-0.044398     0.13132      0.2187     0.49088      4.9586       1.083     0.24501
0.12743     0.21772     0.22682     0.49316      4.9586      1.5105     0.39442
0.32978     0.28658     0.22389     0.47757      4.7615      1.7284     0.48666
0.51135     0.30899      0.2109     0.43729      2.4313      1.7973     0.51427
0.63997     0.27456     0.19271     0.36843    -0.75085      1.7973     0.49706
0.70526     0.19596     0.16933     0.27067     -3.4711      1.7882     0.46003
0.7254     0.10144     0.14237     0.15016     -4.6638      1.7774     0.41326
0.72864    0.016016     0.10794   0.0078962     -3.8723       1.719     0.35609
0.72247   -0.047646    0.066686      -0.161     -1.3638      1.5579     0.28561
0.67765   -0.098316    0.021538    -0.34452       1.857      1.2818     0.20895
0.5539    -0.15029   -0.022961    -0.51602      4.4055       0.931     0.14302
0.33205     -0.2146   -0.069083    -0.65504      4.9583     0.57111     0.10079
0.026735     -0.2958    -0.12073    -0.77067      4.9586     0.25085    0.067336
-0.31301    -0.39194    -0.17757    -0.87948      3.9475   -0.007045    0.014717
-0.6245    -0.47932    -0.23831    -0.97562      2.0396    -0.19998   -0.076554
-0.85122    -0.52609    -0.29223     -1.0234     0.22747    -0.33445    -0.20096
-0.97237    -0.51602    -0.32308    -0.98179      -1.074    -0.40071    -0.33055
-0.99771     -0.4543    -0.32178    -0.83823      -1.736    -0.39064    -0.43871
-0.95386    -0.36044    -0.28573    -0.61086     -1.8088    -0.32438     -0.5053
-0.86551    -0.25033    -0.22759    -0.34517     -1.4888    -0.24318    -0.52414
-0.74598    -0.13437    -0.15873   -0.085648     -1.0964    -0.16588     -0.4988
-0.59527   -0.019388    -0.09182     0.13392    -0.84375   -0.083375    -0.42962
-0.40981    0.092346   -0.036927     0.29925    -0.69986    0.011469    -0.32211
-0.20875     0.19823   0.0072465      0.4152    -0.57383     0.10047    -0.18471
-0.01614     0.30217    0.051745      0.5029    -0.42637     0.14561    -0.03238
0.15698     0.40903     0.10436     0.58735    -0.26592     0.12515     0.11281
0.31419     0.51265     0.16705     0.67732   -0.090521    0.078379     0.23071
0.46165     0.59515     0.23039     0.75983     0.24013    0.069934     0.30217
0.59905     0.63997     0.28463     0.81504     0.86474    0.098517     0.31809
0.71305     0.64972     0.32134     0.83421      1.6326     0.10469     0.29633
0.78126       0.639     0.33693     0.82316      2.2208    0.057592     0.27132
0.78256     0.62795     0.33725     0.79361      2.5317    0.028359     0.26969
0.70916     0.62893     0.32816     0.75268      2.7535     0.15958      0.2921
0.58313     0.63737     0.31451     0.69714      3.0556     0.53538     0.31484
0.44509     0.64289     0.29568     0.62308      3.4207      1.1012     0.31874
0.34277     0.63965     0.27196     0.54058      3.7607      1.6875     0.30769
0.31581      0.6312     0.25443     0.47432      3.9001      2.1243     0.31516
0.37753     0.62503     0.25507     0.45386      3.5451      2.3413     0.38142
0.50875     0.62406     0.27879     0.49446      2.5726      2.3582     0.51752
0.67148     0.62341     0.32101      0.5958       1.363       2.266     0.69844
0.82609     0.61269     0.36811     0.73384     0.63445      2.1659     0.87903
0.9349     0.58605     0.40968     0.87188     0.91476      2.1159       1.021
0.98362     0.54773     0.44379     0.98329      2.0464      2.1159       1.108
0.97355     0.49965      0.4701       1.046      3.0669      2.0785      1.1324
0.91801     0.43892     0.48179      1.0366      2.7662      1.8236      1.0941
0.82836     0.36616     0.46977     0.94497     0.53084      1.1973      1.0025
0.7124     0.28073      0.4243     0.77217     -3.0667     0.23234     0.86441
0.56949     0.18199     0.34082     0.52954     -4.9685    -0.86454     0.67083
0.39767    0.068635     0.22032     0.23104     -4.9682     -1.8646     0.41066
0.18979   -0.067784    0.069285    -0.11813     -4.9682     -2.6292    0.086824
-0.060313    -0.22629    -0.10351    -0.51309     -4.9682      -3.106    -0.27111
-0.33737    -0.39909    -0.28378    -0.93989     -4.9682     -3.3493    -0.61281
-0.59949    -0.56117    -0.44878     -1.3576     -2.6169     -3.5211    -0.88597
-0.79795    -0.68232    -0.57513     -1.7045     -0.7554     -3.7894     -1.0594
-0.89929    -0.74501    -0.65276     -1.9228      0.5461     -4.1574     -1.1273
-0.90221    -0.74793    -0.68492     -1.9887      1.4387      -4.479     -1.1059
-0.82946    -0.70376    -0.67777      -1.913      2.0295     -4.5531      -1.013
-0.7083      -0.631    -0.63652     -1.7301      2.2877     -4.2282    -0.86876
-0.56474    -0.54817    -0.57156     -1.4888      2.2926     -3.5205    -0.70116
-0.41533    -0.46892    -0.49718     -1.2273      2.3046     -2.6172    -0.53291
-0.26267    -0.39779    -0.42182     -0.9649       2.581     -1.7288    -0.36498
-0.088896    -0.32698    -0.34939    -0.70408      3.1962    -0.98829    -0.18277
0.12255    -0.24286    -0.26949    -0.43417      4.0095    -0.41663    0.026085
0.34959    -0.13599    -0.17335    -0.13892      4.7371    0.033556     0.26027
0.52012    -0.01549   -0.068434     0.16543      4.9583     0.41228     0.49413
0.56364    0.098193    0.024461     0.42235      4.6978     0.70688     0.68902
0.46133     0.18524    0.079679     0.57696      3.5678     0.81991     0.80627
0.26319     0.24273    0.090072     0.62211      1.5397     0.65914     0.82056
0.062789     0.28008    0.071234     0.59125     -1.4528     0.25865     0.73254
-0.062912     0.31289     0.05207     0.52272     -4.9539    -0.19121     0.57111
-0.087922      0.3457    0.053369     0.43567     -4.9678    -0.45788     0.37363
-0.034329     0.36583    0.081627     0.35219     -4.9682    -0.43709     0.17907
0.050121     0.36031     0.12678     0.29957     -4.9685     -0.1753    0.013418
0.11931     0.32296     0.16868      0.2921     -4.9682     0.20408    -0.10611
0.15146     0.26255     0.19499     0.33173     -4.8259     0.59093    -0.16945
0.15244     0.19206     0.20473     0.40156     -2.3509     0.93295    -0.18082
0.1362     0.12223     0.19758     0.47399     -1.2598      1.2353    -0.15711
0.11216    0.055643      0.1755     0.51557     -1.6018      1.4906    -0.11618
0.080003  -0.0054209     0.13944     0.49413     -2.6838      1.6547   -0.076229
0.041351   -0.059014    0.095594     0.40708     -3.6576      1.6631   -0.049595
-0.0076946    -0.10709     0.05272     0.28398     -3.9346      1.4487   -0.042124
-0.075255    -0.15029    0.013418     0.16575     -3.4523      0.9677   -0.059014
-0.1662    -0.19316   -0.026858     0.06961     -2.7315     0.17939    -0.10936
-0.28086    -0.24286   -0.080127   -0.031406     -2.2794    -0.91683    -0.20193
-0.40461    -0.29937    -0.15061    -0.16912     -2.0787     -2.1803    -0.33867
-0.5092    -0.35524    -0.22759    -0.33965     -1.7636     -3.3457    -0.48614
-0.56734    -0.39519    -0.29028    -0.50595     -1.0169     -4.1045    -0.59819
-0.55889    -0.40623    -0.31431    -0.61671     0.16803      -4.252    -0.63425
-0.48419    -0.38155    -0.29288     -0.6349       1.465     -3.7823    -0.58455
-0.36076    -0.32601    -0.23376      -0.555      2.4485     -2.8384    -0.47347
-0.21849    -0.25065    -0.15678    -0.40136      2.9078     -1.6184    -0.33965
-0.086948    -0.17335   -0.077203    -0.21622      2.8077     -0.3312    -0.21687
0.014717    -0.10741  -0.0050961   -0.038551      2.2218     0.77509    -0.12398
0.080978   -0.061613    0.051745     0.11411       1.415      1.4799   -0.060638
0.11671   -0.033354    0.092671     0.23689     0.79003      1.7274   -0.014191
0.11768   -0.015815      0.1219     0.33108     0.65296      1.6202    0.024786
0.072208  -0.0018481     0.14204     0.40221     0.97972      1.3708    0.053044
-0.01614    0.012443     0.15471     0.46263      1.5319      1.1973    0.063438
-0.12852     0.02706     0.16575     0.52207      2.0954      1.2168    0.052395
-0.24286    0.040052     0.17939     0.57436       2.557      1.3867    0.022512
-0.35134    0.039727     0.19076      0.5867      2.8915      1.5576   -0.017114
-0.46632    0.018615     0.18946     0.53246       3.117      1.6355    -0.04927
-0.59852   -0.024909      0.1742     0.40936      3.2306      1.6547   -0.054792
-0.72682   -0.079802     0.15179     0.24338      3.2186      1.6988   -0.021986
-0.79503    -0.12398     0.12937    0.049472      3.0803      1.7804    0.045249
-0.75313    -0.13892     0.10761    -0.14801      2.8366      1.8135     0.12905
-0.58748    -0.11423    0.090072    -0.29872      2.5456      1.6914     0.20603
-0.33218   -0.050569    0.083901     -0.3338      2.3137      1.3724     0.25605
-0.051219    0.030957    0.098517    -0.21395      2.2403      0.8813     0.26384
0.19921     0.10664     0.13067    0.034206      2.3676     0.32816     0.23104
0.39344     0.16056     0.17062     0.33043      2.6447    -0.10091      0.1716
0.53668     0.19109     0.20765     0.58021      2.9354    -0.21525     0.10404
0.65231     0.21025     0.23818     0.73092      3.0858     0.11086    0.045899
0.74683     0.22974      0.2606     0.77996      2.9783     0.87513 -0.00054884
0.80887     0.25053     0.27586     0.76015      2.5372      1.8671    -0.03303
0.81927     0.26222     0.28756     0.71078      1.7729       2.758    -0.05739
0.76924     0.26092     0.29925     0.65589     0.74196      3.3057   -0.068109
0.66628     0.24695     0.30542      0.5984    -0.49231      3.4203   -0.053492
0.53343     0.22552     0.30152     0.51784     -1.7951      3.1306  -0.0093186
0.40481     0.19986     0.28333     0.39572     -2.9962      2.5573    0.057917
0.30672     0.17257     0.25118     0.23689     -3.8638      1.9012     0.12645
0.25183     0.14399     0.20473    0.062789     -4.1578      1.3403     0.17712
0.23461     0.11346     0.14367    -0.10254     -3.7878     0.98524     0.19856
0.23559    0.083576    0.075131    -0.23636     -2.9371     0.90469     0.20343
0.23591     0.06019    0.012768     -0.3286     -1.9718      1.0902     0.21155
0.22714    0.045899   -0.028482    -0.37473     -1.1919      1.4153     0.23981
0.2148    0.036479   -0.046347     -0.3744    -0.67615      1.6956     0.30022
0.2096    0.032906   -0.045047    -0.34777    -0.31724      1.7924     0.39084
0.20635    0.038428   -0.036278    -0.33997     0.01894      1.6488     0.49153
0.18329    0.053044    -0.03173    -0.35914     0.39572      1.2441     0.56786
0.1284    0.075131   -0.033354    -0.32666     0.81309     0.58151     0.59352
0.04395    0.099167   -0.031081    -0.13892      1.2451    -0.28573     0.55812
-0.05739     0.11931   -0.017439     0.21123      1.5832     -1.1965     0.46782
-0.16555     0.12385      0.0014     0.60976      1.5787     -1.9309     0.34407
-0.27274    0.097543   0.0085458     0.88098     0.86246     -2.3232     0.20993
-0.37895    0.030308   -0.013541     0.90436    -0.90968     -2.3638    0.081627
-0.48614   -0.064861    -0.06616      0.6718      -3.464       -2.18   -0.036602
-0.58618    -0.15905    -0.13697     0.28008     -4.9682     -1.9419    -0.14216
-0.65926    -0.22369    -0.20745    -0.13989     -4.9682     -1.7604    -0.22759
-0.6794    -0.24643    -0.26722    -0.49133     -4.9685     -1.6252    -0.28248
-0.6284    -0.23149    -0.30879    -0.73559     -4.5654     -1.4291     -0.2997
-0.52024    -0.19673     -0.3325    -0.86973     -1.7487     -1.0861    -0.28411
-0.38545    -0.16458     -0.3351    -0.89377       1.134    -0.64659     -0.2552
-0.25877    -0.14216    -0.31789    -0.81387      3.2862    -0.24383    -0.22889
-0.1597    -0.12398    -0.27923    -0.65763      4.4344    0.017965    -0.21265
-0.085973    -0.10416    -0.22467    -0.47119      4.6091      0.1245    -0.20485
-0.021986   -0.075904    -0.16685    -0.29872      4.0596     0.12678    -0.19966
0.039078   -0.038227    -0.11521    -0.16815      3.1309     0.10047    -0.18829
0.093645   0.0072465   -0.071682   -0.081751       2.112     0.10079    -0.16328
0.13977    0.057917   -0.032705   -0.023285      1.1951     0.14919    -0.12203
0.17712     0.10794   0.0059473    0.021863     0.44963     0.24241   -0.069733
0.20668     0.14691    0.042001    0.062789     -0.1597     0.36583   -0.010943
0.23234     0.17615    0.073182     0.10209    -0.71285      0.5055    0.053694
0.2502     0.20018    0.097218     0.13457      -1.252     0.63997     0.11833
0.24825     0.22519     0.11508     0.15666     -1.7347     0.72767     0.18232
0.22389      0.2476      0.1271     0.17257     -2.0459     0.71857     0.24241
0.19174     0.25897       0.131     0.19206     -2.0566     0.58281      0.2999
0.18264      0.2593     0.13002     0.22324     -1.6577     0.31971     0.34862
0.22617      0.2515     0.12743     0.26449    -0.81354   -0.018413     0.37428
0.31841     0.24208     0.12678      0.2986     0.41943    -0.33867     0.36713
0.42787     0.23039      0.1219     0.31386      1.9285     -0.5485     0.33335
0.51135     0.21837     0.11573     0.31224      3.6467     -0.5917     0.29373
0.54383     0.21123     0.11443     0.30867      4.9583     -0.4686     0.26709
0.52466     0.21317     0.12418     0.31224      4.9583    -0.23993      0.2593
0.4688     0.22032     0.13977     0.31029      4.9583   -0.012567     0.26482
0.38305     0.21967     0.14854     0.27911       4.958    0.062464     0.26319
0.26742     0.19304     0.13327     0.18687      4.9583    -0.17659     0.22714
0.1323     0.13652    0.084226     0.02641       4.958     -0.7567     0.14334
-0.0080194    0.056942    0.012119    -0.16977        3.14     -1.5106    0.013743
-0.14541   -0.026858   -0.061288    -0.34614    -0.26429     -2.1936    -0.14769
-0.26559    -0.09994    -0.11586     -0.4582      -3.285     -2.6282    -0.31236
-0.34842    -0.14736    -0.13892    -0.49556     -4.9682     -2.7494    -0.44651
-0.37895      -0.161    -0.12755     -0.4699     -4.9682     -2.6234    -0.53063
-0.36271    -0.14249   -0.094093    -0.40234     -4.9678     -2.3918    -0.55987
-0.31951    -0.10254   -0.052843    -0.32601     -4.9678     -2.1745     -0.5498
-0.26754   -0.058365   -0.017114    -0.26851     -4.9682     -1.9777    -0.51862
-0.22077   -0.020687   0.0043233    -0.24026     -4.9685     -1.7116    -0.47996
-0.18374    0.003024    0.008221    -0.24675     -4.9682     -1.3034    -0.43839
-0.15386   0.0091954   -0.007045    -0.29645     -4.9682    -0.78269    -0.40039
-0.12365  -0.0028225   -0.040825    -0.39162     -4.9682    -0.24968    -0.36466
-0.087272   -0.033354   -0.089221    -0.50822      -4.887     0.20246    -0.33283
-0.049595   -0.076879    -0.14606    -0.60761      -1.571     0.52889    -0.31139
-0.024909      -0.123     -0.2042    -0.65666      2.2036     0.73287    -0.30554
-0.026858    -0.16425    -0.25065    -0.63717      4.9583     0.85564    -0.30749
-0.061613    -0.19381    -0.27144    -0.55045      4.9583      0.9245    -0.30392
-0.12527    -0.21167    -0.26202    -0.41793      4.9583     0.92645    -0.28248
-0.21005    -0.21817    -0.22597    -0.27209      4.9583     0.82219    -0.24026
-0.29937     -0.2146    -0.17075    -0.14119       4.958     0.57566    -0.18601
-0.3718     -0.2055    -0.11651   -0.046022      4.9583     0.18946    -0.13307
-0.41273    -0.19381   -0.080127   0.0023744      4.9586    -0.27339   -0.092469
-0.41533    -0.18764   -0.067134   0.0023744      4.2073    -0.71025   -0.078827
-0.38642    -0.19024   -0.077203   -0.035628      1.5134     -1.0328    -0.10319
-0.33218    -0.19543    -0.10091   -0.087597     -1.2748     -1.2017    -0.15191
-0.26624    -0.19056    -0.12527    -0.13015      -3.653     -1.2277    -0.19641
-0.20031    -0.16588    -0.13599    -0.14736     -4.9682     -1.1166    -0.20453
-0.14671      -0.123     -0.1269     -0.1334     -4.9682    -0.86356    -0.15386
-0.10124    -0.06681    -0.10189   -0.088247      -4.769    -0.49101    -0.04115
-0.062912   -0.007045   -0.065186   -0.014191     -3.3857   -0.065186     0.10826
-0.025884    0.047523   -0.021661    0.077405     -2.1657     0.32198      0.2541
0.014068    0.089098    0.023812     0.16738     -1.9254     0.59677     0.36681
0.056942      0.1284    0.065062     0.23721      -2.904     0.73157     0.43145
0.10339      0.1755    0.095919     0.27196     -4.5183     0.74586     0.44931
0.14399     0.23136     0.11476     0.27359     -4.9688     0.71435     0.43404
0.1729     0.28041     0.11508     0.24208     -4.9685     0.71045     0.39799
0.18069     0.29957    0.096244     0.18199     -4.4858      0.7621      0.3457
0.1664     0.27749    0.062139     0.10404     -2.2024     0.82024     0.28073
0.14529     0.22259    0.021213    0.029658     0.24306     0.79166     0.20408
0.13425     0.15276   -0.014191   -0.021986      2.1188     0.60717     0.12028
0.13457    0.081952   -0.032055   -0.040175      3.2664     0.29373     0.03518
0.13035    0.021538   -0.026858   -0.030756      3.9969   -0.030756   -0.032705
0.11573   -0.013541  -0.0028225   -0.021986      4.5893    -0.23149   -0.069408
0.10144   -0.018413    0.030633   -0.039851      4.9589    -0.21102   -0.069083
0.10339  0.00075039     0.06896   -0.092469      4.9583     0.06084   -0.034978
0.1284    0.032257     0.10956    -0.16393       4.869     0.51752    0.017316
0.16348    0.061489     0.14756    -0.22564      4.2093      1.0294    0.064737
0.18102    0.079029     0.17907    -0.25455       3.356      1.4439    0.095594
0.16153    0.085525     0.20311    -0.24513      2.4764      1.6456     0.11443
0.10631    0.088773      0.2161     -0.2172      1.6836      1.6115      0.1349
0.038753    0.089748      0.2161     -0.2016      1.0148      1.3939     0.15861
-0.01549    0.082602     0.19953    -0.21622     0.52012      1.0668      0.1742
-0.037902    0.063763     0.17485    -0.23668     0.37168     0.69356      0.1703
-0.0080194    0.040702     0.16445    -0.17822     0.77217     0.33465     0.15244
0.089098     0.02641     0.19466    0.045899       1.681    0.063113      0.1323
0.24533    0.031607     0.26514     0.45483      2.6934    -0.10026     0.11801
0.42268    0.052395     0.34797     0.99596       3.179     -0.1623    0.098193
0.57469     0.07708     0.40546      1.5273      2.5664   -0.093444    0.057267
0.66985    0.091372     0.40936      1.8424     0.81894     0.15049   -0.012892
0.70331    0.081303     0.34797      1.7882     -1.3995     0.55195    -0.10351
0.6744    0.040052     0.23624      1.3851     -3.1622     0.99791    -0.19154
0.58216   -0.028482     0.10729     0.82641     -3.9044      1.3503    -0.24708
0.42982    -0.11098  -0.0028225     0.36518     -3.4318      1.5426    -0.23928
0.24013    -0.18049   -0.068758     0.16543     -1.9741      1.5692    -0.14769
0.057592     -0.2068   -0.085648     0.24078   -0.078503      1.4523    0.024461
-0.070382      -0.174   -0.062587     0.48699      1.5884      1.2396     0.25053
-0.1269   -0.084024   -0.014516     0.75658      2.5333     0.98524     0.48601
-0.12008    0.040052    0.045574     0.94237      2.5992      0.7267      0.6848
-0.061613     0.17517     0.10859       1.006      1.9399      0.4688     0.81309
0.034206      0.2947     0.16835     0.95958     0.91931     0.17842     0.86052
0.13587     0.38207      0.2187     0.83421    -0.15905    -0.19673     0.83648
0.20895     0.43209      0.2541     0.66823     -1.0955    -0.71772     0.75593
0.23526     0.45418     0.27456     0.49803     -1.6083     -1.4044     0.64582
0.21415     0.46328     0.28853     0.36356     -1.3816     -2.1618     0.53506
0.15309     0.47692     0.30347     0.29957    -0.27079     -2.8059     0.45061
0.065712     0.49836     0.32361     0.32296       1.526     -3.2109     0.40189
-0.03173     0.52044     0.35252      0.4269      3.5421      -3.398     0.38662
-0.11651     0.53116      0.3837     0.57469      4.9583     -3.4071     0.38662
-0.16263     0.52791     0.40806     0.71565       4.958     -3.1947     0.39084
-0.14281     0.51102     0.41715     0.81634      4.9583     -2.6591     0.40481
-0.043748     0.48179     0.41456     0.86376      4.9583      -1.774     0.43047
0.11606     0.43827     0.39896     0.85207      2.8821    -0.66348     0.45516
0.29503     0.38142     0.36811     0.76989      -1.039      0.4295     0.45678
0.44736     0.31516     0.31971     0.60457     -4.9682      1.2594      0.4178
0.55     0.24403     0.25507     0.35187     -4.9685      1.7261     0.33628
0.61041     0.16575     0.17907     0.01894     -4.9685      1.8252      0.2187
0.6351    0.073507    0.096893    -0.36401     -4.9685      1.5891    0.066686
0.61691   -0.037252   0.0075714    -0.74468     -4.9682      1.0957    -0.12008
0.54675    -0.16165   -0.090521     -1.0643     -4.9682     0.51979    -0.33315
0.42722    -0.28508    -0.19641     -1.2881     -4.9682    0.039727    -0.55792
0.27944    -0.39422    -0.30749     -1.4183     -1.0052    -0.30619    -0.77456
0.13392    -0.47964    -0.41955     -1.4862      4.9583    -0.65763    -0.95548
0.018615    -0.53551    -0.52251      -1.518       4.958     -1.1059     -1.0776
-0.060638    -0.55987    -0.61021     -1.5203      4.9583      -1.533     -1.1205
-0.12398    -0.56247    -0.68264     -1.4986      4.9583     -1.7126     -1.0682
-0.19998    -0.54525    -0.73494     -1.4583      3.6003     -1.4927    -0.92203
-0.32146    -0.51602     -0.7593     -1.3943      1.7135    -0.88825    -0.70733
-0.50855    -0.48094    -0.74468     -1.2982      1.0638    -0.04992    -0.47152
-0.73689    -0.44066    -0.69239     -1.1802      1.5134     0.82381     -0.2591
-0.93599    -0.38869    -0.61184     -1.0435      2.5323        1.58   -0.092145
-1.0416    -0.32471    -0.51732    -0.86811      3.5766      2.1422     0.02641
-1.037    -0.26072    -0.42247    -0.62548       4.247      2.4657    0.093321
-0.96198    -0.20972    -0.34322    -0.31594      4.3285      2.5047    0.094945
-0.8785    -0.18244     -0.2932    0.003024      3.8871      2.2315    0.022188
-0.82199    -0.17692    -0.26916     0.24046      3.2605       1.682    -0.11326
-0.78204    -0.17854    -0.25877     0.33758      2.8678     0.98557    -0.27404
-0.73429     -0.1727    -0.24545     0.30315      2.9373     0.32393    -0.41078
-0.66738    -0.15256    -0.22044     0.19336      3.3281    -0.15061    -0.48451
-0.58358    -0.12008    -0.18017    0.080003      3.6259    -0.35589    -0.47899
-0.49458   -0.080776    -0.12495     0.01764      3.4301    -0.27891    -0.40493
-0.40428   -0.037577   -0.059014    0.022188      2.6216    0.036479    -0.28898
-0.30977   0.0056225   0.0091954    0.075781      1.3951     0.48082     -0.1675
-0.20648    0.044599    0.069934     0.14496    0.092671     0.91216   -0.072656
-0.096367    0.071234     0.11346     0.19499    -0.99836      1.2123    -0.01484
0.010819    0.080978     0.13392     0.20993     -1.7604      1.3422    0.013743
0.10306    0.073832     0.13717     0.19304     -2.1238      1.3503    0.025436
0.16705    0.056292     0.13555     0.15796     -2.0475      1.3071    0.032582
0.19888    0.037129     0.13782     0.11833     -1.6574      1.2444    0.041676
0.20603    0.022188     0.14756    0.079354     -1.2371      1.1876    0.058891
0.20018    0.012119      0.1625    0.041027     -1.0844      1.1834    0.095594
0.19531    0.003024     0.17972  -0.0011985     -1.2848      1.2581     0.15698
0.19661   -0.008669     0.19141   -0.050244     -1.6291      1.3701     0.23721
0.19986   -0.028157     0.19271    -0.10254     -1.8234       1.438     0.31192
0.20018   -0.055766     0.18492    -0.14574     -1.6957      1.4127     0.36324
0.20148   -0.085973     0.17257     -0.1649      -1.279      1.2805     0.38922
0.21382    -0.10026     0.16121    -0.14606    -0.76385      1.0424     0.39182
0.24533     -0.0837     0.16023    -0.07493    -0.36498     0.70623     0.37233
0.29373    -0.03303      0.1716    0.048172    -0.21785      0.2895     0.33205
0.34829    0.041676     0.19563     0.20538     -0.3364    -0.17497     0.28106
0.39572     0.11768     0.22454     0.36713    -0.62418    -0.60761     0.23006
0.42235     0.18004      0.2463     0.50713    -0.91098    -0.91748     0.19531
0.42203     0.21837       0.258     0.61334     -1.0542     -1.0536     0.18622
0.40026     0.23559      0.2593     0.67895     -1.0055      -1.036     0.20213
0.3785     0.23948     0.25605     0.70493    -0.78658    -0.93697     0.23526
0.37623     0.24111      0.2489     0.69746    -0.45755    -0.84505     0.26807
0.38727     0.24501     0.24078     0.66693   -0.087922    -0.82686     0.28593
0.38272     0.24955     0.23039     0.62341     0.23299    -0.89247     0.27651
0.33725     0.25085     0.21967     0.57501     0.39799    -0.99998     0.23883
0.25215     0.24566     0.21025     0.53019     0.34732     -1.0951     0.18751
0.15666     0.23071      0.2044     0.49218     0.10371      -1.138     0.14399
0.095594     0.21577     0.20246      0.4623    -0.21265     -1.1127      0.1245
0.097218      0.2096     0.20343     0.43145    -0.43969     -1.0273     0.13392
0.14951     0.22129     0.20051     0.39507    -0.47444    -0.90741     0.16121
0.21285     0.24436     0.19011     0.35479    -0.31042    -0.77586     0.18849
0.25443     0.26384     0.17225     0.31549   0.0075714    -0.64529     0.19856
0.26839     0.26612     0.14951     0.28268     0.44086    -0.53031     0.18329
0.28041     0.24923     0.13035     0.26319     0.95081    -0.44943     0.14886
0.31322     0.22357     0.12353     0.26125      1.4741    -0.41565     0.10729
0.36908     0.19986     0.13067     0.27749      1.9597    -0.42377    0.073507
0.42852     0.18004     0.14561     0.29925      2.3592    -0.43936    0.061489
0.46393      0.1638     0.16121     0.31127      2.5687     -0.4189    0.074806
0.45061     0.15081     0.16998     0.29665       2.454    -0.34387    0.097868
0.3811     0.14302      0.1638     0.24825      1.8804    -0.23181     0.11508
0.27391     0.14529     0.14626     0.17127     0.72734    -0.11326     0.11476
0.16153     0.15309     0.12288    0.082277     -1.0227 -0.00054884    0.099817
0.072208     0.15601    0.096893  0.00010078     -3.1288     0.09462    0.074482
0.016666     0.14529    0.072858   -0.058689     -4.9688     0.14919    0.043625
-0.0073698      0.1206     0.05142   -0.084999     -4.9682     0.14789    0.015367
-0.012567    0.086824    0.036804   -0.079152     -4.9682     0.11411  -0.0050961
-0.014191    0.048822    0.028034   -0.051219     -4.9688    0.099492   -0.019712
-0.025559    0.011144    0.023487   -0.014516       -2.84     0.14237   -0.030431
-0.043748   -0.013866    0.019914    0.023487     0.57501     0.25897   -0.037902
-0.053817   -0.020037    0.017965    0.061489       3.825     0.44411   -0.044073
-0.038876   -0.013541    0.016341     0.09462      4.9583     0.67603   -0.052193
0.0033489  -0.0063954   0.0095202     0.11021      4.9583     0.90761   -0.063561
0.054344   -0.010943   -0.010943    0.085525      4.9583      1.0716   -0.081751
0.082277   -0.035953   -0.050244 -0.00054884      4.9583      1.1093    -0.11098
0.067336    -0.08305    -0.10449    -0.14639      3.7308      1.0167    -0.14509
0.0088706    -0.14639    -0.16555    -0.33705    -0.53323     0.81504     -0.1714
-0.078503     -0.2172    -0.22597     -0.5498     -4.6628     0.50095    -0.19154
-0.17107    -0.28573    -0.27891    -0.76417     -4.9682    0.049796    -0.22077
-0.23636    -0.33672    -0.32276    -0.95483     -4.9682    -0.52316    -0.27046
-0.24156    -0.35167    -0.35102     -1.0896     -4.9682     -1.1267    -0.33737
-0.18277    -0.32373    -0.35686     -1.1507     -4.9682     -1.6402    -0.40331
-0.096042    -0.26429    -0.34322     -1.1332     -4.4569     -1.9702    -0.45171
-0.034978    -0.19348    -0.31561     -1.0503     -2.5886     -2.0894    -0.47282
-0.038551    -0.13145    -0.27988     -0.9217     -1.2585     -2.0335    -0.46535
-0.10774   -0.085648    -0.24513    -0.76807    -0.72357     -1.8763    -0.43449
-0.21525   -0.056416    -0.21427    -0.60339    -0.85219     -1.6889     -0.3835
-0.32341     -0.0405    -0.18861    -0.43969     -1.1189      -1.519    -0.32406
-0.39616   -0.034329    -0.16263    -0.28248    -0.98731     -1.3878    -0.27014
-0.4241   -0.035303    -0.13047    -0.13859    -0.31691     -1.2904    -0.23538
-0.42637   -0.040175   -0.092469   -0.013541     0.64095     -1.2017    -0.21622
-0.41988    -0.04115   -0.051868    0.087799      1.5598     -1.0831    -0.20031
-0.39227   -0.029132    -0.01484     0.16413      2.2734    -0.91196    -0.16912
-0.32601  -0.0021729    0.015042      0.2161      2.7366    -0.69986    -0.11748
-0.22044    0.033881     0.03518     0.24143       2.911    -0.48614   -0.054142
-0.10579    0.072208    0.047523     0.23786       2.758    -0.31464   0.0052977
-0.015815     0.10599    0.053369     0.20733      2.3468    -0.21849    0.047198
0.026735     0.12937    0.053044     0.15861      1.8135    -0.20453    0.071883
0.017965     0.14009    0.046873     0.10729      1.2964    -0.24838      0.0865
-0.034978     0.14496    0.038428    0.068635     0.89754     -0.2997    0.097218
-0.10774     0.15081     0.03453     0.05207      0.6705    -0.30229     0.10469
-0.16685     0.15958    0.040052    0.056617     0.62146    -0.22109     0.10891
-0.19316     0.17322    0.054993    0.076431     0.70883    -0.05804     0.11573
-0.18861     0.18102    0.076106     0.11151     0.85987     0.15666     0.13002
-0.1753     0.17939     0.10047     0.15958      1.0041     0.38142     0.15406
-0.17367     0.16575     0.12385      0.2109      1.0973     0.57826     0.18264
-0.18147     0.14204     0.13912     0.25995      1.1265     0.72215      0.2096
-0.16685     0.11476     0.14139      0.3012      1.1038     0.80562     0.23494
-0.098965    0.090722     0.12872     0.32881      1.0405     0.83648     0.25735
0.016666    0.071883     0.10631     0.34017     0.92645     0.82446     0.27586
0.1362    0.053694    0.081952     0.33855     0.75983     0.78224     0.28756
0.22    0.034855    0.066686     0.33335     0.58053      0.7254     0.29405
0.2502    0.015042    0.069285     0.33043     0.44444      0.6705     0.29535
0.23689   0.0020496    0.089423     0.33563     0.39896     0.63575     0.29535
0.2109 -0.00054884     0.12093     0.35057     0.45873     0.62795      0.2947
0.2044    0.011469     0.14919     0.37525     0.58963     0.63997     0.29113
0.22422    0.029009      0.1677     0.40026     0.72442     0.66271     0.28073
0.25118    0.047198     0.17582     0.40968     0.79685     0.68674     0.25995
0.258    0.062139     0.16933     0.39312     0.72734     0.70071     0.22714
0.23883    0.073507     0.15146     0.34959     0.40124     0.69681     0.18751
0.207    0.083901     0.13067      0.2947    -0.24221     0.67213     0.15731
0.17127    0.092346     0.11216     0.24241     -1.0861     0.63672     0.15016
0.13392    0.095919    0.095919     0.19563     -1.8692     0.60424     0.16445
0.09462    0.090397    0.080328     0.15244     -2.3044     0.57988     0.18751
0.050121    0.077405     0.06084     0.11118     -2.2427     0.56202     0.20505
-0.0011985    0.066362    0.039078    0.075456     -1.7457     0.55422      0.2096
-0.052843    0.071234    0.020564    0.052395     -1.0682     0.57079     0.20733
-0.087922    0.092346   0.0095202    0.044275    -0.51927     0.60911     0.19986
-0.091495     0.12223    0.011144    0.046548    -0.26169     0.63737     0.18849
-0.064211     0.14464    0.021538    0.044599    -0.27274     0.62276     0.16868
-0.018088     0.14496    0.033231    0.016016    -0.34679      0.5578      0.1362
0.027385     0.11963    0.032257   -0.054792    -0.18666     0.46717     0.09462
0.053044    0.076106   0.0091954    -0.17205     0.44184     0.37655    0.050121
0.053044    0.027385   -0.033354    -0.32211      1.5407     0.29178   0.0039985
0.02706   -0.018088   -0.085324    -0.48321      2.8724     0.19531   -0.050244
-0.01549   -0.058365    -0.13794    -0.62288      4.0859    0.078379    -0.11651
-0.062587    -0.09117    -0.17887    -0.69953      4.8371    -0.03173    -0.18114
-0.095717    -0.11488    -0.19511    -0.67842      4.8472   -0.084674    -0.22207
-0.10546    -0.12885    -0.18439    -0.55012      3.9693   -0.052193    -0.22564
-0.10384    -0.14087    -0.15516    -0.34095      2.3543    0.045249    -0.19641
-0.11033      -0.161     -0.1243    -0.10546     0.47075     0.14626    -0.15516
-0.1295    -0.18504    -0.10384    0.083251     -1.0513       0.207    -0.12365
-0.14346    -0.19998   -0.095717     0.15763     -1.7211     0.21512    -0.10838
-0.11878    -0.19219   -0.089871     0.11541     -1.4787     0.17192    -0.10416
-0.029782    -0.15516   -0.067459    0.048172    -0.66121    0.083901    -0.10026
0.11443   -0.095393   -0.015815    0.065712     0.21545   -0.020037     -0.0824
0.27261    -0.03238    0.054668      0.2057     0.75235   -0.092794   -0.048296
0.39247    0.016991     0.12125     0.41456     0.82641    -0.11228  -0.0054209
0.43794    0.041676     0.15568     0.59515     0.54805    -0.09117    0.038103
0.39929    0.037778     0.14951     0.66791     0.16023   -0.056741    0.071558
0.29405    0.012119     0.10794     0.60879    -0.10903    -0.03238    0.078379
0.16121   -0.020037    0.043625     0.44541    -0.16003   -0.029782    0.043625
0.038428   -0.046671   -0.023935     0.23494   -0.039851   -0.054467   -0.026858
-0.055116   -0.059339   -0.078827    0.034206     0.15601    -0.10286    -0.11423
-0.12203   -0.062587    -0.11033    -0.11975     0.36486    -0.15873    -0.19413
-0.16977   -0.062262    -0.12235    -0.21655     0.55585    -0.19738    -0.25357
-0.20713   -0.064536    -0.12105    -0.26527     0.70916     -0.2042    -0.28865
-0.23863   -0.067459    -0.11228    -0.28281     0.81732    -0.17854    -0.30392
-0.25975   -0.070707    -0.10449    -0.27956     0.86766    -0.12787    -0.29872
-0.25942   -0.072331    -0.10156    -0.26981     0.83518   -0.059989    -0.27241
-0.23733   -0.073306    -0.10351    -0.26787     0.70071    0.022837    -0.23214
-0.20258   -0.080451    -0.10611    -0.27014     0.46328     0.11703    -0.18536
-0.16847   -0.094743    -0.10319    -0.24838     0.15991      0.2122    -0.13112
-0.13372    -0.10774   -0.085324    -0.15873    -0.15613     0.29438   -0.067784
-0.081426    -0.10968   -0.047646     0.01829    -0.43677     0.35284   0.0065969
0.011144   -0.092794   0.0049729      0.2554     -0.6664     0.39702    0.081303
0.14984   -0.062262    0.062464     0.49153    -0.85642     0.44606     0.14237
0.31094   -0.028807     0.11248      0.6705     -1.0113     0.50193     0.19011
0.45028    0.003024     0.15503      0.7647     -1.1094     0.56299     0.23201
0.52272    0.036804     0.19044     0.77801     -1.1299     0.62341     0.27424
0.51557    0.073832     0.21837     0.74326     -1.0951     0.66563     0.32036
0.44704     0.11541     0.23461     0.69064     -1.0877     0.66758     0.36259
0.34829     0.15958     0.24306     0.64354     -1.1841     0.61983     0.39279
0.24143     0.21123      0.2554     0.61756      -1.366     0.53831     0.40968
0.13717     0.26937     0.27456     0.61464     -1.5752     0.44866     0.41618
0.043625     0.32978     0.29405     0.61691     -1.8165     0.35901     0.41456
-0.026533     0.37948     0.30607      0.5945     -2.1414      0.2528     0.40059
-0.061613     0.40286     0.29795     0.51687     -2.4811      0.1258     0.37038
-0.055441     0.40026     0.27034     0.38175     -2.6139  -0.0054209     0.32751
-0.012567      0.3837     0.23721     0.21902     -2.3291    -0.12235     0.27944
0.055318     0.36324     0.21252    0.075131     -1.5239    -0.20096     0.23299
0.1323     0.34342     0.19693   -0.025884    -0.24805    -0.23668     0.19336
0.20246     0.31419     0.17485   -0.090196      1.2464    -0.25617     0.15341
0.2489     0.26579      0.1284    -0.14087      2.5547    -0.28573     0.10436
0.26125     0.19693    0.053694    -0.19511      3.3489    -0.31983    0.041027
0.23429     0.11378   -0.038876    -0.27176      3.4203    -0.32958   -0.034329
0.16998    0.026735    -0.13632    -0.36693      2.7567     -0.2854    -0.11001
0.080978    -0.04862    -0.22304    -0.45625      1.5241    -0.18731    -0.16588
-0.017114    -0.11098    -0.28281    -0.51439     -0.1191   -0.072981    -0.18959
-0.11261    -0.15288    -0.30457    -0.53843     -1.9712   0.0023744    -0.18407
-0.19024    -0.17562      -0.288    -0.54623     -3.7475  -0.0099683    -0.16653
-0.23116    -0.18471    -0.24838    -0.56701     -4.9685    -0.12982    -0.15353
-0.23116    -0.18212     -0.2029     -0.6232     -4.9682    -0.33575    -0.15353
-0.19966    -0.16977    -0.16588    -0.71188     -4.9682    -0.58845    -0.16458
-0.15483    -0.15158    -0.14411     -0.8077     -4.9685    -0.85089    -0.18082
-0.11196    -0.13112    -0.13275    -0.87006     -4.5414      -1.099    -0.20031
-0.08305    -0.10871    -0.12495    -0.87363     -3.5874     -1.3092    -0.22044
-0.078503   -0.084999     -0.1204    -0.82848     -2.4148     -1.4654    -0.23246
-0.093769   -0.060963    -0.11553     -0.7593      -1.001     -1.5431    -0.22921
-0.11391   -0.034329   -0.098641    -0.64042     0.53019     -1.5262    -0.21232
-0.11748  -0.0047713   -0.052518    -0.40071      1.8405     -1.4281    -0.19024
-0.10091    0.026085    0.028034    -0.01614      2.5797     -1.2832    -0.16912
-0.071682    0.050446     0.12418      0.4217      2.6129     -1.1169    -0.15256
-0.042774    0.063763     0.19726     0.75983       2.123    -0.93405    -0.14087
-0.01614    0.064088     0.21415     0.88683      1.4718    -0.72909     -0.1308
0.0023744    0.056292      0.1638     0.78678     0.98037    -0.49426    -0.11553
0.0088706    0.046548    0.071234     0.54285     0.78776    -0.23051   -0.087597
0.012443    0.044599   -0.022636     0.28203     0.82544    0.045574   -0.043423
0.023487    0.054019     -0.0824     0.10794     0.92645     0.30932    0.010495
0.047847     0.06961   -0.096692     0.06084     0.95016     0.53571    0.064737
0.075781    0.081627   -0.073306     0.11476     0.84428     0.70883     0.11021
0.095269    0.082277   -0.029782     0.20928     0.60782     0.82414     0.13814
0.10566    0.073182    0.017965     0.28691     0.22324     0.89365     0.15049
0.11703    0.061814     0.06019     0.31744    -0.26949      0.9271     0.15601
0.1362    0.053694    0.092671     0.30217    -0.73234     0.92775     0.15958
0.16348    0.050121     0.11508     0.25767     -1.0165     0.89657     0.16413
0.19044    0.051096     0.12872     0.20538     -1.0409     0.84135      0.1729
0.20213    0.051096     0.13457     0.16315    -0.81809     0.76795     0.18102
0.17907    0.048822      0.1284     0.13912    -0.43319     0.66985     0.18102
0.11411    0.050446     0.11183     0.13295   -0.011267     0.53636     0.16965
0.017316    0.057267     0.09462     0.13457     0.31549     0.36518     0.14626
-0.084024     0.06961    0.086175     0.13132     0.46393     0.16933     0.11054
-0.16912    0.082927    0.082277     0.11638     0.45158  -0.0044465    0.067336
-0.22012    0.096244    0.080978    0.091047     0.37006   -0.096042    0.031932
-0.22661     0.10956    0.083576    0.062464     0.31809   -0.083375    0.017965
-0.18439     0.12093    0.090722    0.041351     0.34245 -0.00022403     0.02641
-0.10514      0.1232    0.098842    0.031282     0.42885    0.084876    0.048497
-0.0057458     0.11671     0.10371    0.021538     0.54643      0.1245    0.074806
0.094295     0.10761     0.10306  -0.0015233     0.67375     0.11638    0.098193
0.1742     0.10177    0.099167    -0.04115     0.78776    0.089423     0.11508
0.22032    0.098842    0.091696   -0.086948     0.87026    0.067661     0.12418
0.22714     0.09397    0.079029      -0.123     0.91119    0.054668     0.12548
0.20083    0.082602    0.060515    -0.13599     0.91184    0.046223     0.12028
0.14691    0.063763     0.04395    -0.12105     0.89267    0.044924     0.10729
0.075781    0.039402    0.037129   -0.080776     0.87448     0.06084    0.087799
0.0017248    0.019264    0.043625    -0.03303     0.86766     0.10047    0.063438
-0.058689   0.0065969    0.061489 -0.00054884     0.87188     0.14984    0.036479
-0.094418  0.00042559     0.08585   0.0039985     0.87838     0.17485   0.0091954
-0.10026  -0.0011985     0.10534   -0.018088     0.86149     0.12093   -0.016789
-0.077203   0.0052977     0.11281    -0.04927     0.80205   -0.036602   -0.035953
-0.034654    0.025111     0.10371    -0.06616     0.70753     -0.2539   -0.036602
0.015367    0.063113    0.089098   -0.050894     0.63542    -0.43904  -0.0044465
0.058566     0.11736    0.079679   0.0065969      0.6705    -0.51212    0.063438
0.081952     0.17712    0.087799     0.11736     0.90989    -0.43514     0.15179
0.086824     0.22941      0.1219     0.27749      1.4666     -0.2081     0.23883
0.088448     0.26319      0.1768     0.45386      2.3046     0.16998     0.30964
0.097868     0.27586     0.24046     0.60099      3.1969     0.68544     0.36648
0.12385     0.26969     0.29827     0.68967      3.8705      1.2753      0.4191
0.169     0.25215     0.34245     0.72085      4.0631      1.8164     0.46945
0.23916     0.23364     0.36973     0.72442      3.4876      2.1675     0.51037
0.34147     0.22259     0.37558     0.72377      1.9061      2.2302     0.53376
0.47042      0.2187     0.35544     0.71175    -0.65211      1.9905     0.53603
0.59158     0.21123     0.30672     0.66108     -3.5835      1.4975     0.51102
0.65654     0.18459     0.22812     0.53051     -4.9685     0.83518     0.45256
0.63055     0.12743     0.11801     0.29503     -4.9685    0.083901     0.34635
0.50713     0.03583   -0.012242    -0.03173     -4.9685    -0.68459     0.18167
0.31841   -0.077853    -0.14476    -0.39584     -4.9682     -1.4044   -0.030756
0.11313    -0.19024    -0.26299    -0.72422     -4.9682     -2.0033    -0.26332
-0.06681    -0.28053    -0.35459    -0.96425     -4.9682     -2.3967    -0.47249
-0.19738    -0.33445    -0.41208     -1.0828     -2.2875     -2.5214    -0.62126
-0.27534    -0.35102    -0.43189     -1.0848      2.1003     -2.3707    -0.69304
-0.31918    -0.34192     -0.4202     -1.0078      4.9583     -2.0189    -0.69726
-0.35102    -0.32016    -0.38804     -0.8915      4.9583     -1.5736    -0.65341
-0.3822    -0.29742    -0.34809    -0.75183      4.9586     -1.1163    -0.58293
-0.40688    -0.27793    -0.30327     -0.5904      4.9586    -0.69369     -0.5001
-0.41338    -0.26039    -0.25585    -0.40916      4.9586    -0.33348    -0.41533
-0.39941    -0.24383    -0.21037    -0.22597       4.958   -0.037252    -0.33445
-0.36921    -0.22564    -0.17302   -0.068758      4.9583     0.19953     -0.2591
-0.33867    -0.20453    -0.14541    0.039078      3.8166     0.38597    -0.19803
-0.31496    -0.18179    -0.13145      0.0865     0.99011     0.52531    -0.15678
-0.29872     -0.1623     -0.1295    0.079029     -1.1604     0.61236    -0.13957
-0.28638    -0.14899    -0.13827    0.036804      -1.875     0.64387    -0.14184
-0.27144    -0.13989    -0.14834   -0.021661     -1.1832     0.61788    -0.15743
-0.25422    -0.13567    -0.14834   -0.086298     0.20311     0.53116    -0.17659
-0.23798    -0.13729     -0.1321    -0.15093      1.3523     0.37688    -0.19641
-0.23149    -0.14736    -0.10709    -0.21167      1.8791     0.16153    -0.21979
-0.24286    -0.16425   -0.086948    -0.26722      1.9616   -0.088247    -0.24773
-0.27241    -0.18764   -0.078503    -0.31431      1.8099    -0.32828    -0.27858
-0.30717    -0.21297    -0.08305    -0.34387      1.4393      -0.504    -0.29905
-0.33413    -0.23668   -0.088896     -0.3364     0.87838    -0.54915     -0.2906
-0.33705    -0.24708   -0.081101    -0.28443    0.080328    -0.43871    -0.24968
-0.29872    -0.23279   -0.056091    -0.20388      -1.177    -0.21817    -0.18536
-0.21102    -0.18991   -0.021337    -0.12787     -2.9488    0.020888    -0.11553
-0.083375    -0.12917   0.0069217     -0.0837     -4.8782     0.21317   -0.051544
0.059541   -0.069083    0.015692   -0.075255     -4.9682     0.33173 -0.00054884
0.18881   -0.024585   0.0033489   -0.084024     -4.9685     0.38142    0.036479
0.27814   0.0059473   -0.018413     -0.0837     -4.9685      0.3759    0.062464
0.30542    0.029983   -0.036927   -0.062262     -4.9685     0.33011    0.081303
0.26027    0.054019   -0.045697   -0.029782     -3.5942     0.26839    0.097868
0.15991    0.082277   -0.042124 -0.00087364     -1.1559     0.22682     0.11898
0.03583     0.11801   -0.030431    0.016991      1.2185     0.23981     0.14724
-0.079802     0.15828    -0.01484    0.024461      3.1163      0.2999     0.18069
-0.15548     0.19823   0.0020496    0.027709      4.4107     0.35804     0.21642
-0.17367     0.22649    0.021538    0.032582      4.9583     0.35674     0.25248
-0.13762     0.23916    0.045574    0.047523      4.9583     0.27132     0.28496
-0.064536     0.24013    0.072533    0.079679      4.7852     0.13587     0.30445
0.023812     0.23461    0.097543     0.14042      4.0709   0.0091954     0.30542
0.11248     0.22682     0.11508     0.24111       3.025   -0.067459     0.28366
0.18946     0.21935     0.12678     0.37558      1.6248   -0.084999     0.24566
0.2515     0.21447     0.13392     0.52044    -0.13794   -0.052193      0.2044
0.29308     0.20895     0.13587     0.64387      -2.041    0.013418     0.17225
0.30899     0.19953     0.13262     0.71533     -3.6826    0.094295     0.15341
0.30347     0.18264     0.12548     0.71728     -4.7051     0.16315     0.14432
0.27976     0.16185     0.11671     0.65719     -4.8863     0.18687      0.1323
0.2463     0.14172     0.10989     0.56202     -4.2484     0.16608     0.11118
0.21285     0.12515     0.10859     0.46945      -3.095     0.13847    0.082602
0.18427     0.11411     0.11118     0.40351     -1.8883     0.13067    0.050446
0.1677     0.11086     0.11411     0.37038      -1.061      0.1258    0.022512
0.1625     0.11151     0.11866     0.36194     -0.7986    0.085525   0.0075714
0.16445     0.11833     0.12255     0.36876    -0.96198   -0.013866    0.014717
0.16738     0.12807      0.1271     0.38207     -1.2699    -0.15451      0.0433
0.16673     0.14042     0.13977     0.39572     -1.4986    -0.25812    0.089423
0.16315     0.15536     0.16315     0.40903     -1.5356    -0.24123     0.13847
0.16413     0.16738     0.19239     0.41975     -1.3404   -0.082076     0.17322
0.17387      0.1729     0.21902     0.42268    -0.90059     0.15471      0.1768
0.18719     0.16835     0.23461     0.40871    -0.25715     0.36356     0.15179
0.20408     0.15406     0.23396     0.37753     0.48276     0.45581     0.11313
0.23006     0.14009     0.22259     0.33563      1.1411      0.4165    0.080328
0.27424     0.13879     0.20635     0.28658      1.5845     0.29015    0.069285
0.32946     0.15438     0.19109     0.22682      1.8099      0.1297    0.083901
0.37623     0.17842      0.1742     0.15601      1.9236   -0.012892     0.11541
0.38954     0.19304     0.15373    0.084226      1.9723    -0.10579     0.14432
0.34992     0.18362     0.12548    0.015367       1.821    -0.14119     0.15666
0.26417     0.14951    0.092996   -0.042774      1.3269    -0.11715     0.15016
0.15828    0.097868    0.058566   -0.084024     0.58378   -0.047646     0.12775
0.057917    0.038428     0.02641    -0.10384    -0.17594    0.027385    0.093645
-0.02361   -0.019388   0.0026992    -0.10059    -0.72422    0.050446    0.055318
-0.081426    -0.06681  -0.0057458   -0.076879     -0.9753  -0.0063954    0.031607
-0.10936   -0.092145   0.0017248   -0.034978    -0.97984    -0.11391    0.042326
-0.0824    -0.09182    0.021863    0.017965     -0.8759    -0.19446    0.094945
0.014717   -0.069083    0.045574    0.074806    -0.78853    -0.17465     0.17355
0.16445   -0.034004    0.064088     0.12775    -0.76027   -0.026858     0.24695
0.32036   0.0033489    0.069934     0.16121    -0.83855     0.20181     0.28528
0.43145    0.034855     0.06084     0.15861      -1.099     0.41943     0.28073
0.46425    0.055318    0.036804     0.10956     -1.4216     0.58183      0.2541
0.41358    0.069934   0.0046481    0.032257     -1.4102     0.72085     0.24046
0.30347    0.086824   -0.021337   -0.035953    -0.73234      0.8852     0.26157
0.1651     0.11638   -0.024585   -0.054792     0.58053      1.0671     0.30834
0.026085     0.15926   0.0036737  -0.0067202      2.1685      1.2168     0.34862
-0.095393     0.20603    0.055643    0.094945      3.6535      1.2925     0.35414
-0.18959     0.23754     0.11346     0.21772       4.765      1.2857     0.30932
-0.24286     0.23786     0.15698     0.32848       4.958      1.2214     0.22844
-0.25162     0.20376     0.17517     0.38987      4.9583      1.1447     0.14107
-0.22207     0.14626     0.16445     0.38013       4.958      1.0911    0.073832
-0.1727    0.082927     0.13002     0.30315      4.2073      1.0638     0.03518
-0.12495    0.029333    0.084876     0.18394      2.0811      1.0112    0.016666
-0.096042   -0.007045    0.036804     0.05207     -1.1192     0.84363  0.00042559
-0.098641    -0.03173   -0.011917   -0.082076     -4.7703     0.49348   -0.032055
-0.13145   -0.051544   -0.059989    -0.22077     -4.9682   -0.033354   -0.087272
-0.18277    -0.07493    -0.10351    -0.35946     -4.9682    -0.65828    -0.15581
-0.23993    -0.10449    -0.13534    -0.47737     -4.9682     -1.2663    -0.22109
-0.28833    -0.13242    -0.15126    -0.54915     -4.9682     -1.7496    -0.26689
-0.31042    -0.14931    -0.14574    -0.56312     -4.9682     -2.0374    -0.28605
-0.29905    -0.15093     -0.1243    -0.53128     -4.9682     -2.1085    -0.28118
-0.26039    -0.13697    -0.10059    -0.47996     -4.9682     -2.0043    -0.27306
-0.2068    -0.11228   -0.090196    -0.43806     -1.3979     -1.8039    -0.28183
-0.15678    -0.08305   -0.097017     -0.4137      2.5719     -1.5866    -0.31074
-0.12235    -0.05804    -0.11326    -0.40104      4.9586     -1.4076    -0.34712
-0.10644     -0.0405    -0.12982    -0.39227      4.9583     -1.2998    -0.37862
-0.10611   -0.041475    -0.14346    -0.38967      4.9583     -1.2631    -0.40169
-0.11131    -0.06681      -0.161    -0.40818       4.958     -1.2608     -0.4176
-0.11748    -0.11651    -0.18764    -0.45495      4.9583     -1.2345    -0.43124
-0.12722    -0.18114    -0.22402    -0.51764      4.9583     -1.1315    -0.44716
-0.14444     -0.2435    -0.26592    -0.56961      4.3161    -0.93502     -0.4621
-0.17465    -0.28411    -0.30197    -0.58585      3.0133    -0.67063      -0.466
-0.21817    -0.29353    -0.32211    -0.55922      2.1013    -0.40169    -0.45236
-0.27306    -0.27436    -0.31854    -0.50205      1.5176    -0.20323    -0.42117
-0.32438    -0.23766    -0.29255    -0.43124      1.0284    -0.10286    -0.36888
-0.34452    -0.19348    -0.25033    -0.35686     0.40026   -0.067134     -0.2945
-0.30457    -0.14769    -0.19641    -0.27501    -0.38869   -0.044398     -0.2029
-0.19283   -0.097991    -0.13469    -0.18049      -1.153  -0.0060706    -0.11033
-0.027508   -0.042774   -0.068758   -0.074605     -1.6304    0.041676   -0.034329
0.15309    0.019264  -0.0041217    0.033881     -1.5941    0.079029    0.011469
0.30477    0.082602     0.05272     0.13327    -0.95288     0.10306    0.024786
0.39019     0.13717    0.095594     0.21252     0.15406     0.13522     0.01894
0.38597     0.17387     0.12385     0.26742      1.3916     0.20148   0.0056225
0.29373     0.18687      0.1349     0.29957      2.4261     0.31646  -0.0021729
0.13749     0.17907     0.13197     0.30964      3.0712     0.48212  0.00075039
-0.029782     0.16056     0.12515      0.2986      3.3151     0.70818    0.022512
-0.14899     0.14464     0.12645     0.26514      3.2462       1.008     0.06831
-0.18894     0.13977     0.14074     0.21382      2.9851      1.3763     0.13717
-0.15905     0.14464     0.15731     0.16445      2.6551      1.7476     0.22227
-0.092794     0.14919     0.17127     0.15276      2.3066      2.0263     0.30867
-0.027508     0.14756     0.18102     0.20505      1.8928      2.1383      0.3811
0.016341     0.14724     0.18849     0.31841      1.2396      2.0561     0.43242
0.0433     0.15633     0.20051     0.45223     0.12223      1.8021     0.46263
0.072858     0.18004     0.21805     0.55844      -1.482      1.4361     0.47627
0.11703     0.21188     0.23786     0.60749     -3.2233      1.0382     0.48374
0.16348     0.23461      0.2528     0.59352     -4.6398      0.6809     0.49251
0.17615     0.23494      0.2541     0.53831     -4.9685     0.39929     0.49836
0.13749     0.21058     0.23396      0.4688     -4.9685     0.18004     0.49251
0.080653     0.17225     0.19044     0.40156     -4.6242   -0.037577     0.46425
0.061489     0.13425     0.13425     0.33563     -3.4575    -0.32048     0.40936
0.10761     0.11086     0.07773     0.26449     -2.2206    -0.67128     0.33985
0.19206     0.10859    0.037129     0.18946     -1.1702     -1.0152     0.27521
0.26417      0.1245    0.022512      0.1297    -0.42312     -1.2524     0.23201
0.29503     0.15666    0.034855    0.098517    0.032582     -1.3144      0.2174
0.29048     0.19596    0.068635    0.099492     0.36453      -1.189     0.23234
0.27781     0.23331     0.11346      0.1284     0.81927    -0.91683     0.26807
0.28788     0.26287     0.16056     0.18459      1.4458    -0.57448     0.31386
0.32978     0.27781     0.20376     0.26125      1.9733     -0.2435     0.35122
0.38435     0.27132     0.23494     0.34505       2.098    0.022188     0.36356
0.423     0.24176     0.25118     0.42625      1.6725     0.21252     0.34472
0.42787     0.19693      0.2502     0.49511     0.81439     0.35512     0.29503
0.40026     0.14854     0.23364     0.53473    -0.13762     0.48601     0.22129
0.34894     0.10242     0.20668     0.52499    -0.82978     0.61301     0.13002
0.28236    0.063763     0.17647     0.45646     -1.1799     0.71565    0.030308
0.20603    0.032257     0.14334      0.3392     -1.2683     0.75755   -0.069408
0.12385   0.0059473     0.10274     0.19304     -1.2179     0.72702    -0.15256
0.036804   -0.023935    0.048822    0.039727     -1.3985     0.65686    -0.20323
-0.051868   -0.062587   -0.017764   -0.097341     -2.2901     0.59645    -0.21265
-0.13307    -0.10838   -0.093444    -0.20843     -3.8817     0.55292    -0.18926
-0.19901    -0.15256    -0.17042    -0.29677     -4.9682     0.48536    -0.15581
-0.24221    -0.18699    -0.23441    -0.36303     -4.9682     0.34894    -0.13372
-0.25682     -0.2055    -0.27209    -0.40363     -4.9685     0.12807    -0.13307
-0.25195    -0.20908    -0.28378    -0.41403      -4.264    -0.16393    -0.14899
-0.23831    -0.20193    -0.27599    -0.40656     -2.0858    -0.49491      -0.174
-0.21882    -0.18959    -0.25747    -0.40299   -0.046671    -0.83498    -0.20453
-0.19478    -0.17562    -0.23733    -0.42929      1.2405     -1.1559    -0.23961
-0.15808    -0.16035    -0.22337    -0.48516      1.7784     -1.4346    -0.27339
-0.10351    -0.14314    -0.21427    -0.53453      1.9749     -1.6356    -0.29547
-0.04115    -0.12333    -0.20518     -0.5433      2.1481     -1.7227    -0.29645
0.0078962    -0.10579    -0.19381    -0.50335      2.3452     -1.6908    -0.28735
0.023812   -0.096042    -0.18894    -0.44651      2.4537     -1.5742    -0.29158
-0.0011985    -0.10319    -0.19771    -0.40623      2.3602     -1.4226    -0.32016
-0.05804    -0.12722     -0.2172    -0.38967      2.0496     -1.2657    -0.36044
-0.1269    -0.15613    -0.23474    -0.37635      1.6131     -1.0951    -0.38642
-0.18764    -0.17887    -0.23668    -0.33607      1.2162     -0.8902     -0.3757
-0.21947    -0.18796    -0.21492    -0.25357     0.96705    -0.64367    -0.32211
-0.21655    -0.18147    -0.16782    -0.13924     0.87026     -0.3731    -0.23636
-0.18796    -0.16133    -0.10806   -0.015815     0.87903    -0.10806    -0.14476
-0.14411    -0.13632    -0.04927    0.092996     0.92873     0.12872    -0.06681
-0.092469    -0.11228   0.0010752     0.16933      0.9651     0.32783   -0.012892
-0.04115   -0.087922    0.042326     0.20928     0.95926     0.48179    0.019914
0.0046481   -0.064211    0.072533     0.21512     0.91281     0.58248    0.040377
0.0433   -0.036602    0.092671     0.20148     0.83713     0.62471    0.055968
0.083251  -0.0031473     0.10436     0.17842     0.76112     0.62178     0.06896
0.12613    0.032906     0.11054     0.15276     0.72994      0.5997    0.078704
0.16283    0.062139     0.11476     0.12775     0.77866     0.58053    0.080978
0.18004    0.080978     0.12028     0.10794     0.91021     0.57014    0.076431
0.1755    0.086824     0.12678    0.099492      1.1096     0.56429    0.072858
0.15796    0.081303     0.13262     0.10404      1.3399     0.56072    0.076106
0.13327    0.064413      0.1323     0.11703      1.5254     0.55552    0.084876
0.099492    0.040052      0.1219     0.12937      1.5718     0.54448    0.091047
0.061814    0.017316     0.10404     0.14107      1.4202     0.53766    0.092346
0.030633   0.0052977    0.087799     0.15114      1.0908     0.55812    0.096569
0.012119    0.008221    0.078704     0.15926      0.6848     0.61009     0.10956
0.0010752    0.020564    0.079354     0.16315     0.32816     0.67343      0.1284
-0.010618    0.031607     0.08585     0.15991     0.10859     0.71338     0.14496
-0.030106    0.033231     0.10112     0.15114     0.05142     0.70363     0.15503
-0.053817    0.028034     0.12125     0.14854     0.12645       0.639     0.15763
-0.07493    0.020564     0.14464     0.15731     0.27132     0.53116     0.15373
-0.080127    0.013093     0.16348     0.17615     0.40936     0.40708     0.14529
-0.061288   0.0072465     0.17452     0.19563     0.47854     0.30022     0.13197
-0.021012    0.003024     0.17322     0.21025      0.4584     0.23624     0.11931
0.034855   0.0052977     0.16153     0.21577     0.37785     0.22227     0.10794
0.093321     0.01764     0.14529     0.21577     0.30574     0.23818    0.099817
0.1362    0.038753     0.13262     0.21707     0.30185     0.25248    0.094945
0.14659    0.067661     0.12678     0.22454     0.36843     0.23948    0.093645
0.11736     0.10209     0.12613     0.23559      0.4597     0.19401    0.092346
0.050121     0.13912     0.12515     0.24176     0.49933     0.12743    0.088773
-0.034329     0.17257     0.11703     0.23591     0.42657    0.057917    0.083251
-0.10221     0.19563     0.10047        0.22     0.22487  0.00010078    0.078704
-0.11715     0.20408    0.075456     0.19856    -0.11131   -0.033679    0.080653
-0.06616     0.20148    0.051745     0.17907     -0.5917   -0.039526     0.09462
0.033231     0.19109    0.039402     0.16445     -1.1624   -0.022636     0.11638
0.14886     0.17517    0.038428     0.15536     -1.7025   0.0026992     0.14042
0.24111     0.15568      0.0433     0.15081     -2.0923    0.021863     0.16056
0.28983     0.13977    0.046873     0.15146     -2.2593    0.026735     0.16673
0.30574     0.13165    0.047847     0.15114     -2.1677    0.015042     0.15438
0.31322     0.13555    0.047523     0.14464     -1.8195   -0.008669      0.1258
0.32426     0.14496    0.043625     0.13035     -1.2696   -0.035953    0.092021
0.33043     0.15049    0.037454     0.11671    -0.61119   -0.053168    0.063763
0.31289     0.13944    0.032906     0.10989    0.048172   -0.059989    0.045574
0.25702     0.10891    0.033881     0.11183      0.5893   -0.082076    0.032582
0.16056    0.061814    0.042001     0.11963     0.91184    -0.14152    0.019589
0.041351    0.013418    0.055318     0.12743       0.969    -0.21167   0.0072465
-0.071357   -0.019388    0.069934      0.1297     0.77282    -0.23863  -0.0047713
-0.14671   -0.028807    0.076755      0.1284     0.38272    -0.20258   -0.018413
-0.16555   -0.012892    0.075131     0.12158   -0.073306    -0.12917   -0.035303
-0.13177    0.019264    0.067986     0.10729    -0.37473   -0.053168   -0.055441
-0.071357     0.05207    0.057267    0.087799    -0.28833  0.00042559   -0.077203
-0.0089938    0.069934    0.041676    0.063763     0.22779    0.026085    -0.09929
0.047523    0.070584    0.023487     0.03583     0.96543    0.040702    -0.11261
0.098193    0.056942   0.0072465     0.01017      1.6349    0.081627    -0.10579
0.14756    0.038428 -0.00054884  -0.0037969      2.1201     0.20116   -0.067459
0.20018    0.020239   0.0039985   0.0017248      2.4589     0.42852   0.0043233
0.2567   0.0059473    0.022188    0.030633      2.6405     0.72962     0.10144
0.31192  -0.0011985    0.046548    0.066686      2.4745     0.99629     0.20733
0.35674  -0.0011985    0.066362    0.086824        1.72        1.12     0.29503
0.37265   0.0026992    0.071558    0.078055     0.39442      1.0593      0.3392
0.34667   0.0020496    0.062789    0.038428     -1.1367     0.85045     0.33335
0.27002   -0.010293    0.047847   -0.025884     -2.5087     0.57144     0.28821
0.13847   -0.028807    0.032582   -0.098965     -3.6387      0.2973     0.22779
-0.030756   -0.043423    0.018615    -0.16685     -4.5144    0.054668     0.17485
-0.20388   -0.041475   0.0072465    -0.22044     -4.9688    -0.17789     0.14042
-0.34874   -0.012242  -0.0024977    -0.26267     -4.9685    -0.42994     0.11995
-0.44099    0.040052   -0.018088    -0.29482     -4.9682    -0.69953     0.09462
-0.47119     0.10177   -0.043423    -0.31431     -4.7252    -0.94866    0.053694
-0.44554     0.15536   -0.071032    -0.32146     -3.8966     -1.1078    0.008221
-0.3705     0.18816   -0.088247    -0.30619     -2.7185     -1.1104   -0.017439
-0.26202     0.19693   -0.084674    -0.26819     -1.3764    -0.93275   -0.010943
-0.15029     0.18232   -0.065835    -0.22044    -0.18407    -0.63003     0.01894
-0.069408     0.14626   -0.046347    -0.19316      0.5932    -0.30262    0.045249
-0.039526     0.09462   -0.043099    -0.21492     0.98005    -0.04927    0.048822
-0.063561     0.03518   -0.060963    -0.29937       1.223     0.05272    0.023162
-0.12885    -0.01484   -0.097017    -0.43774      1.5884   -0.022311   -0.027833
-0.20745    -0.04927    -0.14216    -0.60859      2.1714    -0.23311   -0.088896
-0.27176   -0.070382    -0.18439    -0.77619      2.8237    -0.49685    -0.13599
-0.30262   -0.087922    -0.21395    -0.90319      3.3157    -0.73169    -0.15711
-0.29645    -0.10838    -0.22759    -0.95548      3.4512     -0.8876    -0.14996
-0.25845    -0.12982    -0.22434    -0.91001      3.1589    -0.95158     -0.1282
-0.19901    -0.14216     -0.2068    -0.77197      2.5615    -0.93729    -0.10709
-0.13437    -0.13794    -0.18407     -0.5904      1.8833    -0.86519   -0.098965
-0.084349    -0.11651    -0.16263    -0.43936      1.3214    -0.74436    -0.10611
-0.067134   -0.085973    -0.14704      -0.377      1.0119    -0.57578    -0.12755
-0.0837   -0.057715    -0.13275    -0.37927     0.97842    -0.38512     -0.1597
-0.11488   -0.038551    -0.10838    -0.32958      1.1077    -0.21752    -0.19706
-0.14736   -0.027833   -0.069408    -0.11391      1.1814    -0.10709    -0.23214
-0.17659   -0.021661   -0.017764     0.27229     0.93912   -0.062262    -0.25942
-0.19998   -0.014516    0.043625     0.71598     0.24371   -0.065186    -0.26949
-0.2081  -0.0041217     0.10631      1.0723    -0.85382   -0.087922    -0.26234
-0.19121   0.0095202     0.15244      1.2451     -2.1589    -0.10189    -0.23831
-0.15321    0.021863     0.17257      1.2243     -3.3633   -0.093119    -0.20453
-0.09929    0.030308       0.169      1.0684      -4.136   -0.063237    -0.16393
-0.033354    0.032582     0.14756     0.86019     -4.2312   -0.023935    -0.12235
0.045249    0.030957     0.11606     0.66953     -3.5491     0.01894   -0.085648
0.13067     0.01829    0.079029     0.52986      -2.233    0.058566   -0.062262
0.20538  -0.0057458    0.036479     0.43437     -0.6323    0.088448   -0.054467
0.25248   -0.034329  -0.0047713     0.35739     0.83356     0.10534   -0.063561
0.26872   -0.051868   -0.031081     0.27456      1.8317     0.11443   -0.080127
0.26872   -0.044723   -0.036278     0.17745      2.2591     0.12483   -0.097666
0.26547   -0.010293   -0.021986    0.075131      2.1883     0.14107    -0.11228
0.26677    0.042001   0.0026992   -0.010943      1.7966     0.16673    -0.12008
0.26644    0.096893    0.030957   -0.063561      1.2759      0.2044    -0.11586
0.24858     0.14334    0.059865   -0.075579     0.78126     0.25637   -0.097017
0.2044      0.1729    0.087474   -0.050569     0.41813     0.32036   -0.067784
0.13392     0.18524     0.11054 -0.00087364     0.23754     0.38857   -0.028807
0.056617     0.18232     0.13002    0.055968     0.23591     0.45158    0.018615
-0.0047713     0.16575     0.14269     0.10079     0.36551      0.5042    0.074806
-0.026858     0.13684     0.14886     0.11866     0.59937     0.55162     0.13457
-0.0011985     0.10144     0.14529     0.10664     0.95114     0.60164     0.18816
0.065712    0.064413     0.13197    0.065387      1.4192     0.65102     0.22617
0.15568    0.032906     0.11054  -0.0018481      1.9545     0.68999     0.24501
0.23948    0.013418    0.083251   -0.072656      2.5008     0.72377     0.25248
0.29957    0.009845    0.057267    -0.10481      3.0072     0.75528     0.25767
0.31971    0.019264    0.045249   -0.054142      3.4577     0.79263     0.27034
0.2921    0.030633    0.050121    0.091047      3.8416     0.81927      0.2908
0.21805    0.031932    0.064413     0.29275      4.0937     0.78419     0.30672
0.11411    0.016341    0.074482     0.48309      4.0764     0.62828     0.29827
0.015367   -0.011917    0.072533     0.60229      3.5831     0.34342     0.24858
-0.045047   -0.039851    0.061165     0.61886      2.4004   -0.013216      0.1625
-0.055116   -0.050244    0.047523     0.54415     0.44216    -0.35979     0.06831
-0.022961   -0.038227    0.036479     0.41715     -2.0439    -0.64692  -0.0054209
0.022512  -0.0057458    0.035505     0.28073     -4.4455     -0.8798   -0.048296
0.057917    0.035505    0.042975     0.15796     -4.9682      -1.087   -0.065186
0.065712    0.074482    0.052395    0.054019     -4.9678     -1.2735   -0.069408
0.041351    0.099817     0.06084   -0.033679     -4.9688     -1.3875   -0.068758
-0.0076946     0.10989    0.065712   -0.093769     -4.9682     -1.3582   -0.062587
-0.072331     0.10404    0.064737    -0.11683     -4.8779     -1.1513    -0.04992
-0.13697    0.086824    0.058241    -0.10059     -3.5335    -0.79893   -0.031406
-0.18017    0.067011    0.050446   -0.062262     -2.2381    -0.38739   -0.014516
-0.17465    0.050121    0.041027   -0.025234     -1.1725  -0.0021729 -0.00022403
-0.09994    0.042975    0.029983   -0.010293    -0.42215     0.32134     0.01764
0.034206    0.053369    0.017316   -0.021012    0.026085      0.5867     0.04395
0.18687    0.078704   0.0020496   -0.048945     0.24825     0.79555    0.076755
0.30802     0.11118   -0.012567   -0.086623     0.38825     0.93165     0.11183
0.36096     0.13587   -0.022636    -0.12495     0.63835     0.97322     0.13749
0.34667     0.14367   -0.025234    -0.15288       1.107      0.9258     0.14464
0.29275     0.13197   -0.020687      -0.161      1.7261     0.82056     0.13782
0.22812     0.10339   -0.012892    -0.14639      2.3079     0.70688     0.12613
0.16121    0.060515   -0.008669    -0.11878      2.6765     0.62048     0.11183
0.081627    0.013418   -0.010943    -0.09182      2.7554     0.57111    0.091696
-0.01549   -0.026533   -0.016464   -0.078178      2.5934     0.55292    0.065062
-0.1217    -0.04862   -0.021986   -0.082725      2.3137     0.55422    0.040377
-0.21135   -0.046996   -0.025884   -0.097991      2.0308      0.5539    0.028034
-0.25552   -0.026209   -0.026533    -0.11261      1.7904     0.52694    0.029983
-0.23896   0.0088706   -0.020687    -0.11813      1.5725     0.45873     0.04395
-0.174    0.051745   -0.008669    -0.11033       1.337     0.36356     0.06019
-0.092145    0.090072   0.0059473    -0.10254      1.0928     0.27554    0.070584
-0.023935     0.10989     0.01894    -0.11748     0.90469     0.24923    0.070259
0.012443     0.11021    0.028684    -0.16782     0.83843     0.32296    0.061489
0.014717     0.10079    0.036479    -0.25065      0.8943     0.48374    0.047198
-0.0041217    0.089748    0.041027    -0.34127     0.96868     0.66011     0.02706
-0.023935    0.078055    0.042001    -0.40818     0.89202     0.76242   0.0017248
-0.029782    0.063438     0.03583    -0.42832     0.49641     0.71728    -0.02361
-0.019712     0.04395    0.019589    -0.41825    -0.24286     0.49738   -0.047646
-0.0028225    0.017316  -0.0067202    -0.41208     -1.1062     0.13977   -0.067134
0.013093   -0.010618    -0.03173    -0.38317     -1.7509    -0.26364   -0.075579
0.030957   -0.026858   -0.031406     -0.2461     -1.9263    -0.58942   -0.060963
0.058891   -0.022311    0.010819    0.054344     -1.5622    -0.76157   -0.014516
0.098517   0.0056225    0.092671     0.46165    -0.77586    -0.77911    0.053694
0.14399    0.048172     0.18459     0.83648     0.14594    -0.68622     0.12418
0.18297    0.088773     0.25215      1.0489     0.84135    -0.52089     0.18816
0.20668     0.11541     0.27911      1.0479      1.0742    -0.29028      0.2463
0.2096     0.11963     0.26352     0.87188     0.81569  -0.0083442      0.2986
0.19239     0.10371     0.20993     0.60262     0.25637     0.25053     0.33043
0.15926    0.065712     0.12743     0.32361    -0.34744     0.36453     0.31614
0.11801    0.011469    0.036804    0.093645    -0.88922     0.25183     0.24923
0.074806   -0.044073   -0.045372   -0.058365       -1.48   -0.058365     0.14529
0.039078   -0.089871    -0.10351    -0.13437     -2.2196    -0.41988    0.044275
0.016341    -0.11618    -0.12982    -0.15158     -2.9095    -0.66413   -0.021986
0.0033489    -0.12365    -0.12592    -0.13242     -3.1866    -0.70051   -0.044398
-0.0050961    -0.11651    -0.10254   -0.098316      -2.777    -0.55597   -0.040825
-0.0099683   -0.099615   -0.066485   -0.057065     -1.6489    -0.33185   -0.031406
-0.018088   -0.075579   -0.027183   -0.011592    -0.12527    -0.14964   -0.038227
-0.030756   -0.051219   0.0088706    0.033556      1.1753    -0.09182   -0.070382
-0.052518   -0.033679    0.031607     0.06084      1.7411    -0.17952     -0.1243
-0.082725   -0.026533    0.037778    0.057267      1.4715    -0.37213    -0.18342
-0.1178   -0.025234    0.029333     0.01829     0.67992    -0.58878    -0.23214
-0.14964   -0.021012    0.013743   -0.048945    -0.21167     -0.7619    -0.26104
-0.17497   -0.012242  -0.0041217    -0.13827     -1.0604    -0.87396    -0.27371
-0.19446  -0.0050961   -0.023935    -0.23928     -1.8883    -0.94087    -0.28021
-0.20615  -0.0054209   -0.045372    -0.32795     -2.5279    -0.96165    -0.28378
-0.19673   -0.015815   -0.061613    -0.37473      -2.715    -0.89572    -0.27209
-0.15613   -0.028807   -0.064861    -0.36596     -2.2914    -0.70733    -0.22986
-0.086623   -0.034654   -0.052843    -0.30717     -1.3293    -0.39974    -0.14996
0.0052977   -0.031406   -0.030756    -0.22434    -0.21005   -0.019388   -0.038551
0.11606   -0.026533   -0.016464    -0.14801     0.51752     0.35414    0.084876
0.23461    -0.02426   -0.019063    -0.10416     0.54968     0.63088     0.19141
0.33693   -0.025559   -0.035303    -0.10124     0.11411     0.75463     0.25832
0.40026   -0.028157   -0.055766    -0.12657    -0.18699     0.73027     0.27814
0.41228   -0.032705   -0.069083    -0.15483     0.21188     0.61496      0.2541
0.36876     -0.0405   -0.071682    -0.16815       1.476     0.48244     0.19401
0.27229   -0.050244   -0.066485    -0.16263       3.255     0.39084     0.11508
0.14269    -0.05804   -0.061613    -0.14314      4.8745     0.36453    0.039727
0.023812   -0.061288   -0.062912    -0.11228       4.958     0.39896  -0.0063954
-0.035303   -0.055766   -0.067459   -0.076554      4.9583     0.46035   -0.015165
-0.016464   -0.039201   -0.069083   -0.046022      3.2651     0.49088    0.003024
0.061165   -0.012242   -0.066485   -0.030431      1.1811     0.44346    0.024786
0.15081    0.016016   -0.060638   -0.027183     -0.3364      0.3038    0.028359
0.21025    0.041351   -0.053168   -0.024909    -0.88208    0.090397   0.0065969
0.22097    0.058241   -0.039201  -0.0073698    -0.67485     -0.1753   -0.028807
0.18946    0.071234   -0.014516    0.042001    -0.09929    -0.46697   -0.056741
0.13977    0.084876    0.023162      0.1245     0.51167     -0.7502   -0.063237
0.090072    0.098842    0.066362     0.22844      1.0158    -0.96847   -0.045047
0.041027     0.11086     0.10469     0.32621      1.4117     -1.0721   -0.008669
-0.0099683     0.11801     0.13295     0.39702       1.692     -1.0367    0.040052
-0.053817     0.12125     0.15244     0.43957      1.8993    -0.87168    0.094295
-0.082725      0.1232      0.1677      0.4649      2.0074    -0.61638     0.14334
-0.090521     0.12678     0.18199     0.48114      1.7148    -0.34387      0.1755
-0.081751     0.13295     0.19109     0.48536     0.60099    -0.14281      0.1781
-0.075255     0.13197     0.18654     0.44801     -1.4732   -0.077528     0.14172
-0.096692     0.10761     0.16121     0.34505     -3.9811    -0.17432     0.06831
-0.1623    0.052395     0.11118     0.17192     -4.9685    -0.40818    -0.03173
-0.25877   -0.022311     0.04395   -0.046022     -4.9688    -0.69434    -0.13697
-0.34355   -0.093444   -0.023285    -0.26039     -4.9682    -0.89864    -0.21622
-0.37538    -0.14541   -0.076229     -0.4215     -4.9685     -0.8811    -0.24415
-0.33965    -0.17172    -0.11131    -0.50205     -4.3718    -0.58325    -0.21037
-0.25552     -0.1727    -0.13307    -0.50368     -2.2232   -0.076229    -0.13242
-0.15678    -0.16035    -0.15061    -0.45073    -0.21785      0.4636   -0.053817
-0.089221    -0.14866    -0.16555    -0.37278      1.3809     0.86994   -0.015815
-0.079802    -0.14541    -0.17757    -0.29028      2.5541      1.0752   -0.027833
-0.11975    -0.14444    -0.18439    -0.21297      3.3784      1.0957   -0.064211
-0.16847    -0.13697    -0.18439    -0.13697      3.7942      1.0031   -0.081751
-0.18407    -0.11748     -0.1688   -0.054467      3.6727      0.8865   -0.052843
-0.14249   -0.083375     -0.1295    0.033231      2.9117     0.81179     0.01894
-0.04115   -0.034329   -0.071032     0.11054      1.5095     0.80757     0.11151
0.10566    0.029983  -0.0044465     0.15536    -0.24058     0.86409     0.19986
0.26677     0.10436     0.06019     0.14626     -1.6792     0.93262     0.26449
0.40676     0.17842     0.11801    0.088448     -2.2524     0.96673     0.29697
0.49283     0.24598     0.16738    0.027385     -1.7737     0.95406     0.30022
0.51395     0.30282     0.20505    0.013743    -0.43384     0.91801     0.28561
0.47497      0.3392     0.22747    0.072208      1.2665      0.8852     0.26709
0.39831     0.34472     0.23818     0.18589      2.7733     0.85564     0.25345
0.30477     0.31744     0.23883     0.31224      3.7695     0.81894     0.24793
0.2044     0.26709     0.23299     0.41326      4.2155     0.76372     0.24566
0.092021     0.21123     0.22032     0.46652      4.2086     0.67862     0.23494
-0.041799      0.1625     0.19693     0.46328      3.7256     0.53279     0.20408
-0.19121     0.12775     0.15991     0.40611       2.633      0.2947     0.14432
-0.33153     0.10404     0.10696     0.30964     0.92873     -0.0405    0.054993
-0.43806      0.0852    0.044275     0.20213     -1.0672    -0.43806    -0.04927
-0.49685    0.062789   -0.012242     0.11443     -2.9459    -0.82816    -0.14736
-0.5092    0.029009   -0.045372    0.069934     -4.4316     -1.1289    -0.21362
-0.48386    -0.01614   -0.053168    0.068635     -4.9682     -1.2663    -0.23441
-0.42345   -0.061937   -0.042449    0.094945     -4.9682     -1.2001    -0.21395
-0.32406   -0.091495    -0.02426     0.12872     -4.6472    -0.94606    -0.16718
-0.18342   -0.094093  -0.0076946     0.14691     -3.3899    -0.57546    -0.11033
-0.02361   -0.072006   0.0033489     0.13555     -1.7958    -0.18959   -0.060313
0.11801     -0.0405   0.0046481    0.094295    -0.13827     0.12028   -0.031081
0.21317   -0.017114  -0.0037969    0.031932      1.2717     0.30899   -0.028807
0.2502   -0.013216   -0.025884   -0.044073      2.1977     0.37363   -0.048945
0.23656   -0.029132    -0.05804    -0.12852      2.5589     0.33075     -0.0837
0.19206   -0.059339   -0.093769     -0.2159      2.4212     0.21382     -0.1191
0.14139   -0.087597    -0.12365    -0.29515      1.9983    0.073182    -0.14346
0.10274    -0.10026    -0.13599    -0.34679      1.5533    -0.04115    -0.14996
0.0865   -0.090845    -0.12917    -0.35946      1.3045   -0.089221    -0.14022
0.096569    -0.06551    -0.10644    -0.33737      1.4072   -0.051868    -0.11748
0.11866   -0.040175   -0.072006    -0.29125      1.8791     0.06084   -0.083375
0.13457   -0.028157   -0.036927    -0.22791      2.5612     0.21642   -0.034978
0.13132   -0.031081  -0.0018481    -0.14801      3.2644     0.36746    0.022512
0.11151   -0.033354    0.032257   -0.043423      3.8601     0.47302    0.076431
0.082602   -0.023285    0.067661    0.093321      4.1969      0.5094     0.11118
0.048822   0.0046481     0.10274     0.25962       4.067     0.48212     0.12223
0.0075714    0.042975      0.1336     0.43274      3.3265     0.41456     0.11736
-0.044398    0.080653     0.15471     0.58183      2.0022     0.32621     0.11054
-0.10221     0.10339     0.16121     0.67408     0.32036     0.20928     0.10826
-0.14574     0.11054     0.14886     0.68382     -1.4258    0.046873     0.10371
-0.15418     0.11021     0.11931     0.61301     -2.9738    -0.15451    0.084876
-0.10968     0.11573    0.087474     0.49088     -4.1685    -0.35946    0.051096
-0.020037     0.13295    0.070909     0.35934      -4.947    -0.51634    0.010495
0.087799      0.1625    0.074482      0.2515     -4.9685    -0.59235   -0.026533
0.18459     0.19531    0.088448     0.18654     -4.9682    -0.59137   -0.047321
0.26125     0.22487     0.10242     0.16478     -4.4027    -0.54752    -0.04115
0.32134     0.25053     0.11346     0.17387     -3.3376    -0.50108  -0.0083442
0.36421     0.26904      0.1219     0.19563     -2.1248     -0.4569    0.039727
0.3824     0.27489     0.12872      0.2148    -0.99608    -0.36856    0.092996
0.35966     0.26255       0.131     0.22617    -0.13047    -0.19024     0.14529
0.28528     0.23234     0.13165     0.22747      0.3785    0.076431     0.19369
0.16673     0.18849     0.13392     0.22032     0.54968     0.38272     0.22877
0.023487     0.13782     0.13749     0.21155      0.5003     0.65751     0.24241
-0.11423    0.092996     0.14042     0.21155     0.35771     0.83843     0.23104
-0.21297    0.064413     0.14367     0.22194     0.19628     0.90274     0.20408
-0.24805    0.053694     0.14432     0.23624    0.039402     0.87448     0.18069
-0.21752    0.058241     0.14237     0.24793     -0.0837     0.80887     0.17939
-0.13632    0.069934     0.13814      0.2528   -0.093119     0.74261     0.20148
-0.026209    0.086175     0.13749     0.24501    0.099167     0.67018     0.23461
0.10339     0.10144       0.131     0.21805     0.50485     0.56299      0.2567
0.24241     0.10794     0.10859       0.169     0.95341     0.40384     0.25702
0.36908    0.099492    0.066686    0.097543      1.1463     0.20051     0.23624
0.461    0.075131    0.018615    0.013418     0.95568   -0.016464     0.20213
0.50355    0.044599   -0.016464   -0.061613      0.5565    -0.22986     0.15926
0.49803    0.015042   -0.032055    -0.10903     0.26319    -0.46372     0.11183
0.45093   -0.010618   -0.034978    -0.12398     0.22552    -0.72617    0.069934
0.37883   -0.031406   -0.029132    -0.11456     0.25865    -0.97822    0.050446
0.3012     -0.0405   -0.015815   -0.088247    0.039078      -1.151    0.062139
0.22617   -0.038227   0.0023744   -0.052193    -0.58845     -1.1932    0.094295
0.14074   -0.035303    0.022188    -0.01614     -1.5174      -1.087     0.12548
0.015692   -0.037902    0.042326    0.014392       -2.46    -0.86421     0.13879
-0.15841     -0.0405    0.057917     0.03583     -3.1213    -0.60144     0.12385
-0.34809   -0.034329    0.064413    0.041676     -3.3789    -0.38545    0.084226
-0.49491   -0.016464    0.056292    0.023812     -3.1931     -0.2513    0.035505
-0.54817   0.0056225    0.034855   -0.014516     -2.5383    -0.16328  -0.0031473
-0.49978    0.021538   0.0095202   -0.061937     -1.4989   -0.047971   -0.016464
-0.38415    0.029983   -0.011592    -0.10514    -0.27501     0.13587   0.0056225
-0.23928    0.033881   -0.022636    -0.13307     0.82739     0.37428    0.055643
-0.098641    0.037778    -0.02426    -0.14574      1.5602     0.60392     0.11248
0.015367    0.047523    -0.02426    -0.15776      1.9132     0.73741     0.15081
0.090072    0.060515   -0.032055    -0.18114      2.0217      0.7215     0.15666
0.11995    0.072533   -0.045697    -0.22304      2.0113     0.57988     0.12613
0.10404    0.083901   -0.059014    -0.28053      1.8775     0.41228     0.06961
0.048497    0.089098    -0.06616    -0.34809      1.5569     0.32523   0.0033489
-0.025559      0.0852   -0.076554    -0.41793       1.107     0.36031   -0.060313
-0.090196    0.070584   -0.090196    -0.48386     0.75171     0.48601    -0.11748
-0.12755    0.046223    -0.10611    -0.53843     0.74911     0.63023    -0.16718
-0.13567    0.014392    -0.12203    -0.56994       1.136      0.7176    -0.21232
-0.11943   -0.021986     -0.1334    -0.56929      1.6504     0.70039    -0.25292
-0.080451   -0.055441    -0.13762    -0.52446      1.9915     0.56819    -0.27891
-0.020687   -0.076554    -0.12852    -0.43612      2.0685     0.34082    -0.28183
0.05272   -0.078178    -0.10741    -0.31951      1.9905    0.078704    -0.25617
0.1206   -0.059989   -0.080127    -0.20193      1.9064    -0.14476     -0.2094
0.15958   -0.033354   -0.051219    -0.10091      1.8557    -0.28898    -0.15256
0.15471   -0.010943   -0.024585   -0.020037      1.7485    -0.36596   -0.097341
0.11346  0.00075039  -0.0021729    0.040377      1.4832     -0.4124   -0.051544
0.057592  0.00075039    0.020564    0.083901      1.0856     -0.4582   -0.013541
0.011469  -0.0024977    0.043625     0.11866      0.7556    -0.52219    0.018615
-0.0054209  0.00075039    0.066362     0.15211     0.72994     -0.6297    0.039727
0.0075714    0.013418    0.087149     0.18654     0.99986     -0.8038    0.046548
0.040052    0.033881     0.10177     0.21837      1.3195      -1.039    0.041351
0.076755    0.054019     0.11021     0.23559      1.4172     -1.2975    0.029009
0.10469    0.064413     0.10826     0.22519      1.2146     -1.5268   0.0088706
0.10924    0.057592    0.093321     0.18589     0.86669     -1.6733   -0.023285
0.083901    0.028684    0.061165     0.12678     0.55195     -1.6831   -0.068434
0.032582   -0.018738    0.014068    0.057592     0.17257      -1.531    -0.12138
-0.037902   -0.069733   -0.040175   -0.019063    -0.68135     -1.2351    -0.17465
-0.11488    -0.11488   -0.091495    -0.11001     -2.2901    -0.85901    -0.21817
-0.18407    -0.15029    -0.13177    -0.21752     -4.2838    -0.49523    -0.25195
-0.23019    -0.17432    -0.15938    -0.33153     -4.9685    -0.21622    -0.27858
-0.2474    -0.18504     -0.1753    -0.42962     -4.9682   -0.050894    -0.29937
-0.23506    -0.18114    -0.17887    -0.48646     -4.9685    0.016666    -0.31366
-0.19998    -0.15808     -0.1675    -0.47932     -3.0495    0.030633    -0.31464
-0.14866    -0.11651    -0.14022    -0.41273    -0.92138    0.028034     -0.2997
-0.092794   -0.063886   -0.098965    -0.30782     0.58248  0.00075039    -0.26819
-0.046671  -0.0060706   -0.050244    -0.19478      1.1113   -0.093119    -0.23149
-0.020687    0.048172  -0.0018481   -0.096042     0.90469    -0.26949    -0.20063
-0.016789    0.088124    0.041351   -0.025234     0.45451    -0.48354    -0.17984
-0.026533     0.10306    0.072208    0.017316     0.15828    -0.65666    -0.16815
-0.036927    0.092996      0.0852    0.039727     0.15601     -0.7122    -0.15905
-0.033679    0.064088    0.082277    0.054019     0.39019    -0.61573    -0.14119
-0.0099683    0.025436    0.072858    0.064088     0.72442    -0.38772    -0.10838
0.033231   -0.016789    0.063438    0.067336      1.0525   -0.088247   -0.067459
0.081952   -0.053492    0.052395    0.060515      1.3224     0.21447   -0.028807
0.12158   -0.078827    0.038753    0.054019       1.514     0.47497   0.0010752
0.14237   -0.092145    0.023162    0.068635      1.6189     0.68609    0.025761
0.14594   -0.094093    0.011469     0.11508      1.6358     0.86571    0.057592
0.14107   -0.087272   0.0046481     0.18492      1.5602      1.0226     0.10696
0.13879   -0.080127   0.0088706     0.26482      1.4497      1.1535      0.1768
0.131   -0.080776    0.022512     0.34147      1.4085      1.2571     0.25248
0.10404   -0.096692    0.040377     0.40221      1.4588      1.3292     0.31874
0.059541     -0.1243    0.048822     0.43437      1.5043      1.3672     0.36453
0.01829    -0.14476    0.047523     0.43437      1.3633      1.3822     0.39052
0.0072465     -0.1334    0.051745      0.4165       0.931      1.3935     0.40384
0.038753   -0.079152    0.067661     0.40643     0.29275      1.4111     0.40481
0.11118   0.0069217    0.096244      0.4178    -0.34939      1.4354     0.39377
0.20473     0.10047      0.1271     0.44411    -0.80152      1.4643     0.36876
0.2921     0.18232     0.15016     0.46425    -0.92365        1.49     0.33855
0.35999     0.24728     0.16478     0.45873    -0.70473      1.4903     0.30639
0.40449     0.29503     0.16543     0.41748    -0.33088      1.4328     0.26742
0.41553     0.32426     0.15114     0.33595   -0.076554      1.3065     0.21805
0.37298     0.32978     0.12223     0.23071    0.031932      1.1269     0.16121
0.27391     0.30867    0.082927      0.1297     0.28496     0.92775     0.10436
0.13684     0.26579      0.0433    0.062139     0.95958     0.73969    0.054668
-0.013216     0.20993    0.008221    0.037129      1.9853     0.56851    0.014068
-0.15191     0.14984   -0.020037    0.041676       2.912     0.40319  -0.0076946
-0.25682    0.086824   -0.038551    0.047847      3.1533        0.22  -0.0083442
-0.31464    0.026085   -0.050569    0.023487      2.2413  -0.0050961 -0.00087364
-0.32698   -0.020687   -0.058689    -0.04862     0.16023    -0.27274  -0.0024977
-0.29872   -0.042124   -0.067459    -0.16198     -2.5094    -0.56312   -0.018413
-0.23701   -0.039201   -0.079152    -0.29288     -4.9136    -0.85447   -0.048296
-0.14281    -0.01614   -0.094418    -0.41111     -4.9682     -1.1458   -0.085973
-0.020362    0.013743    -0.10903    -0.48711     -4.9685     -1.4213      -0.123
0.10696    0.033881    -0.12138     -0.5014     -4.9685     -1.6389    -0.15288
0.2083    0.036154    -0.12527    -0.45268     -4.9682     -1.7396    -0.16815
0.24955    0.016666    -0.11813    -0.35751     -3.2044     -1.6827    -0.16847
0.2174   -0.020687    -0.10124    -0.24026     -1.4726     -1.4576    -0.15483
0.12645   -0.062262   -0.077203    -0.11878   -0.034329     -1.0874     -0.1321
0.0088706   -0.092469   -0.047321  -0.0060706     0.93165     -0.6375    -0.10351
-0.090521   -0.097991   -0.013866    0.089098      1.4445    -0.19868   -0.070382
-0.14574   -0.079477    0.017965     0.16153      1.7404     0.15698   -0.036602
-0.14834   -0.044398    0.042975     0.21285      2.1058     0.40026  -0.0011985
-0.11196  -0.0041217     0.06019     0.24825      2.6083     0.54091    0.034855
-0.059664    0.031607     0.06831     0.26839      3.0474     0.60327    0.073182
-0.011267    0.050446    0.068635     0.27261      3.1332     0.60619    0.099817
0.029333    0.045574    0.061165     0.25637      2.7561     0.56072     0.10599
0.059865    0.019589    0.046873     0.21577      2.1045     0.47529    0.095594
0.075456    -0.01614    0.027709     0.15926       1.437     0.35804    0.079029
0.06831   -0.052193   0.0095202    0.094295     0.78484        0.22    0.061814
0.036154   -0.072656  -0.0047713    0.036804     0.05142    0.074157    0.039727
-0.008669    -0.06551   -0.010943  -0.0018481    -0.77879   -0.065835   0.0010752
-0.043423    -0.03173  -0.0099683   -0.017439     -1.6551    -0.18991   -0.056741
-0.055441    0.012119  -0.0028225    -0.01549     -2.5366    -0.28053    -0.12073
-0.046671    0.045574   0.0075714  -0.0031473     -3.3269    -0.32146     -0.1636
-0.027833    0.049796     0.01894    0.015367      -3.832    -0.31301    -0.17042
-0.010293    0.025436    0.029658    0.040377     -3.8167    -0.27923    -0.14314
-0.00022403   -0.007045    0.042975    0.073832     -3.2415    -0.26072   -0.096692
0.0078962   -0.026209    0.057267     0.11021     -2.2891    -0.28638   -0.040175
0.021863   -0.018088    0.075456     0.14334      -1.137    -0.35426   0.0095202
0.048822    0.012768    0.094945     0.16998      0.1219    -0.43189    0.046223
0.0852    0.056292     0.11021     0.18687      1.3094    -0.48224    0.066362
0.12613    0.097543     0.11931     0.19271      2.1549    -0.48516    0.082927
0.16998      0.1232     0.12548     0.19174      2.4631    -0.43644     0.10794
0.21935     0.13457     0.13327     0.18979      2.2838    -0.34874     0.15341
0.26222     0.13197     0.13879     0.19044      1.9379     -0.2552     0.21577
0.27261     0.11476      0.1362     0.19823      1.7323    -0.18991     0.27261
0.22714    0.090072      0.1258     0.21025       1.719    -0.16523     0.30055
0.1219    0.063438     0.11313     0.21382      1.7291     -0.1636      0.2908
-0.027833    0.039078    0.099492     0.19466      1.6063    -0.16133     0.25345
-0.18569    0.022837    0.087149     0.15406      1.3019    -0.13242     0.21382
-0.30749    0.023487    0.080003     0.10631     0.82576   -0.055766     0.19434
-0.35556    0.042975     0.07773    0.065387     0.14789    0.063438     0.20246
-0.31756    0.076431     0.07773    0.038428    -0.67485     0.20538     0.23494
-0.20485     0.11216    0.075781    0.025436     -1.4291     0.34635     0.27879
-0.047646     0.14009    0.073182    0.016341     -1.8065      0.4584     0.31874
0.11703     0.15471    0.069285   0.0017248     -1.5586     0.52531      0.3353
0.24825     0.15114    0.059216   -0.023285    -0.69596     0.55195     0.31711
0.31354     0.13132    0.041351   -0.053817     0.52207     0.56007     0.26222
0.30899     0.10501    0.019264   -0.078503       1.768     0.56559     0.17907
0.25475    0.077405  -0.0034721   -0.093769      2.8185     0.56494    0.081952
0.18622     0.05272   -0.025234    -0.10384      3.5262     0.55162    -0.01484
0.12255    0.031282   -0.049595    -0.11553      3.8471     0.52889   -0.099615
0.069285   0.0059473   -0.076879    -0.14152      3.7961     0.51719    -0.16653
0.020888   -0.024909    -0.10579    -0.18764      3.2894     0.53701     -0.2133
-0.03303   -0.059339    -0.13015    -0.24773      2.2315      0.5893    -0.23896
-0.10579    -0.09117    -0.14444    -0.30392     0.64907     0.65361    -0.24091
-0.18959    -0.11196    -0.14411    -0.33835     -1.3859     0.68772    -0.22337
-0.26592    -0.11358    -0.13047    -0.34127      -3.604     0.66108    -0.19576
-0.31139   -0.091495    -0.10611    -0.31074     -4.9685     0.57176    -0.16912
-0.31236   -0.053168   -0.077528    -0.25162     -4.9688     0.44411    -0.14281
-0.27534   -0.011917   -0.048296    -0.17789     -4.9685     0.31094    -0.11391
-0.21882    0.023487    -0.02361    -0.10091     -4.3971     0.19011   -0.081751
-0.15646    0.049472  -0.0044465   -0.031081     -2.1248    0.092671   -0.049595
-0.094093    0.064413     0.01017    0.024786     0.15926    0.012768   -0.017439
-0.038551    0.068635    0.021863    0.065712       1.793   -0.061613    0.017965
0.0072465    0.065712    0.033881    0.093645      2.5274    -0.13697    0.055318
0.037454    0.065712    0.049472     0.11443      2.4771    -0.21557    0.087474
0.054993    0.072208    0.063438      0.1323      1.9428    -0.29742     0.10566
0.060515    0.086175    0.073182     0.14724       1.261    -0.37733     0.10696
0.063438     0.10404    0.080653     0.16348     0.64907    -0.45171    0.096893
0.068635     0.11995      0.0852     0.17874     0.19109    -0.52609    0.088448
0.078704     0.12645    0.089098     0.18654    -0.10221    -0.60144    0.090722
0.0865     0.12223    0.090722     0.18232    -0.22109     -0.6781    0.095269
0.08585     0.10664    0.091047     0.16803   -0.088247    -0.74631    0.093321
0.079679    0.084226    0.090072     0.14724     0.37006    -0.79145    0.079029
0.077405    0.057267    0.091047     0.12872      1.0564    -0.79243    0.055318
0.090397    0.031607     0.09462     0.12288      1.7151    -0.72422    0.035505
0.1232    0.013418    0.097218     0.13555      2.0984    -0.57936    0.029333
0.17355   0.0059473    0.099167      0.1625      2.0935    -0.37473     0.03583
0.23234   0.0049729     0.10112     0.19466      1.7771    -0.14704    0.045899
0.28333   0.0059473     0.10664     0.22357      1.3532    0.068635     0.05272
0.30997    0.008221     0.11768      0.2515      1.0002     0.24436    0.054344
0.30477    0.013743     0.13717     0.27976     0.76665     0.37201    0.054668
0.26839    0.022837     0.16121     0.30672     0.60814     0.45126    0.057917
0.21025    0.034206     0.18459     0.32653     0.45288     0.48569    0.066686
0.14237    0.049147     0.20083     0.32881     0.25345     0.48082    0.079029
0.078055    0.064737     0.19856     0.30932   0.0088706     0.43112    0.087799
0.025436    0.073507     0.17777     0.26774    -0.25065     0.32328    0.084876
-0.0047713    0.074806     0.14269       0.207     -0.5472     0.14074    0.066037
-0.0034721    0.070909     0.10079     0.13522    -0.88532    -0.11033    0.037454
0.029009    0.072533    0.059216    0.066037     -1.1429    -0.39162    0.012119
0.075456    0.081627    0.026085    0.008221      -1.153    -0.64009  -0.0034721
0.10696    0.091047   0.0026992   -0.028807     -0.8915    -0.80022  -0.0096434
0.10242    0.089423   -0.012892   -0.046022    -0.49393    -0.83725  -0.0057458
0.061165    0.074157   -0.028482   -0.046671     -0.1636    -0.75962   0.0062721
-0.0021729     0.05142   -0.046022   -0.043099   -0.051868    -0.61314    0.020239
