-0.035303   0.0020496    0.032582  -0.0083442     0.11801    0.023812  -0.0011985
-0.039851  -0.0031473    0.032906   -0.015165     0.14237     0.01829   -0.015815
-0.036602  -0.0099683    0.037778   -0.012567     0.15309    0.011794   -0.024585
-0.028157   -0.015815    0.042001  -0.0050961     0.15893   0.0065969   -0.023285
-0.019388   -0.019063     0.04395  0.00010078     0.15958   0.0017248   -0.012242
-0.014516   -0.018088    0.042651   0.0039985     0.15341  -0.0034721   0.0023744
-0.012242   -0.012242    0.042326    0.012119     0.14139  -0.0054209    0.014392
-0.0067202  0.00042559    0.042326    0.024786     0.12775  -0.0011985    0.020239
0.0039985    0.015042     0.04395    0.037778     0.11216   0.0065969    0.025111
0.01829    0.029658    0.044924    0.044275    0.096244    0.015367    0.032257
0.031282    0.040377      0.0433    0.041027    0.084876    0.021538    0.039727
0.034855    0.051096     0.04395    0.030308    0.076106    0.022837    0.042975
0.02706    0.058241    0.046223    0.014717    0.066037    0.021538    0.039402
0.01017    0.060515    0.044275 -0.00054884    0.056292    0.017965    0.028034
-0.0076946    0.055318    0.033881   -0.010943    0.048172    0.013093    0.012443
-0.017764    0.044924    0.017965   -0.012567    0.041027   0.0085458  0.00010078
-0.015165    0.034206   0.0062721  -0.0089938    0.038753   0.0052977  -0.0063954
-0.0054209    0.026735      0.0014  -0.0024977    0.042326   0.0065969   -0.011267
0.0069217    0.025436   0.0026992      0.0014    0.048822    0.010819   -0.016789
0.01894    0.027385    0.011144   0.0056225    0.053694    0.015042   -0.021337
0.02641    0.030308    0.021863    0.013093    0.054019     0.01764   -0.024909
0.025111    0.033556     0.02706     0.01764    0.045574    0.014717   -0.025234
0.016666    0.037129    0.028359    0.016991    0.032582   0.0085458   -0.022636
0.0056225    0.037129    0.028359    0.016341    0.021213   0.0033489   -0.019063
-0.0057458    0.034855    0.032906    0.017316     0.01894   0.0036737   -0.016789
-0.0093186    0.028359    0.038103     0.01764    0.022837   0.0072465   -0.020037
-0.0018481    0.020239    0.039402    0.017316    0.027385    0.011469    -0.02361
0.0075714    0.012768    0.040052    0.015367    0.031932     0.01017   -0.023285
0.011144   0.0088706    0.040377    0.011144    0.036154   0.0033489   -0.016464
0.0091954   0.0062721    0.037454   0.0075714    0.040702  -0.0047713  -0.0031473
0.0036737   0.0075714    0.028684   0.0059473    0.048497  -0.0063954    0.013743
-0.0044465    0.013093    0.015042    0.008221    0.061165  -0.0028225    0.025111
-0.010618    0.020239   0.0046481    0.012119    0.074482   0.0023744    0.027385
-0.0096434    0.025111  0.00075039    0.015367    0.083251   0.0059473    0.019914
-0.00022403    0.026735   0.0056225    0.016991    0.086175   0.0075714    0.010495
0.011794    0.026735    0.017316    0.016991     0.08585   0.0026992    0.003024
0.020888    0.025111    0.030633    0.015367    0.083576  -0.0050961  0.00075039
0.026735    0.023812     0.03583    0.013743    0.083251   -0.010943   0.0043233
0.028359    0.019264    0.031932    0.009845    0.080003   -0.012892   0.0091954
0.020564   0.0065969     0.01764   0.0020496    0.070909   -0.012567   0.0049729
0.0043233   -0.013216  -0.0028225   -0.012242    0.054668   -0.011917   -0.007045
-0.01484   -0.034978   -0.021012   -0.027183    0.039727   -0.012242   -0.021661
-0.033354   -0.051868   -0.031406   -0.034329    0.031282   -0.011917    -0.03303
-0.045697   -0.058365   -0.027508   -0.034978     0.02641   -0.011267   -0.037902
-0.047971   -0.053168   -0.010618   -0.030756    0.021538   -0.010618   -0.035953
-0.042774   -0.041475    0.014392   -0.021337    0.016016   -0.008669   -0.030431
-0.033354   -0.026858    0.041351  -0.0057458    0.013418 -0.00087364   -0.018738
-0.020037   -0.012892    0.066362    0.017965     0.01829    0.011794  -0.0015233
-0.0037969  0.00042559    0.084551    0.047198    0.029983    0.024786    0.016341
0.013093   0.0091954     0.09462    0.073507    0.040702    0.034206     0.02641
0.030957    0.014717    0.098517    0.089098    0.045899    0.037129    0.029333
0.041351    0.021863    0.095269    0.087799    0.046223    0.034206    0.029658
0.042651    0.029333    0.084226    0.075131    0.044924    0.024461    0.029983
0.036804    0.037129    0.064088    0.061165    0.045574    0.014392    0.032582
0.031282    0.039078    0.039727    0.050771    0.046873    0.009845    0.035505
0.033881     0.03518    0.014068    0.049147    0.047523    0.014717    0.034855
0.040702    0.025761  -0.0093186    0.055968    0.046223    0.024137    0.032582
0.046873    0.015692   -0.032055    0.064737    0.046223    0.031282    0.029333
0.047847   0.0078962   -0.056091    0.069285    0.047847    0.030308    0.024786
0.046548   0.0043233     -0.0824    0.068635    0.050446    0.020888    0.021538
0.046223   0.0043233    -0.10611    0.063113    0.051745    0.011469     0.01894
0.047198   0.0091954    -0.11488    0.055968    0.046548   0.0059473     0.01894
0.047847    0.017316    -0.10384    0.050771    0.032582   0.0078962    0.022188
0.047847    0.025436   -0.077203    0.053044    0.012119    0.012119    0.026735
0.047198    0.030957   -0.042774    0.063438  -0.0060706    0.013743    0.028359
0.048497    0.029658  -0.0099683    0.078055    -0.01549    0.010495    0.023162
0.048822    0.022188    0.020564    0.087149   -0.015165   0.0039985    0.016666
0.044275    0.012768      0.0433      0.0865  -0.0080194  -0.0028225    0.014717
0.036154   0.0039985    0.054668    0.079029   0.0049729  -0.0073698    0.018615
0.030957 -0.00022403    0.054993    0.067336     0.01764  -0.0073698    0.024786
0.032582  0.00075039    0.045899    0.057267    0.025761 -0.00087364    0.030633
0.038428   0.0017248    0.029009     0.05272     0.02706    0.010495    0.032257
0.043625   0.0036737   0.0091954    0.049472    0.024461    0.025436    0.031282
0.045574   0.0065969  -0.0076946    0.046873    0.020239    0.037454    0.029009
0.041676    0.011469   -0.021337    0.043625    0.017316     0.04395    0.028684
0.036154    0.014717   -0.033354    0.039727     0.01894    0.040052    0.033881
0.033231     0.01894   -0.043423    0.037129    0.021538    0.025111    0.040702
0.032906    0.023487    -0.04992    0.037129    0.020888   0.0049729    0.047523
0.032582    0.022512    -0.04992    0.038753    0.012443   -0.010943     0.05142
0.024786    0.010819   -0.044073    0.037454  -0.0067202   -0.019063    0.050121
0.01017   -0.010618   -0.033354    0.028359   -0.030431   -0.021012    0.041676
-0.0073698   -0.034654   -0.028157    0.012443   -0.055441   -0.021337    0.029658
-0.019063   -0.052193    -0.03173  -0.0047713   -0.076229   -0.023935    0.017316
-0.021012   -0.057065   -0.039201   -0.020362   -0.093119   -0.028807   0.0065969
-0.017439   -0.049595   -0.045047   -0.034329    -0.10968   -0.037577  -0.0011985
-0.011267   -0.036278   -0.046671   -0.047321    -0.12235   -0.046022   -0.007045
-0.0047713   -0.023935   -0.041799   -0.054142    -0.12592   -0.051219   -0.010943
0.0017248   -0.012242   -0.029782    -0.04862    -0.11813   -0.053492   -0.008669
0.0065969  -0.0011985   -0.015165   -0.034654    -0.10254   -0.051219   0.0020496
0.0078962   0.0095202  -0.0063954   -0.020037   -0.084999   -0.046996    0.014392
0.0039985    0.016991  -0.0050961   -0.010293   -0.069733   -0.042774    0.023812
-0.0024977    0.019264  -0.0089938  -0.0099683   -0.059664   -0.039201     0.02641
-0.010618    0.015042   -0.011267   -0.015815   -0.055766   -0.036278    0.023812
-0.017114   0.0085458  -0.0076946   -0.022636   -0.053168   -0.034978    0.016991
-0.020362   0.0059473 -0.00022403   -0.026209   -0.047321    -0.03303    0.010819
-0.022636   0.0065969   0.0075714   -0.023285   -0.034654    -0.03173    0.010495
-0.022311    0.013418    0.013093   -0.014191   -0.018088   -0.032055    0.016341
-0.017764    0.023487    0.011794  -0.0067202  -0.0063954   -0.034978    0.027709
-0.0073698     0.03453   0.0075714  -0.0067202  0.00010078   -0.039851    0.039078
0.008221    0.044924   0.0033489  -0.0099683   0.0026992   -0.042774      0.0433
0.020888    0.049147      0.0014   -0.012567    0.003024   -0.039851    0.036154
0.025436    0.046223  0.00042559  -0.0093186   0.0033489   -0.030106    0.026085
0.020239    0.036154 -0.00054884 -0.00087364   0.0023744   -0.017439    0.020564
0.0088706    0.024461  -0.0044465   0.0069217  -0.0015233  -0.0067202    0.022837
-0.0067202    0.015692   -0.010618    0.011794  -0.0093186  -0.0011985    0.029983
-0.018413    0.011794   -0.016789    0.011469   -0.019712  -0.0028225    0.034855
-0.02361   0.0095202   -0.021337    0.010495   -0.027833  -0.0083442    0.037454
-0.022311   0.0088706   -0.025559   0.0078962    -0.03303  -0.0089938    0.037778
-0.015815    0.012119    -0.03173   0.0023744   -0.037252  -0.0041217    0.033231
-0.0073698    0.014068   -0.039201  -0.0028225   -0.045372   0.0059473    0.024137
0.00075039    0.012768    -0.04862  -0.0067202   -0.057065    0.017316    0.013743
0.0059473    0.011144   -0.056091  -0.0057458   -0.065835    0.023812   0.0039985
0.011144    0.010495    -0.05804  -0.0031473   -0.073306    0.023162  -0.0041217
0.016016     0.01017   -0.052843  -0.0047713   -0.077528    0.016991  -0.0057458
0.015692   0.0088706   -0.041799   -0.010293   -0.076554   0.0091954  -0.0021729
0.011144   0.0085458   -0.027833   -0.016464   -0.071682   0.0017248   0.0023744
0.0049729    0.009845   -0.019712   -0.016464   -0.059014  -0.0044465   0.0065969
-0.0024977    0.014068   -0.021661  -0.0083442   -0.040175   -0.007045   0.0095202
-0.0080194    0.016016   -0.032055  -0.0011985   -0.022961  -0.0063954    0.009845
-0.013216    0.008221   -0.039201 -0.00087364   -0.011592  -0.0063954   0.0049729
-0.018413   -0.010618   -0.033354  -0.0083442  -0.0093186  -0.0080194  -0.0041217
-0.025884   -0.030756   -0.010943   -0.021661   -0.012567   -0.008669   -0.012242
-0.034978   -0.045697    0.021213   -0.033354   -0.016789   -0.010943   -0.018413
-0.039851   -0.048296    0.048172   -0.035303   -0.021337   -0.013541   -0.020362
-0.033679   -0.041475    0.055318   -0.029132    -0.03173    -0.01484   -0.018088
-0.020037   -0.029457    0.041027   -0.020362   -0.045372   -0.015165   -0.013541
-0.0054209   -0.013216    0.013418   -0.012242   -0.055116   -0.017114  -0.0054209
0.008221   0.0056225    -0.01614  -0.0018481    -0.05804   -0.015165   0.0026992
0.017316    0.022512   -0.038551    0.011794   -0.050244  -0.0063954    0.010819
0.024786    0.033231   -0.049595     0.01894   -0.033354   0.0078962    0.013743
0.027385    0.036804   -0.051868    0.016341    -0.01484    0.022837    0.011144
0.028034     0.03583   -0.045047   0.0075714  0.00042559     0.03518   0.0062721
0.024461    0.031932   -0.033354  -0.0037969    0.011469    0.041676 -0.00054884
0.019589    0.024137   -0.016789   -0.012892    0.019914    0.042975  -0.0089938
0.019914    0.014068   0.0017248   -0.014516    0.026085    0.039727   -0.017439
0.028359   0.0026992     0.01894   -0.007045    0.029983    0.034855    -0.02361
0.037778  -0.0050961    0.034855   0.0069217    0.032257    0.028684   -0.025559
0.044924  -0.0057458    0.044599    0.019264    0.031282    0.025436   -0.024585
0.047523 -0.00022403    0.044275    0.028684    0.025761    0.028684   -0.021012
0.040377    0.009845    0.032257    0.034206     0.01894    0.032257   -0.012567
0.026735    0.025436    0.021538    0.041676    0.015367    0.030957  -0.0037969
0.0085458    0.041676    0.022837     0.05272    0.014068    0.021863  0.00075039
-0.0057458    0.053694    0.036479    0.066037    0.016016    0.009845 -0.00022403
-0.010618    0.058241    0.053694    0.074806    0.020888      0.0014 -0.00087364
-0.0060706    0.054668    0.075456    0.077405    0.028359   0.0017248   0.0036737
0.00075039    0.049147     0.10761    0.073832    0.038428   0.0078962   0.0091954
0.0069217    0.044924     0.15633    0.064737    0.047847    0.013093    0.011794
0.015367    0.046548     0.22194    0.056617    0.054019    0.016016   0.0091954
0.024461    0.049796      0.3025    0.052395    0.060515    0.016016   0.0059473
0.028359    0.053369     0.41423    0.050121    0.066686    0.015367  0.00042559
0.024137    0.055318     0.60392    0.046548    0.070259    0.016016  -0.0060706
0.014717    0.053694      0.8891    0.040702    0.064737    0.015042   -0.011592
0.0069217    0.042975      1.1512    0.031607    0.050446   0.0078962   -0.018413
0.00075039    0.019589      1.1597    0.020239    0.031932  -0.0044465   -0.021661
-0.0041217    -0.01549     0.78971     0.01017    0.015367   -0.013866    -0.01614
-0.007045   -0.052843     0.13522   0.0036737   0.0056225   -0.015165  -0.0041217
-0.011592   -0.080776    -0.55857   0.0039985   0.0039985  -0.0096434    0.010495
-0.012242   -0.089546     -1.0614    0.010495   0.0059473  0.00010078    0.022188
-0.0060706   -0.081751     -1.2774     0.01894   0.0056225    0.010819    0.026085
0.0026992   -0.067784     -1.2296     0.02641 -0.00087364    0.017965    0.021863
0.0052977   -0.056091     -1.0182    0.030633   -0.014191     0.01829    0.014392
0.0033489   -0.047646    -0.75118    0.028034   -0.029782    0.013093   0.0036737
-0.00054884   -0.042449    -0.50822    0.017316   -0.047321   0.0039985  -0.0047713
-0.0034721   -0.036278    -0.32828   0.0010752    -0.06551  -0.0037969   -0.010293
-0.0024977   -0.030431    -0.21817    -0.01549   -0.085324  -0.0063954  -0.0089938
0.003024    -0.02426     -0.1636   -0.021661    -0.10384 -0.00054884  -0.0011985
0.011794   -0.017439    -0.13599  -0.0099683    -0.11358    0.011794    0.012768
0.021213   -0.007045    -0.11163    0.016016    -0.10644    0.026085    0.029658
0.030308   0.0095202   -0.080776    0.046873   -0.083375    0.036479    0.045574
0.036804    0.029009   -0.045372    0.074157   -0.052193    0.042975    0.056617
0.036479    0.043625   -0.012892    0.090722   -0.026533    0.049147    0.057917
0.031282    0.046223    0.016991    0.094295   -0.014191    0.053044    0.051096
0.023487    0.042001    0.045574    0.090397   -0.013216    0.054668     0.04395
0.016991    0.037129    0.073507    0.084226   -0.017764    0.054668    0.039402
0.013418    0.036154     0.10177    0.074157   -0.016464    0.053694     0.03583
0.019589    0.040377      0.1284    0.064737  -0.0057458    0.051096    0.034206
0.031282    0.044924     0.14984    0.054019    0.008221    0.045574    0.036804
0.040052    0.045249     0.16608    0.042651    0.018615    0.036479    0.041027
0.0433     0.04395     0.17712    0.028684    0.025436    0.022188    0.043625
0.042975    0.041676     0.18459    0.014068    0.029333   0.0036737    0.042975
0.040052    0.039402     0.18719    0.003024    0.036154   -0.014191    0.037778
0.032906    0.038103     0.18849  -0.0067202    0.050446   -0.027833    0.031282
0.025111    0.036804     0.18784   -0.015815     0.06831    -0.03173    0.025761
0.016991    0.033556     0.18232    -0.02426    0.083901   -0.029132    0.021538
0.009845    0.029983      0.1729   -0.034978    0.091372   -0.026858    0.017965
0.0062721    0.029333     0.15991   -0.044723     0.09397   -0.028157    0.015042
0.0056225    0.030633     0.14691   -0.048296    0.098193    -0.03173    0.014392
0.0085458    0.030633     0.12515   -0.042124     0.10631   -0.032705    0.018615
0.013093    0.026085    0.071558   -0.025559     0.11768   -0.026209    0.026085
0.017965    0.020888   -0.029782  -0.0034721      0.1284   -0.010618    0.031607
0.020564     0.01829    -0.16295    0.016666     0.13717   0.0075714    0.029333
0.020564    0.016991    -0.28865    0.029333     0.13977    0.024137    0.021863
0.019589    0.016991    -0.36758    0.027385     0.13392    0.034855    0.015367
0.021213    0.019914    -0.37765    0.014392     0.12223    0.037778     0.01017
0.022837    0.024137    -0.32828  -0.0011985     0.10891    0.033881   0.0088706
0.023487    0.026735    -0.25065  -0.0096434    0.095594    0.024786    0.012443
0.023812    0.027385     -0.1714   -0.008669    0.078704    0.015367    0.020239
0.020888     0.02706    -0.10611  -0.0044465    0.054668   0.0043233    0.026085
0.01017    0.026735    -0.05804  -0.0011985    0.025761  -0.0060706    0.023487
-0.0063954    0.022188    -0.02361  -0.0034721   -0.008669   -0.015815    0.012768
-0.02426    0.016016   0.0033489  -0.0080194   -0.043423   -0.024909 -0.00087364
-0.037902    0.010819    0.023487   -0.011592   -0.070058    -0.03238   -0.013216
-0.042774     0.01017    0.033231   -0.013216    -0.08305   -0.034329   -0.021661
-0.039526    0.014717    0.029983   -0.011267     -0.0824    -0.03303   -0.025559
-0.033354    0.019589    0.011794  -0.0054209   -0.079152    -0.03173   -0.027183
-0.027183    0.023487   -0.022311   0.0017248   -0.079802   -0.028482   -0.029782
-0.020687    0.027385   -0.062587   0.0095202   -0.080776   -0.021986    -0.03303
-0.0093186     0.03583   -0.096367    0.018615   -0.079152   -0.014516   -0.031081
0.0046481    0.046548    -0.11131    0.026735   -0.071357  -0.0063954   -0.023285
0.015042    0.055968   -0.097341    0.029658   -0.055116   0.0017248   -0.011267
0.01764    0.056942   -0.045372    0.024461   -0.038876   0.0088706   0.0017248
0.015692    0.048822    0.054993    0.016341   -0.027833    0.013093    0.016991
0.015042     0.03518     0.20213   0.0088706   -0.022311    0.014068    0.031607
0.017965    0.024137     0.37395   0.0043233   -0.019388    0.012119    0.038753
0.022188    0.026085     0.53441   0.0033489   -0.013541     0.01017    0.038753
0.022837    0.040377     0.64452    0.008221  0.00010078   0.0072465    0.033231
0.022837    0.061489     0.67343    0.016016    0.019264   0.0036737    0.025436
0.028684    0.079679     0.61074    0.026085    0.047198  -0.0011985     0.01829
0.039402    0.090397     0.47594    0.034855     0.07708  -0.0047713    0.012119
0.052395    0.092021     0.30769    0.041027     0.10436  -0.0018481   0.0075714
0.061489    0.085525     0.14789    0.045899     0.12353   0.0078962   0.0069217
0.062464    0.073182    0.024461    0.047198     0.13132    0.020888    0.011469
0.053694    0.060515   -0.054792    0.047847     0.12255    0.033881     0.01894
0.037778    0.050446   -0.093444    0.048497     0.10112    0.041676    0.025111
0.020564    0.042326    -0.10644    0.049796    0.074806    0.043625    0.029658
0.0091954     0.03453    -0.11001    0.051096    0.048497    0.039727    0.029009
0.0062721    0.026085     -0.1191    0.054668    0.027385    0.032906    0.024461
0.0072465    0.019264    -0.13892    0.061165    0.008221    0.023162    0.016666
0.0088706    0.016016    -0.16555    0.067011  -0.0083442     0.01017   0.0085458
0.0085458    0.015042    -0.19511    0.067661   -0.019063  -0.0028225  0.00010078
0.0059473    0.014717    -0.22467    0.059865   -0.026533   -0.013541  -0.0080194
0.0043233    0.011794    -0.24773    0.046873   -0.034654   -0.019063   -0.015165
0.010495    0.012443     -0.2461    0.032257   -0.050244   -0.020362    -0.01484
0.020564     0.01764    -0.17952    0.024461   -0.074605    -0.01484   -0.008669
0.030308    0.023812   0.0026992    0.020888    -0.10221  -0.0076946  -0.0018481
0.032582    0.026085     0.31354    0.018615    -0.12463 -0.00087364   0.0020496
0.023162    0.023487     0.68837     0.01764    -0.13534   0.0026992   0.0023744
0.0052977    0.016991      1.0057    0.023487    -0.13729      0.0014    0.003024
-0.013216   0.0065969        1.16    0.030633    -0.13664  -0.0057458   0.0085458
-0.028157  -0.0054209      1.1044    0.029658    -0.13957   -0.018738    0.016341
-0.035628   -0.017439     0.87448    0.019589    -0.15093    -0.03303    0.022188
-0.037252   -0.024909     0.55942   0.0056225    -0.16977   -0.042449    0.021863
-0.035953   -0.025884     0.25215  -0.0034721    -0.18764   -0.043748    0.016991
-0.035628   -0.021986    0.016341  -0.0080194    -0.19478   -0.040175   0.0075714
-0.031406   -0.014516    -0.12527  -0.0099683    -0.18666    -0.03303 -0.00022403
-0.02361   -0.007045    -0.18439   -0.010293      -0.161   -0.026533  -0.0031473
-0.0089938   0.0020496    -0.18926  -0.0057458    -0.11878   -0.018413   0.0017248
0.011794    0.015042     -0.1688   0.0043233   -0.061613  -0.0044465    0.013418
0.03453    0.030957    -0.14444     0.01829      0.0014    0.013743    0.025436
0.05207    0.045899     -0.1334    0.034855    0.059865    0.026735     0.03518
0.060515    0.054993    -0.14119    0.049796     0.10826    0.028359    0.036154
0.058891    0.058566     -0.1597    0.057917     0.14594    0.020564    0.029983
0.05142    0.056942    -0.18017    0.055968     0.16835    0.011469    0.020564
0.048497    0.049796    -0.19803    0.046548      0.1755   0.0062721     0.01764
0.053369    0.042651     -0.2094    0.036154      0.1677   0.0059473    0.025436
0.057917    0.037129    -0.20972    0.028684     0.15146   0.0075714    0.038428
0.056617     0.03453    -0.19121    0.025436     0.12645   0.0062721    0.048497
0.04395    0.033231    -0.14866    0.029009    0.096244      0.0014    0.048172
0.021863    0.030633   -0.084999    0.038753    0.066037  -0.0060706    0.038428
-0.00054884    0.025111   -0.017114     0.05272    0.042001   -0.011267    0.024461
-0.012567    0.017316    0.031932    0.069934    0.024786   -0.010943    0.013743
-0.0080194    0.010819    0.048497    0.088448    0.014068  -0.0063954   0.0078962
0.0091954   0.0049729    0.030633     0.10144    0.003024  -0.0011985    0.003024
0.027385   0.0036737   -0.011592     0.10177  -0.0096434   0.0023744  0.00042559
0.040377    0.009845   -0.067459    0.087474   -0.020687   0.0059473      0.0014
0.045574    0.019914    -0.11975     0.06896   -0.021661   0.0078962   0.0088706
0.0433    0.028684    -0.15353    0.056617  -0.0083442    0.011144    0.021213
0.032257    0.031932    -0.16685    0.053369    0.012768    0.015042    0.035505
0.016016    0.028034    -0.17302    0.053369    0.031607     0.01829    0.044275
0.0023744    0.019264    -0.18699    0.054019    0.041351    0.018615    0.047847
-0.0021729    0.012768    -0.21102     0.05142    0.044599    0.015692    0.048172
0.0023744    0.014717    -0.23961      0.0433    0.043625    0.013093    0.046223
0.008221    0.023812    -0.26527    0.032257    0.038428    0.013418    0.042975
0.009845    0.032582    -0.28021    0.025111    0.028034    0.014717    0.038753
0.0072465    0.032906    -0.27923    0.024461    0.011794    0.014068    0.031607
0.0039985    0.029658    -0.26462    0.028034  -0.0063954    0.010495    0.019264
0.003024    0.026085    -0.24578    0.029983   -0.022311   0.0033489   0.0026992
0.0010752    0.024461    -0.22986    0.023812   -0.027833  -0.0080194   -0.011267
-0.0031473    0.021538    -0.21655    0.009845   -0.025234   -0.017439   -0.018088
-0.01484    0.012768    -0.20615  -0.0099683   -0.016789   -0.026209   -0.020687
-0.034978  -0.0028225    -0.19836    -0.03238  -0.0057458   -0.030756   -0.026209
-0.058689   -0.021986    -0.19056   -0.056091   0.0069217   -0.031406    -0.03238
-0.080776   -0.036927     -0.1753   -0.076229    0.013743   -0.032055   -0.036927
-0.095068   -0.043423    -0.14541   -0.086623    0.012443   -0.034329   -0.037902
-0.099615   -0.045047   -0.094743   -0.087922  0.00042559   -0.035303   -0.035303
-0.092145   -0.044073   -0.012567   -0.086298   -0.015815    -0.03303   -0.031406
-0.075579   -0.039526     0.10404   -0.078503   -0.027833   -0.023285   -0.022311
-0.057065   -0.033679     0.22877   -0.061288   -0.029132  -0.0093186  -0.0073698
-0.038227   -0.024909     0.32523   -0.034978   -0.019063   0.0023744   0.0085458
-0.021012   -0.014516     0.36291  -0.0050961   -0.008669   0.0065969    0.020888
-0.0076946  -0.0031473     0.33433    0.021213  -0.0063954   0.0052977     0.02641
0.00075039   0.0075714     0.25702    0.036804   -0.012892   0.0052977    0.027385
0.0046481    0.016341     0.15796    0.038428   -0.020037     0.01017    0.028359
0.0075714    0.020239    0.064737    0.029009   -0.020362     0.01894    0.030633
0.0088706    0.019914  -0.0050961    0.014392  -0.0080194    0.026735     0.03453
0.0095202    0.015367   -0.050894   0.0023744    0.013743    0.029658    0.036804
0.0095202    0.011794   -0.074605  -0.0044465    0.034206    0.026085    0.034855
0.0078962   0.0091954   -0.079477  -0.0034721    0.046223    0.019264    0.028684
0.0069217    0.012443    -0.07428   0.0039985    0.047523    0.014392    0.022837
0.0059473    0.021213   -0.067134    0.015367    0.040377    0.013093    0.020239
0.0049729    0.034206   -0.056091    0.027385    0.028359    0.015692    0.020239
0.0049729    0.048822   -0.030431    0.036154    0.011469    0.017965    0.019914
0.0069217    0.059865    0.025436    0.037454  -0.0083442    0.018615     0.01829
0.012768    0.067661     0.11866    0.029333   -0.025884     0.01764    0.016991
0.01894    0.069285     0.24143    0.016666   -0.033354    0.014392    0.014717
0.02641    0.067336     0.38467   0.0088706   -0.028157    0.011469    0.014717
0.030633     0.06019     0.53116    0.009845   -0.012892   0.0091954    0.016016
0.029658    0.050771     0.65491    0.016016    0.008221    0.008221    0.015042
0.022512    0.039727     0.69129    0.021538    0.027709     0.01017   0.0091954
0.014717    0.021213     0.53896    0.023162    0.039078    0.015692   0.0017248
0.0056225   -0.011592     0.16088    0.024137    0.039727    0.023812  -0.0050961
-0.00054884   -0.050894    -0.32601    0.022837    0.029658    0.031282   -0.008669
-0.0044465   -0.087597    -0.73851    0.021538    0.013093     0.03518  -0.0076946
-0.007045    -0.11066    -0.95029    0.021863  -0.0041217    0.030633  -0.0044465
-0.0060706    -0.11586    -0.94346    0.023487    -0.01549     0.01764  -0.0031473
-0.00022403    -0.10514    -0.78983    0.024137   -0.020362   0.0017248  -0.0011985
0.01017   -0.084999    -0.58878    0.022188   -0.018413   -0.010618   0.0010752
0.024137   -0.061937    -0.41533    0.017965   -0.010293   -0.012567   0.0043233
0.037454   -0.040825     -0.2984    0.011794  0.00075039  -0.0050961   0.0036737
0.037778   -0.029457    -0.23149    0.003024    0.011794   0.0036737  -0.0044465
0.022837   -0.029782    -0.19868  -0.0067202    0.017316    0.012119   -0.014516
0.0010752   -0.035303    -0.17757   -0.015165    0.011144    0.021213   -0.021012
-0.014516   -0.040175    -0.15288   -0.020687  -0.0028225    0.028684   -0.021661
-0.017764   -0.038551    -0.11845   -0.021012   -0.011917    0.031607   -0.016464
-0.010618   -0.030756   -0.071357   -0.019063   -0.012567    0.028684  -0.0063954
0.0020496   -0.020362   -0.020037    -0.01549  -0.0067202    0.021538   0.0062721
0.016991  -0.0073698     0.02641   -0.010618    0.003024     0.01764     0.01894
0.035505   0.0075714    0.060515  -0.0034721    0.015042    0.019914    0.029009
0.051745    0.023812    0.083251   0.0065969    0.023487    0.027385    0.036479
0.062139    0.037129    0.096569     0.01764    0.028359    0.034855    0.040052
0.064413    0.046223     0.10144    0.028684    0.027385    0.039078    0.039078
0.059216    0.049147     0.10144    0.037778    0.028359    0.033556    0.037454
0.048822    0.046223    0.095594    0.042651    0.036154     0.01829    0.039727
0.036479    0.039402    0.086175    0.039402    0.051096  -0.0011985    0.044924
0.027385    0.034206    0.076431    0.030308    0.064737   -0.017439    0.046548
0.022188    0.034206     0.06831    0.022512     0.06896   -0.026209    0.042651
0.021863    0.039727    0.062139    0.019589    0.060515   -0.028482    0.033556
0.025111    0.047523    0.059541     0.01764    0.043625   -0.023935    0.022188
0.028684    0.053694    0.058241    0.012443    0.025436   -0.015165    0.016016
0.030308     0.06019    0.057917   0.0052977   0.0088706  -0.0037969    0.017316
0.028359    0.065062    0.058241  -0.0021729  -0.0057458   0.0033489    0.020888
0.02641    0.067011    0.063113  -0.0076946    -0.01484   0.0065969    0.027709
0.025436    0.064413    0.070909  -0.0096434   -0.016464   0.0069217    0.033556
0.02706    0.058566    0.081303  -0.0063954   -0.013216   0.0039985    0.036479
0.028034    0.050121    0.088448  -0.0028225  -0.0067202  -0.0021729    0.036479
0.025436    0.042975    0.093645   0.0017248      0.0014  -0.0057458    0.040377
0.019264    0.037778    0.098193    0.003024   0.0085458  -0.0031473    0.049796
0.012443    0.035505     0.10404   0.0039985    0.012119   0.0069217    0.061814
0.0062721    0.037129     0.11898   0.0078962   0.0091954    0.018615    0.068635
0.0043233    0.041027     0.14529    0.014717 -0.00054884    0.028684    0.070909
0.0059473    0.044275     0.18199     0.02641   -0.014516    0.032257     0.06896
0.008221    0.044275     0.22097    0.037129   -0.026858    0.027385    0.063763
0.01017      0.0433      0.2541      0.0433    -0.03303    0.016341     0.06084
0.010819    0.042975     0.27911    0.040377   -0.035628   0.0039985    0.058891
0.010819      0.0433     0.29243     0.03453   -0.035303  -0.0047713    0.054993
0.012119    0.046223     0.29438    0.030957   -0.036602   -0.010943    0.049147
0.015692    0.050121     0.28918    0.033231   -0.037902   -0.013541    0.042326
0.023162    0.053694     0.28073    0.037129   -0.039201   -0.012242    0.033231
0.030633     0.05272     0.26612    0.040702   -0.040175  -0.0073698    0.024461
0.031282    0.042326      0.2476    0.038428   -0.043748  -0.0041217    0.015042
0.022837    0.024786     0.22812    0.032906    -0.04992  -0.0057458    0.003024
0.0095202   0.0065969     0.21155    0.030308    -0.05804   -0.012567  -0.0073698
-0.0034721  -0.0080194     0.18979     0.03453   -0.061288   -0.022636  -0.0099683
-0.013216   -0.015815     0.14659    0.042001   -0.054792    -0.03303  -0.0047713
-0.017439    -0.01549    0.046548    0.044599   -0.042774   -0.036927    0.003024
-0.012242   -0.011917    -0.13404    0.035505    -0.03173    -0.03303   0.0088706
0.0033489  -0.0031473    -0.36141    0.020239   -0.021337   -0.023285    0.012443
0.025111    0.011794     -0.5472   0.0095202   -0.015165  -0.0083442    0.013743
0.042326    0.025761    -0.61379    0.012443   -0.011917   0.0056225    0.016341
0.049472    0.035505    -0.53421     0.02641  -0.0096434    0.011794    0.020564
0.047198    0.040377    -0.34907     0.04395  -0.0063954    0.012119    0.026085
0.040052    0.041676    -0.13599    0.062139  -0.0024977    0.011144    0.031607
0.030633    0.038428    0.034855    0.075131  -0.0024977   0.0072465    0.034206
0.021538    0.032582     0.12807    0.077405  -0.0096434  -0.0011985    0.033556
0.015367    0.026735     0.14691    0.066037   -0.020362   -0.014191    0.027709
0.012768    0.023812     0.12158     0.04395   -0.025884   -0.024909    0.019589
0.015367     0.02706    0.086175    0.019589   -0.026533   -0.030431    0.012768
0.021213    0.031282    0.065062 -0.00087364    -0.02361   -0.032705   0.0088706
0.026735    0.034206    0.062464    -0.01549   -0.020037   -0.035953   0.0088706
0.028684    0.033556    0.070909   -0.025559   -0.020687   -0.042124   0.0091954
0.029658    0.031607    0.080328   -0.030756   -0.024909   -0.047646   0.0052977
0.029009    0.030633    0.085525   -0.032705   -0.029132   -0.055766  0.00010078
0.02706    0.030633    0.084226   -0.029457   -0.029782   -0.065186  -0.0031473
0.021863    0.033231    0.076755   -0.021661   -0.022961   -0.068109  -0.0057458
0.015367    0.039078     0.06831  -0.0099683  -0.0073698   -0.059989  -0.0093186
0.010819    0.044275    0.062789  0.00042559    0.013418   -0.045372   -0.011592
0.0095202    0.047523    0.060515   0.0072465    0.032906   -0.028482   -0.010293
0.010819    0.046223    0.059216     0.01017    0.045574   -0.013541  -0.0067202
0.010495    0.041676    0.056292    0.010495    0.044275   0.0010752  -0.0067202
0.0078962    0.036804    0.048497   0.0069217    0.032582    0.013743   -0.010293
0.0036737    0.036154     0.03518   0.0020496    0.011794    0.019914    -0.01549
-0.00054884    0.037454    0.020239   0.0023744  -0.0099683    0.017965   -0.020362
-0.0024977    0.037129    0.010495    0.011469   -0.028807   0.0078962   -0.023285
-0.00054884     0.03453   0.0085458    0.020888   -0.039526  -0.0024977    -0.02361
0.008221    0.030308    0.014392    0.021213   -0.043099  -0.0054209   -0.022636
0.019914     0.02641    0.026735   0.0085458     -0.0405  0.00010078   -0.021012
0.032582    0.022512    0.042651   -0.011267   -0.035628   0.0069217   -0.016464
0.042975     0.01894    0.059216   -0.028482    -0.03238    0.012119   -0.008669
0.042975    0.014392    0.074482   -0.039526   -0.030756    0.013093  -0.0021729
0.026735   0.0088706      0.0865   -0.045697   -0.030431   0.0091954  -0.0031473
0.0017248    0.003024    0.096244    -0.04862   -0.028157   0.0010752    -0.01549
-0.019063  -0.0037969    0.094945   -0.045372   -0.025234  -0.0083442   -0.033354
-0.026858   -0.010618    0.064737   -0.036278   -0.019063   -0.012892   -0.048945
-0.021986   -0.014516   -0.016464   -0.025234   -0.011267   -0.010618    -0.05739
-0.011592   -0.014516    -0.12982   -0.014516  -0.0057458  -0.0037969   -0.059014
-0.0011985  -0.0096434    -0.21785  -0.0076946  -0.0031473  0.00075039   -0.057715
0.0072465   0.0049729    -0.23571   0.0010752  -0.0018481   0.0033489    -0.04862
0.015367    0.024137    -0.17887    0.018615   0.0043233   0.0059473    -0.03238
0.023812    0.045899    -0.07493     0.04395    0.018615    0.009845   -0.013541
0.029983    0.065062    0.042651    0.069285    0.041676    0.017316   0.0017248
0.034206    0.075781     0.14496    0.090072    0.067336     0.02641     0.01017
0.036479    0.078055     0.22065    0.097543    0.086824    0.037454    0.011794
0.040702     0.07773     0.26709    0.092671    0.091696    0.047523   0.0069217
0.050446    0.079354     0.30315    0.080328    0.082927     0.05207   0.0017248
0.06084    0.080328     0.36713    0.066037    0.067986    0.049472   0.0033489
0.068635    0.078379     0.52207    0.055318    0.048172    0.041676    0.012443
0.070584    0.066037     0.78613    0.051096    0.028359    0.031932    0.026085
0.063113    0.039402      1.0213    0.049147   0.0091954    0.022837    0.038428
0.050121  -0.0031473      1.0255    0.039727  -0.0057458    0.012119    0.042651
0.031607    -0.05739     0.72475    0.014717    -0.01614   0.0020496    0.036479
0.011144    -0.11423     0.22617   -0.017439   -0.021337  -0.0024977    0.023162
-0.0028225    -0.15451    -0.26332    -0.04115   -0.024585  -0.0015233   0.0095202
-0.0089938     -0.1675    -0.57546   -0.044073   -0.022961   0.0023744   0.0010752
-0.0099683    -0.15288    -0.66153   -0.027183   -0.015165   0.0078962  -0.0021729
-0.0060706    -0.11878    -0.56994  -0.0021729  -0.0018481    0.014068   0.0023744
0.0046481   -0.079477    -0.39064    0.020239    0.012768     0.01829    0.013418
0.019914   -0.043099     -0.2055    0.029658    0.022512    0.021213    0.025436
0.031932   -0.015815   -0.071032    0.023487    0.016666    0.021538    0.032257
0.037129  0.00075039    -0.01549   0.0062721  -0.0057458    0.019264    0.028684
0.037778   0.0091954   -0.045047   -0.011267   -0.033679    0.012119    0.020239
0.031932    0.011794    -0.14899   -0.020687   -0.050244   0.0039985    0.012443
0.022837    0.011144     -0.2867   -0.019388   -0.050894  -0.0024977   0.0075714
0.014717   0.0078962    -0.40623   -0.010618   -0.043748  -0.0047713   0.0091954
0.0065969   0.0043233    -0.46795   0.0036737   -0.034004  -0.0034721    0.013743
-0.0021729   0.0033489    -0.44943    0.021538   -0.026533   0.0010752    0.021538
-0.0096434   0.0056225    -0.34809    0.039078   -0.023285   0.0052977    0.028359
-0.012567    0.013093    -0.19056    0.056942   -0.022961   0.0085458    0.030308
-0.0099683    0.022512   -0.019388    0.073507   -0.021012    0.012119    0.024461
-0.0060706    0.029333     0.12353     0.07773   -0.015815    0.012119    0.009845
-0.0099683    0.028359     0.22032    0.064737   -0.010293   0.0056225  -0.0080194
-0.019388    0.019264     0.27164    0.042651  -0.0041217  -0.0047713   -0.023935
-0.026858   0.0075714     0.29373    0.020888   0.0062721    -0.01484   -0.030431
-0.030756 -0.00022403      0.3012   0.0052977    0.021213   -0.022636   -0.026533
-0.030431  -0.0024977     0.29665  -0.0015233    0.038103   -0.026858    -0.01549
-0.027508  -0.0018481     0.28366   0.0017248    0.053694   -0.026533  -0.0018481
-0.020687 -0.00087364     0.26449    0.011144    0.066362   -0.024909    0.009845
-0.0063954   0.0017248     0.24176    0.025111    0.076755   -0.017439    0.016016
0.014392   0.0078962     0.22162    0.041027    0.082602  -0.0054209     0.01829
0.03453    0.015042     0.20343    0.056942    0.081627   0.0095202    0.023487
0.047198    0.021863     0.17192     0.06896    0.076106    0.021213    0.032906
0.047847    0.027385    0.069285    0.077405     0.06961    0.029658    0.040702
0.042001    0.029009    -0.19998    0.079679    0.067336    0.032906    0.040377
0.03453    0.028359    -0.64302    0.074157    0.066362    0.033231    0.035505
0.031282    0.025111     -1.1247    0.060515    0.064737    0.031932    0.033231
0.031932    0.020239     -1.4472    0.042326    0.060515    0.027709    0.033556
0.039078    0.016341     -1.4674    0.028034    0.058891    0.017965    0.032257
0.044275    0.015042     -1.1887    0.021538    0.059541   0.0056225    0.027385
0.042001    0.016341    -0.74078    0.026735     0.06019  -0.0041217    0.021213
0.029983    0.019589    -0.29353    0.038753    0.055968   -0.008669    0.016666
0.013418    0.023162    0.026085    0.050771    0.047523  -0.0054209    0.015692
0.0014     0.02706     0.17939    0.054019    0.040052      0.0014    0.019589
-0.0024977    0.030308     0.19921    0.051096     0.03518    0.011794    0.028034
-0.0015233    0.032906     0.15179    0.045574    0.028359    0.019589    0.033881
0.00010078    0.032906    0.096244    0.042326    0.022188    0.023487    0.033556
-0.0037969    0.032257    0.067011    0.042975    0.017965     0.02641    0.032906
-0.010618    0.031282    0.072208      0.0433    0.019914    0.029658     0.03518
-0.017764    0.029983    0.097218    0.041676    0.026735    0.033556    0.041027
-0.023285    0.028359     0.13035    0.035505    0.036479    0.037129    0.047847
-0.027508    0.026085     0.15568    0.028684    0.042326    0.042001     0.05272
-0.03173    0.024137     0.16543    0.023162    0.045249    0.044599    0.053694
-0.031081    0.022512     0.16056    0.020888    0.048822    0.044599    0.048172
-0.029132    0.023487     0.14821    0.023812    0.052395    0.044599    0.038103
-0.027833    0.022837     0.13847    0.030633    0.054993    0.045574    0.024461
-0.026533    0.022512     0.13749    0.035505    0.053694    0.048822    0.012768
-0.024909    0.023487     0.14464    0.034855    0.045574    0.050121   0.0078962
-0.024909    0.023812     0.15438    0.027709    0.032906    0.045249   0.0075714
-0.022961    0.021863     0.15828    0.016666    0.020239    0.034206   0.0069217
-0.018088    0.019914     0.15179   0.0056225   0.0075714    0.023162   0.0033489
-0.015165    0.017965     0.13944  -0.0047713  -0.0015233    0.017965  -0.0028225
-0.018088    0.013418     0.12743    -0.01614  -0.0096434    0.014068   -0.008669
-0.031081   0.0062721     0.11898   -0.026209    -0.01614   0.0078962   -0.013541
-0.04862   0.0017248     0.11541   -0.031081   -0.018088   0.0023744   -0.016789
-0.063886   0.0020496     0.11151   -0.029457   -0.017114 -0.00087364   -0.019063
-0.073955   0.0046481     0.10696   -0.023935   -0.012567  0.00075039   -0.020037
-0.081101   0.0056225     0.10242   -0.016464  -0.0096434   0.0020496   -0.019063
-0.083375   0.0056225    0.098517  -0.0089938   -0.008669 -0.00022403    -0.01549
-0.077528    0.011469    0.097868  -0.0024977  -0.0047713  -0.0041217  -0.0050961
-0.064536    0.025436    0.097218    0.003024   0.0043233  -0.0093186    0.016991
-0.044073    0.041027    0.093321   0.0091954    0.013743   -0.012242    0.039402
-0.02361    0.052395    0.079029    0.016666    0.014068   -0.013541    0.050771
-0.0047713    0.055318    0.053369     0.02641  -0.0021729   -0.011592    0.049796
0.0095202    0.052395    0.026085    0.034855   -0.026209  -0.0080194    0.038753
0.019264    0.047523   0.0069217    0.039078   -0.052193  -0.0024977     0.02641
0.024137    0.041027   0.0036737    0.042326   -0.073306   0.0026992    0.016991
0.029658     0.03453     0.01764    0.044599   -0.085324   0.0043233    0.013093
0.033231    0.028684    0.042651    0.047198   -0.084674   0.0059473    0.012768
0.03583    0.024786    0.062464    0.048822   -0.069408   0.0095202    0.016666
0.03518    0.022837    0.061814    0.051745   -0.043748    0.015367    0.024137
0.032257    0.023487    0.035505    0.056617   -0.017439    0.019914    0.029009
0.02641    0.025111   -0.012567     0.06019  0.00042559    0.021863    0.028684
0.019589    0.029009   -0.069083     0.06019   0.0017248    0.016341    0.023487
0.013093    0.031282    -0.12365    0.058566   -0.015815    0.003024    0.019589
0.0085458    0.028034    -0.16523    0.052395   -0.050894   -0.013541     0.01894
0.0069217    0.017965    -0.17919    0.038428   -0.097991   -0.026858     0.01764
0.0085458   0.0020496    -0.14476    0.015042    -0.13892   -0.033354    0.012768
0.012443   -0.017114   -0.045372   -0.014516    -0.15938   -0.034329   0.0039985
0.014392    -0.03303     0.11573   -0.044398     -0.1597   -0.030431  -0.0041217
0.013743   -0.043423     0.30445   -0.068434    -0.14639   -0.028807  -0.0096434
0.013743   -0.046347     0.47367   -0.079802    -0.12852   -0.028807  -0.0080194
0.018615   -0.040175     0.58151   -0.077853    -0.11098   -0.029457  0.00075039
0.029983   -0.031081     0.60359   -0.067134   -0.096367   -0.027508    0.012768
0.046873   -0.024909     0.54545   -0.052518   -0.087272   -0.020037    0.021863
0.061489   -0.022636     0.43664   -0.041475   -0.078503   -0.015165    0.025761
0.065712   -0.022636     0.30997   -0.039851   -0.068109   -0.016464    0.022512
0.059541   -0.021337     0.19271   -0.046347   -0.055766   -0.022636    0.015692
0.049147   -0.017764     0.10306   -0.052518   -0.045047   -0.026533    0.010819
0.044924  -0.0093186    0.045574   -0.052193   -0.037902   -0.021661    0.011794
0.050771      0.0014    0.014717   -0.043748   -0.032055   -0.011592     0.01829
0.06084   0.0095202 -0.00054884    -0.03303   -0.026533  -0.0044465    0.024786
0.064737    0.011469   -0.016464   -0.026858    -0.02361  -0.0083442    0.022188
0.055643   0.0065969   -0.047321   -0.028157   -0.024909    -0.02426    0.008221
0.032257  -0.0031473   -0.097017    -0.03303   -0.025234   -0.046347   -0.010618
0.0046481   -0.010943    -0.15711   -0.038227   -0.023285   -0.063886   -0.024909
-0.019388   -0.013541     -0.2094   -0.038551   -0.018088   -0.069733   -0.030106
-0.030756  -0.0076946    -0.23766    -0.03238   -0.012242   -0.063237   -0.028482
-0.025884      0.0014    -0.23798   -0.018738  -0.0037969   -0.053492   -0.025234
-0.0083442    0.012443    -0.21817   0.0020496   0.0085458   -0.044723   -0.019063
0.015692    0.027385    -0.18959    0.028034    0.025111   -0.036602   -0.007045
0.035505    0.046223     -0.1714    0.054344    0.043625   -0.027508   0.0069217
0.046548    0.064088    -0.18114    0.073832    0.057917   -0.016464     0.01894
0.049472    0.074806    -0.22012    0.080003    0.061489  -0.0037969    0.024137
0.044924    0.079029    -0.28346    0.073832     0.05142   0.0039985    0.023487
0.035505    0.073832    -0.35816     0.06019    0.031932   0.0059473    0.016341
0.027709    0.060515    -0.42247    0.049472    0.011469   0.0049729   0.0088706
0.023812    0.044599    -0.45268    0.047198  -0.0011985   0.0049729    0.003024
0.021213     0.03453    -0.44001    0.048172  -0.0021729   0.0075714  -0.0018481
0.015692    0.032582    -0.39779    0.045574   0.0020496    0.010819  -0.0037969
0.0088706    0.033231    -0.32503    0.036804    0.012443    0.012768  -0.0044465
0.0020496    0.028034    -0.20908    0.022512    0.029009    0.015042  -0.0057458
-0.0018481    0.012443   -0.059989   0.0043233     0.05272    0.019264  -0.0089938
-0.0037969   -0.010293    0.092996   -0.011267    0.082277     0.02641   -0.012242
0.00010078   -0.030756     0.21317   -0.020362     0.11411    0.030957   -0.013216
0.011794   -0.038551     0.26904   -0.020037     0.14042    0.030957   -0.013541
0.029009   -0.026858     0.25832  -0.0093186     0.15763    0.027709   -0.010943
0.044275 -0.00022403     0.23526   0.0078962     0.16185    0.021863  -0.0073698
0.054019    0.031932     0.28853    0.026735     0.15568    0.016341  -0.0024977
0.055643    0.059216     0.47854    0.040702     0.13847    0.017965    0.003024
0.051096    0.072858     0.77282    0.048822     0.11216    0.024137    0.010495
0.042326    0.072533      1.0557    0.048822    0.080978    0.029983    0.017965
0.029983    0.062139      1.2019     0.04395    0.049472    0.030633    0.021863
0.018615    0.051096      1.1535    0.038428    0.019589    0.023812    0.022837
0.010819    0.044924     0.93847    0.035505  -0.0073698    0.011469    0.028684
0.0052977    0.043625     0.64192    0.036479   -0.032705  -0.0021729    0.034855
0.00042559    0.046873     0.35057    0.039402   -0.056091   -0.013216    0.034855
-0.0044465    0.050446      0.1258    0.041676   -0.075579   -0.019712    0.029658
-0.0099683    0.051096   -0.010618    0.045574   -0.093119   -0.021337    0.022512
-0.012567    0.047523   -0.071357    0.051096    -0.10741   -0.020037    0.014717
-0.012892    0.041027   -0.093444    0.055643     -0.1191   -0.017439   0.0085458
-0.013866    0.030633    -0.10611    0.057267    -0.13502   -0.014191   0.0056225
-0.022636    0.018615    -0.13015    0.050121    -0.15938    -0.01484   0.0049729
-0.033679   0.0056225    -0.16912    0.036154    -0.18471   -0.019063   0.0046481
-0.041799  -0.0073698     -0.2159    0.020239    -0.19901   -0.022961   0.0056225
-0.044723   -0.015815     -0.2591    0.008221     -0.2029   -0.026209    0.009845
-0.043099   -0.017114    -0.28638      0.0014    -0.19998   -0.026858    0.015042
-0.036278   -0.013216    -0.29417 -0.00054884    -0.19413   -0.023285    0.019264
-0.026858  -0.0050961    -0.28281 -0.00022403    -0.18374   -0.010943    0.023162
-0.01484   0.0056225    -0.25747   0.0052977    -0.16393     0.01017    0.028684
-0.0021729    0.020564    -0.22791    0.018615     -0.1308    0.036154    0.035505
0.0056225     0.03583    -0.20193    0.034206   -0.084674    0.055968    0.041027
0.0072465    0.044924    -0.18666    0.049796   -0.030106    0.061165    0.046873
0.0059473    0.045574    -0.18179    0.062464    0.028034    0.050771    0.054344
0.0039985    0.039078    -0.18764    0.067661    0.083251    0.032582    0.062139
0.0039985    0.029333    -0.19836    0.063763     0.13002    0.011794    0.064737
0.0049729    0.016991    -0.20583    0.053694     0.16608  -0.0089938    0.057592
0.0085458   0.0049729    -0.21005    0.040702     0.18881    -0.02426    0.043625
0.0095202  -0.0031473     -0.2107    0.033556     0.19888   -0.030106    0.030957
0.0078962  -0.0057458    -0.21102    0.033556     0.19986   -0.025884    0.027385
0.008221  -0.0047713    -0.21102    0.034855     0.19661   -0.017114    0.033556
0.011144  0.00010078    -0.20875    0.036804     0.19401   -0.008669      0.0433
0.015367   0.0059473    -0.20323    0.037454     0.19271  -0.0015233    0.052395
0.018615    0.011144    -0.19738    0.036479     0.19141  0.00075039    0.054993
0.018615    0.013743    -0.19251    0.031932     0.18362 -0.00022403    0.050446
0.012768    0.013418    -0.19089    0.025111      0.1651  0.00075039    0.045899
0.0010752    0.013418    -0.18926    0.016991     0.13587   0.0062721    0.047847
-0.010293    0.014068    -0.18471    0.011144     0.10209    0.014392    0.053369
-0.017114    0.016666    -0.17952    0.011144    0.072208    0.020564    0.055968
-0.017114    0.017965    -0.17659    0.014392    0.046223    0.020564    0.053369
-0.0093186     0.01764    -0.17692    0.013743    0.014392    0.013418    0.046548
0.0020496    0.013743    -0.17659   0.0091954   -0.027508   0.0036737    0.039078
0.0085458   0.0072465    -0.17205   0.0039985   -0.079477  -0.0057458    0.032257
0.01017 -0.00087364    -0.16328   0.0020496    -0.13404   -0.011917    0.027385
0.012768  -0.0067202    -0.14866 -0.00022403    -0.18277    -0.01549    0.025436
0.022188   -0.008669    -0.12722  -0.0021729    -0.21785   -0.017114    0.024461
0.035505  -0.0037969    -0.10254  -0.0076946    -0.23474   -0.018088    0.024461
0.044924   0.0039985   -0.085648   -0.016789    -0.23116   -0.013541    0.026085
0.044599   0.0078962   -0.078827   -0.025884    -0.20875  -0.0054209    0.028034
0.036154   0.0069217   -0.079477   -0.032705    -0.17627   0.0072465    0.029983
0.025761   0.0049729   -0.079477   -0.034654    -0.13794    0.021213    0.029333
0.015692   0.0075714   -0.074605   -0.030431   -0.094418    0.031282    0.024461
0.0059473    0.011469   -0.067459   -0.023285   -0.053168    0.030957    0.014392
-0.0028225    0.010819   -0.059989    -0.01484   -0.016789    0.018615   0.0033489
-0.0076946   0.0075714   -0.056416   -0.007045    0.012119   0.0020496  -0.0080194
-0.0067202  0.00075039   -0.056416  0.00010078    0.034206   -0.013866   -0.016789
-0.00087364  -0.0060706   -0.054792   0.0072465    0.051745   -0.027508   -0.023935
0.0072465   -0.010293   -0.048296    0.011469    0.063438   -0.039201   -0.030756
0.015367  -0.0076946   -0.039526    0.011469    0.067336   -0.049595   -0.036278
0.023812    0.003024   -0.031081   0.0078962    0.063438   -0.051868   -0.037252
0.035505    0.020239   -0.025559   0.0046481    0.056292   -0.042449   -0.030106
0.049147    0.038428   -0.024909  0.00010078    0.048822   -0.029457   -0.016789
0.062464    0.051096   -0.025559  -0.0044465      0.0433   -0.017764 -0.00087364
0.071558    0.055318   -0.023285   -0.010943    0.042326   -0.011267    0.009845
0.072858    0.050446  -0.0089938    -0.01549    0.050121  -0.0083442    0.009845
0.067336    0.044924    0.013093   -0.013541    0.063438  -0.0080194  0.00042559
0.058566    0.040052     0.03453  -0.0057458    0.077405  -0.0057458   -0.010618
0.045574    0.036154    0.050446   0.0072465    0.092346  -0.0011985   -0.019712
0.034855    0.032257    0.059865    0.024461     0.10631   0.0036737   -0.025559
0.029983    0.028684    0.064413    0.042651     0.11638   0.0091954   -0.028482
0.031932    0.024786    0.065712    0.057917     0.12028    0.013743   -0.028482
0.039078    0.021538    0.065062    0.066037     0.11898    0.018615    -0.02426
0.045574    0.016016    0.068635    0.065712     0.11281    0.021863   -0.018738
0.044599   0.0091954    0.075131    0.058566     0.10664    0.025111   -0.012567
0.038103   0.0046481    0.083251     0.05142     0.10014    0.029983  -0.0093186
0.02706   0.0023744    0.089098     0.05207    0.092671    0.036479   -0.011917
0.011469   0.0036737    0.093645    0.059865    0.087799    0.045249   -0.018738
-0.0041217   0.0033489    0.097218    0.069934      0.0865    0.053369   -0.025234
-0.014516  0.00042559    0.099817    0.076431     0.08585    0.058891   -0.027508
-0.018088  -0.0047713    0.099492    0.080978    0.082927    0.060515    -0.02426
-0.015165  -0.0054209    0.094295    0.081303    0.078379    0.058241   -0.016464
-0.0067202  0.00075039    0.081952    0.078704    0.070259    0.054993   -0.011917
0.0010752    0.011144    0.061814    0.073182    0.057917    0.050771   -0.010618
0.009845    0.020564    0.031932    0.062139    0.040702    0.046223   -0.011592
0.016991    0.024786  -0.0054209    0.047198    0.024786     0.04395   -0.012892
0.017965    0.026085   -0.048296    0.032257    0.012768    0.041676   -0.013216
0.015367    0.025761   -0.089221    0.020239   0.0043233    0.037454   -0.011917
0.009845    0.024786    -0.11488    0.010495  -0.0031473    0.031607  -0.0080194
0.0059473    0.023487     -0.1204   0.0049729   -0.011917    0.024786  0.00042559
0.0039985    0.021863    -0.11066   0.0026992   -0.019388    0.020888   0.0085458
0.0039985     0.01764    -0.09117   0.0010752   -0.021337    0.019914    0.009845
0.0014    0.010495   -0.072981  0.00010078   -0.016789     0.01764   0.0026992
-0.0018481  -0.0015233   -0.057065  -0.0047713   -0.010618    0.012119  -0.0099683
-0.0054209    -0.01484   -0.010618    -0.01614  -0.0099683   0.0020496   -0.023285
-0.0063954   -0.025559     0.14139   -0.028482   -0.012242  -0.0099683   -0.033679
-0.0041217   -0.033354      0.4217   -0.037577   -0.013216   -0.018738   -0.041475
-0.00054884   -0.039526     0.73806   -0.039851  -0.0076946    -0.02426   -0.046022
0.003024   -0.047321     0.94594   -0.033679   0.0010752   -0.026858   -0.048296
0.0046481   -0.056091     0.95341   -0.020687   0.0095202   -0.023285   -0.045372
0.0056225   -0.058689     0.78061  0.00042559    0.016341   -0.010943   -0.035628
0.009845   -0.050569     0.52726    0.030308    0.022837   0.0052977   -0.021661
0.014717   -0.034004     0.30022    0.059216    0.026735    0.018615  -0.0063954
0.01894    -0.01614     0.16056    0.079679    0.024461    0.024786   0.0065969
0.021213  -0.0015233     0.11216    0.084876    0.016341    0.024461    0.018615
0.02641   0.0069217     0.11963    0.079029   0.0052977     0.01894    0.029333
0.032906   0.0091954     0.14399    0.063763  -0.0041217    0.008221    0.037129
0.03518    0.011144     0.15958    0.045574   -0.012242  -0.0054209    0.040702
0.032257    0.013743     0.15568    0.029333   -0.018738   -0.015815    0.041027
0.024137    0.019914      0.1336    0.021538   -0.022636   -0.021012    0.038753
0.015692    0.027709     0.10371    0.021863   -0.024585   -0.021986    0.038753
0.0095202    0.032582    0.076755     0.02706   -0.024909   -0.021661      0.0433
0.0078962     0.03583    0.058241    0.031607   -0.021012   -0.021012    0.049796
0.010495    0.036804    0.050121    0.033881   -0.015165   -0.020037    0.054019
0.014717     0.03518    0.050121    0.032582   -0.012892   -0.021661     0.05272
0.015692    0.033231    0.042326    0.028359   -0.019063   -0.022311    0.046548
0.011144     0.03453  -0.0031473    0.026735   -0.034329   -0.020687    0.036804
0.0052977    0.034855    -0.10676    0.030308   -0.051544    -0.01614    0.023812
0.0014    0.033556    -0.25195    0.037129   -0.061288   -0.008669    0.011469
0.0020496    0.029658    -0.39227    0.039727   -0.064211   0.0010752   0.0046481
0.0020496    0.025436    -0.48581    0.034206   -0.059989     0.01017   0.0033489
0.0033489    0.022512    -0.51147    0.022837   -0.050894    0.014717   0.0075714
0.0043233    0.022837    -0.47477    0.013743   -0.040175    0.016666    0.009845
0.0059473    0.025111    -0.39454    0.010495    -0.03303    0.016991   0.0085458
0.0049729    0.029333     -0.2958     0.01017   -0.029782     0.01764    0.003024
-0.00087364    0.032257    -0.20031   0.0072465   -0.028482    0.017316  -0.0031473
-0.0093186    0.032906    -0.12398   0.0020496   -0.026858    0.017316   -0.008669
-0.016464     0.03453   -0.070382   0.0017248    -0.02426    0.014392  -0.0083442
-0.021661    0.036479   -0.041799   0.0052977   -0.023285   0.0095202  -0.0031473
-0.024909    0.037454   -0.032705   0.0095202   -0.022311   0.0049729   0.0033489
-0.024909     0.03518   -0.036602    0.011144   -0.014191   0.0049729   0.0091954
-0.021012    0.032257   -0.043423   0.0069217  -0.0011985    0.011144    0.012443
-0.017114    0.026735   -0.044398  -0.0080194     0.01017    0.014392    0.013743
-0.021986    0.015692   -0.042774   -0.031406    0.014392    0.009845    0.012119
-0.033679  0.00010078   -0.029782   -0.050894    0.012119  -0.0028225    0.008221
-0.046347   -0.011917   0.0065969    -0.05739   0.0046481   -0.017114   0.0062721
-0.053817   -0.013541    0.067661   -0.054467   -0.007045   -0.028807    0.010819
-0.053817  -0.0041217     0.14074    -0.04862   -0.019063   -0.029782     0.01829
-0.043423    0.015692     0.21252   -0.045047   -0.029782   -0.016464     0.02706
-0.026533    0.038428     0.27911   -0.042124   -0.037577   0.0056225    0.035505
-0.0057458    0.062464     0.34147   -0.033679   -0.037252    0.023812    0.042651
0.016991    0.084226     0.40481   -0.013866   -0.026209    0.037129    0.050771
0.040377    0.098193     0.47692    0.011144  -0.0093186    0.046873    0.058891
0.059541     0.10566     0.56657    0.032906    0.003024    0.055643    0.064088
0.070584     0.10696     0.66368    0.045574   0.0046481    0.063113    0.063763
0.070259     0.10404     0.73676    0.045574  -0.0011985    0.067986    0.055968
0.056617    0.092671      0.7124    0.037454  -0.0057458    0.071234    0.045249
0.036154    0.068635     0.49186    0.029009  -0.0047713    0.066686     0.03518
0.01829    0.032906    0.061165    0.026085  -0.0041217    0.055968    0.028359
0.009845  -0.0050961    -0.46535    0.028034  -0.0044465    0.042651    0.026085
0.011469    -0.03173    -0.91845    0.032582  -0.0076946    0.032582    0.025761
0.01894   -0.039526     -1.1767    0.038103   -0.012242    0.028359    0.023487
0.02641   -0.031081     -1.2101    0.040377   -0.012567    0.029009    0.020888
0.031282   -0.014191     -1.0656    0.039078  -0.0096434    0.028684    0.016341
0.033556   0.0026992    -0.82816    0.031607  -0.0041217    0.020564    0.015042
0.030633    0.011794    -0.56831    0.021213 -0.00087364   0.0056225    0.019589
0.029009    0.014717    -0.33218   0.0095202  -0.0037969   -0.008669    0.028359
0.028034    0.016016    -0.14152   0.0017248   -0.012892   -0.013216    0.035505
0.025436     0.01829 -0.00087364   0.0026992   -0.021986  -0.0080194    0.036804
0.017965    0.017316    0.095919   0.0056225   -0.028807  -0.0037969    0.034855
0.0095202    0.013743     0.15958   0.0052977   -0.029782  -0.0093186    0.028359
0.00042559   0.0085458     0.20278  -0.0011985   -0.023285   -0.022636    0.019914
-0.0093186   0.0059473     0.23039  -0.0050961   -0.010618   -0.035953    0.016341
-0.01549   0.0069217     0.24208  -0.0067202   0.0026992    -0.04115    0.018615
-0.018413    0.011794     0.23948  -0.0060706    0.012443   -0.041475    0.025761
-0.018738    0.019264     0.23136  -0.0015233     0.01764    -0.04115    0.033881
-0.015815    0.027709     0.22357   0.0049729    0.019914    -0.04115    0.036479
-0.011592    0.033881     0.22162    0.011144    0.019914    -0.03303    0.029009
-0.0054209    0.037454     0.22292    0.015692    0.016016   -0.018738    0.017316
0.0017248    0.039078      0.2135     0.01894   0.0059473  -0.0044465   0.0085458
0.0078962    0.039727     0.16413    0.020888  -0.0037969   0.0052977   0.0085458
0.010819    0.041351    0.037778    0.021213  -0.0099683    0.011144    0.017965
0.009845    0.041351    -0.16523    0.020239   -0.011592    0.015367    0.029983
0.0056225    0.035505    -0.37798    0.016341    -0.01549    0.013093    0.033556
-0.0015233    0.023812    -0.50497   0.0088706   -0.030431  0.00042559    0.023487
-0.010618    0.013743    -0.47477  0.00075039   -0.052843   -0.017439   0.0065969
-0.018413     0.01017    -0.28411  -0.0057458    -0.07428   -0.033354  -0.0083442
-0.024909    0.014068   0.0059473   -0.011917   -0.087922   -0.042124    -0.01614
-0.030756    0.021213     0.31257   -0.017439   -0.094093   -0.042124   -0.015815
-0.03173    0.028684     0.57826   -0.016464    -0.09117   -0.036602  -0.0067202
-0.025884    0.037454     0.77996  -0.0047713   -0.076229   -0.024909   0.0075714
-0.0099683    0.051096     0.90599    0.015692   -0.050569   -0.012567    0.025436
0.014068     0.06084     0.91638    0.036804   -0.021012  -0.0024977    0.040702
0.039078     0.05272     0.71987    0.045899   0.0088706 -0.00022403    0.050121
0.056617    0.019264     0.30185    0.040377    0.032257  -0.0041217    0.054668
0.061165    -0.03173    -0.20648     0.02706    0.041676   -0.012242    0.058566
0.056292   -0.082725    -0.61768    0.015367    0.035505   -0.020037     0.06084
0.049472    -0.11163    -0.81939    0.011794    0.019589    -0.02426    0.061489
0.042975    -0.11196    -0.80607     0.01764   0.0020496   -0.023935    0.058241
0.03583   -0.089546    -0.65114    0.032257  -0.0041217   -0.017439    0.052395
0.028684   -0.055766    -0.44748     0.05142   0.0026992  -0.0060706    0.044924
0.025436   -0.022311    -0.26949    0.070584    0.015042   0.0056225    0.041027
0.024786  0.00075039    -0.14996    0.085525    0.022512    0.011794    0.039402
0.024461    0.013743   -0.082076    0.089423    0.025761    0.012119    0.037778
0.026085    0.020888   -0.043423    0.079354    0.028684    0.010819    0.036479
0.026085    0.026735    -0.01484    0.057267    0.029333    0.014068    0.033231
0.024461    0.033231    0.012768    0.033231     0.02706    0.019589    0.028684
0.022188    0.040377    0.041027    0.016341    0.016666    0.022837    0.024786
0.023162    0.046223    0.067986    0.013093  -0.0024977    0.020888    0.021213
0.026735    0.051096    0.088773    0.022188   -0.028807    0.016016    0.017316
0.028034    0.053044     0.10664    0.033556   -0.056416     0.01017    0.014068
0.028684    0.051745     0.12548    0.037778   -0.076879   0.0059473    0.013093
0.030633    0.046223     0.14237    0.030957   -0.087272   0.0033489    0.016666
0.032257     0.03583     0.15146    0.012443   -0.088247   0.0036737    0.020888
0.030308    0.024137     0.15666  -0.0093186   -0.082725   0.0062721    0.021863
0.023812    0.015042     0.16121   -0.030106   -0.073955   0.0049729     0.01764
0.015367    0.011144       0.169   -0.043423   -0.059339 -0.00087364   0.0049729
0.0049729    0.011144      0.1781   -0.046022   -0.039201   -0.011267   -0.011267
-0.0028225    0.011794     0.18264   -0.037902   -0.018088   -0.018413   -0.022311
-0.0054209    0.012768     0.17712   -0.024909   0.0026992   -0.018738   -0.023285
-0.00054884    0.014392     0.15049   -0.010943    0.016016   -0.012892   -0.018088
0.0072465    0.016991     0.10534 -0.00087364    0.016991  -0.0015233   -0.010293
0.0088706    0.017316    0.058241   0.0010752   0.0085458    0.010495  -0.0050961
0.00010078   0.0095202     0.03518  -0.0076946  -0.0067202    0.016991  -0.0028225
-0.019388  -0.0054209    0.049796   -0.023285   -0.025234    0.014392  -0.0037969
-0.042124   -0.021012    0.093321   -0.034654   -0.040825   0.0026992  -0.0044465
-0.058689   -0.030431     0.14302   -0.038876   -0.047971   -0.010943  -0.0050961
-0.062262   -0.029782      0.1768   -0.034654   -0.046996   -0.020687  -0.0073698
-0.055116   -0.018413     0.18622   -0.023935   -0.039201   -0.024585   -0.012567
-0.039201  -0.0031473      0.1677  -0.0096434   -0.030756   -0.023285   -0.016464
-0.020687    0.010495     0.13262   0.0088706   -0.019712   -0.016789   -0.012892
-0.00087364    0.022188    0.095919    0.030957  -0.0060706  -0.0073698  -0.0011985
0.01829     0.03583    0.064413    0.054019    0.010495      0.0014    0.014392
0.03583    0.050771    0.048497    0.073507    0.030308   0.0043233    0.028034
0.048497    0.062464    0.047198    0.084876    0.048172   0.0020496    0.036479
0.055643    0.068635    0.051096    0.086175     0.06084   0.0010752     0.03518
0.058891    0.070584     0.05272    0.079679    0.065387   0.0036737    0.028359
0.059865    0.068635    0.049472    0.071883    0.066686    0.008221    0.020239
0.059216    0.066037    0.040377    0.066037     0.06896    0.014068    0.016341
0.053694    0.066037     0.03453    0.059216    0.075456     0.01829    0.019264
0.042001    0.066686    0.033556    0.052395    0.087799    0.024461    0.025111
0.030633    0.065387    0.032257    0.046223     0.10436    0.033231    0.025761
0.023487    0.061489    0.028359    0.042326      0.1219    0.039727     0.01764
0.022837    0.057592    0.022512    0.044275     0.13425    0.039727   0.0036737
0.029009    0.055318    0.016341    0.050121     0.14074    0.033881  -0.0067202
0.036804    0.055643    0.009845    0.056292     0.14691    0.023487  -0.0099683
0.041027    0.058241   0.0036737    0.060515     0.15211    0.014392  -0.0060706
0.038103    0.061165      0.0014    0.064413     0.15666   0.0059473   0.0017248
0.031282    0.061489   0.0020496    0.066037     0.15438  -0.0028225    0.010495
0.024137    0.059541   0.0065969    0.066362     0.14691   -0.010293    0.016991
0.015692    0.056617     0.01017    0.066362     0.13262   -0.013541    0.019264
0.0056225    0.054344    0.009845    0.062464     0.10859   -0.013541    0.016666
-0.00054884    0.049796   0.0056225    0.057267    0.074806   -0.011917   0.0091954
0.0017248    0.044275  -0.0011985    0.048497     0.03518   -0.010293 -0.00054884
0.0085458    0.039078  -0.0047713    0.037129 -0.00022403   -0.010293  -0.0096434
0.016991    0.036479  -0.0034721    0.023812   -0.024585   -0.012567   -0.014516
0.021863    0.037778   0.0020496    0.013418   -0.039201   -0.016464   -0.015815
0.019914    0.039727   0.0026992   0.0069217   -0.051544   -0.018088   -0.013866
0.013418    0.040052  -0.0034721   0.0091954   -0.065835   -0.016789   -0.010618
0.0049729    0.040377   -0.013541     0.01764   -0.083375   -0.012242  -0.0083442
-0.0018481    0.039078   -0.025234    0.029333    -0.10351  -0.0034721  -0.0060706
-0.0044465    0.031932   -0.036278    0.040377    -0.12203   0.0059473  -0.0031473
-0.0011985    0.017965   -0.047971    0.042001    -0.13729    0.013093 -0.00022403
0.0039985  -0.0031473   -0.061288    0.028034    -0.14996    0.014717   0.0017248
0.0065969    -0.02361   -0.070382   0.0043233    -0.15776    0.012768 -0.00022403
0.0075714   -0.034978   -0.075904   -0.016464    -0.16425    0.009845   -0.007045
0.0065969   -0.035303   -0.074605   -0.027508     -0.1688   0.0088706   -0.017114
0.003024   -0.027833   -0.070382   -0.030431    -0.16685     0.01017   -0.025234
-0.0011985   -0.019063   -0.063561   -0.030106    -0.15905    0.014392   -0.028807
-0.0047713   -0.011917   -0.055441   -0.028482    -0.14541    0.019264   -0.026533
-0.0041217  -0.0034721   -0.046671   -0.020362    -0.12333    0.024786   -0.018088
0.0033489   0.0085458   -0.039201  -0.0024977    -0.09182    0.031607  -0.0047713
0.021213    0.024461   -0.031081    0.021213   -0.053168    0.039727    0.012443
0.045249    0.037454   -0.029457    0.042326   -0.012242    0.046223    0.023487
0.067336    0.040702   -0.035628    0.054668    0.025111    0.046873    0.026085
0.080003    0.036804   -0.045047    0.055318    0.059216    0.041676    0.019914
0.078704    0.027385    -0.04992    0.047198    0.088773    0.037778    0.012119
0.066362    0.016016    -0.04862    0.035505     0.11216    0.039078   0.0062721
0.049472    0.008221   -0.042124    0.023162     0.12093    0.042651    0.008221
0.03583   0.0023744   -0.037577    0.015042     0.11801    0.045574    0.016341
0.027709  -0.0021729   -0.040825    0.012768     0.10534    0.046548    0.024137
0.02706  -0.0047713   -0.051219    0.017965    0.086824    0.047523    0.023812
0.030633  -0.0063954   -0.063561    0.026085    0.067661    0.046223    0.012119
0.037454   -0.008669   -0.073955    0.033231    0.054993    0.041027  -0.0034721
0.042001  -0.0099683   -0.080776    0.032906    0.053694    0.031607   -0.015815
0.041027  -0.0099683   -0.084999    0.020888    0.062464    0.019589   -0.017114
0.03583  -0.0067202   -0.090521   0.0065969     0.07773   0.0075714   -0.011267
0.030957  -0.0011985    -0.10611  -0.0028225    0.089423  -0.0041217  -0.0011985
0.02706   0.0049729    -0.13664  -0.0047713    0.089098   -0.010293   0.0088706
0.02706    0.011469    -0.18504  -0.0015233     0.07708   -0.010943     0.01829
0.030308    0.015042     -0.2435   0.0039985    0.059541  -0.0096434    0.026085
0.031932    0.016341     -0.2945   0.0075714      0.0433   -0.010943    0.029983
0.027385    0.015692    -0.31983    0.012768    0.033881   -0.011917    0.029333
0.01829    0.013093    -0.31236    0.023487     0.03518  -0.0083442    0.025761
0.0091954    0.010495    -0.28151    0.036804    0.047847  -0.0024977    0.021538
0.0023744    0.012768    -0.24578    0.046223    0.061165   0.0033489    0.016341
-0.00087364    0.019914    -0.22954    0.047198    0.066686    0.010819    0.011794
-0.0011985    0.031607    -0.25487    0.043625    0.066686    0.016991   0.0062721
0.0010752    0.041676    -0.32406    0.039727    0.067986    0.020564    0.003024
0.0069217    0.045899      -0.415    0.033881    0.072858    0.018615   0.0056225
0.016991    0.040702    -0.48971    0.025761    0.076431    0.009845   0.0078962
0.027385    0.027385    -0.50595    0.013093    0.067336  -0.0031473   0.0062721
0.034855   0.0046481    -0.43579  -0.0063954    0.042326   -0.015165      0.0014
0.029658   -0.028807    -0.27761   -0.035628 -0.00022403   -0.023935  -0.0067202
0.011144    -0.06616   -0.046347   -0.073306   -0.046347   -0.029132   -0.017114
-0.013541   -0.097666     0.22812    -0.11391   -0.085324   -0.030431   -0.028482
-0.034978    -0.11845     0.51265    -0.14671    -0.10741   -0.032705   -0.037577
-0.046022    -0.12592      0.7634    -0.16328    -0.11033    -0.03303   -0.042449
-0.045047    -0.11683     0.94204    -0.15873    -0.10156   -0.029132   -0.044073
-0.035628   -0.092145      1.0193    -0.13567   -0.089546   -0.021337   -0.042124
-0.021661   -0.055441     0.99596   -0.095393   -0.075255   -0.010293   -0.036602
-0.0031473   -0.012892     0.89624   -0.045047   -0.056741   0.0017248    -0.02426
0.014717    0.026085     0.75333  0.00042559   -0.032055    0.009845  -0.0060706
0.027709    0.046873     0.61691    0.031607  -0.0080194    0.015042    0.009845
0.029333    0.047847     0.52954    0.045574   0.0075714    0.020888    0.020888
0.019589    0.035505     0.49641    0.045249    0.014392     0.02706    0.024786
0.0065969    0.019914     0.49218    0.037129    0.017316    0.031607    0.022188
-0.0024977   0.0095202     0.47464    0.027385    0.019589    0.031932    0.013743
-0.0054209    0.008221     0.40871     0.01764    0.020239    0.029009   0.0078962
-0.00022403    0.016991     0.29145    0.015042    0.019914    0.021863   0.0085458
0.013743    0.031282     0.14464    0.018615    0.020888    0.015042    0.015042
0.030957    0.044275  0.00075039    0.025761    0.023812    0.010495    0.021538
0.041027    0.051096    -0.11456    0.030633    0.026735   0.0078962    0.027385
0.042001    0.048497    -0.18731    0.033556    0.027385   0.0036737    0.031607
0.03453    0.041027    -0.22239    0.034855    0.030308  -0.0031473    0.033556
0.024137    0.029009    -0.22954    0.038753    0.039727  -0.0093186    0.032582
0.014717     0.01829    -0.22661    0.045249    0.055318   -0.012892    0.032582
0.0072465     0.01017    -0.22239     0.05207     0.06961   -0.010293    0.036804
-0.0018481   0.0095202    -0.21785    0.057917     0.07773  -0.0037969    0.046223
-0.012242    0.015692    -0.21849    0.059541    0.076755   0.0052977    0.053694
-0.018413    0.026085    -0.22597    0.056617    0.067661    0.012768    0.053044
-0.01484    0.036154    -0.23766    0.050121    0.054668    0.013093    0.041027
-0.0041217    0.046223     -0.2487    0.040052    0.042001   0.0088706    0.023162
0.0033489     0.05207    -0.25227    0.026085    0.036154   0.0065969    0.008221
0.0052977    0.054344    -0.23863    0.014392    0.037129   0.0062721   0.0056225
0.0033489    0.055968     -0.2107    0.011794    0.037454   0.0020496    0.011794
-0.0021729    0.057267    -0.17172    0.022512    0.032257   -0.007045    0.019589
-0.0096434    0.058241    -0.13599    0.041351    0.020239    -0.01614    0.027709
-0.015165    0.059541    -0.11358    0.062464   0.0065969   -0.017114    0.033881
-0.016789    0.059865    -0.10741     0.07773  -0.0037969   -0.010618     0.03518
-0.01549    0.054019    -0.11261    0.082927   -0.011267   0.0010752     0.03453
-0.016789    0.042975     -0.1243    0.078379   -0.020687    0.011794     0.03518
-0.020037    0.028359    -0.13502    0.063763   -0.035628    0.012768     0.03518
-0.027183   0.0085458    -0.14606    0.039402   -0.055441    0.003024    0.032582
-0.035628   -0.011917    -0.15678    0.010819   -0.076554    -0.01484    0.027709
-0.042774   -0.028482     -0.1649   -0.013541    -0.09182   -0.034978    0.022188
-0.047971   -0.036927     -0.1662   -0.028807   -0.098641   -0.052843    0.019914
-0.048945   -0.037577    -0.15646   -0.035303    -0.09994   -0.065186    0.017965
-0.043423   -0.034654    -0.13307   -0.036278   -0.095068   -0.067784     0.01764
-0.034004   -0.030756   -0.097666   -0.031081     -0.0824   -0.060313    0.015692
-0.019388   -0.022636   -0.059014   -0.020687   -0.062262   -0.044398    0.013743
0.0010752  -0.0037969   -0.025884  -0.0050961   -0.039851   -0.021661    0.017965
0.024461    0.023812  -0.0060706    0.012768    -0.02361   0.0036737    0.029983
0.043625    0.052395  0.00075039    0.030633   -0.014516    0.029009    0.049796
0.05142    0.072208  -0.0028225    0.044275  -0.0093186     0.04395    0.067011
0.048172    0.078055   -0.012242    0.052395  -0.0050961    0.047523    0.077405
0.039727    0.072208   -0.027183    0.058566  -0.0041217    0.042975     0.07708
0.030308     0.06084   -0.044398    0.065387  -0.0083442    0.033881     0.06896
0.025761    0.050771   -0.060313    0.071883   -0.013216    0.024461    0.057592
0.024137     0.04395   -0.078827    0.076755    -0.01484     0.01829    0.046873
0.024786    0.039078    -0.10059    0.079679   -0.015165    0.016666    0.038103
0.022512    0.034206    -0.11715    0.081303   -0.017764    0.018615    0.028359
0.014717    0.031607    -0.12365    0.082602   -0.028482    0.021863    0.017316
0.0075714    0.031607    -0.12235    0.082602   -0.045047    0.025111    0.008221
0.0036737    0.033231    -0.11845    0.079679   -0.062912    0.028034   0.0049729
0.0026992    0.038428    -0.12073    0.071234   -0.073631    0.027709   0.0075714
0.0059473     0.04395    -0.12203    0.056617   -0.073955    0.026735   0.0095202
0.01017    0.046223   -0.077528    0.040052   -0.060963    0.023487   0.0072465
0.011469    0.043625    0.084551    0.025761     -0.0405    0.015367   0.0026992
0.01017    0.036479     0.36843    0.016341   -0.022961   0.0017248 -0.00054884
0.0078962    0.023812     0.64712    0.009845    -0.01549   -0.014516   0.0033489
0.0049729   0.0091954     0.75138   0.0023744   -0.017114   -0.025884    0.012443
-0.00022403  -0.0031473     0.60262  -0.0054209   -0.025234   -0.029457    0.023812
-0.0054209   -0.010293     0.25345    -0.01614   -0.034978   -0.026858    0.036479
-0.0093186   -0.012242    -0.15418   -0.024585   -0.043423   -0.021986    0.044275
-0.0093186   -0.010293    -0.47932   -0.023935   -0.046996   -0.015165    0.047198
-0.0047713  -0.0063954    -0.64497   -0.012892   -0.039201  -0.0080194    0.044275
0.0039985  -0.0011985    -0.65211   0.0069217   -0.017114  -0.0044465    0.038103
0.011144   0.0049729      -0.555    0.026735    0.013093  -0.0083442    0.031607
0.014717    0.012443    -0.42247    0.039727    0.041676   -0.017114    0.027709
0.011794     0.01894    -0.30717    0.042975    0.059216    -0.02426    0.030633
0.0039985    0.023487    -0.23603    0.039402    0.064088   -0.028157    0.036804
-0.0047713    0.023162      -0.212    0.032257    0.056617   -0.028807    0.040702
-0.017764    0.016666    -0.22044    0.022512    0.038103   -0.025559    0.033231
-0.034654   0.0046481    -0.24675    0.012119    0.010819   -0.021661    0.015367
-0.052193  -0.0096434    -0.27501   0.0039985   -0.017114   -0.019063  -0.0031473
-0.064211   -0.022311    -0.29677  -0.0047713   -0.036602   -0.019388   -0.012567
-0.066485   -0.028482    -0.29677   -0.014191   -0.045372   -0.022311    -0.01549
-0.058689   -0.027508    -0.24903   -0.022636   -0.044073   -0.027833    -0.01614
-0.046347   -0.022311    -0.11196   -0.029132   -0.037252   -0.034978   -0.017764
-0.031081   -0.017114     0.15698   -0.032705   -0.028482   -0.042449   -0.017764
-0.010618   -0.011917     0.53798   -0.030756   -0.018088   -0.045697   -0.014516
0.011144  -0.0067202      0.9258   -0.027183  -0.0076946   -0.043423   -0.013541
0.027385 -0.00022403      1.1921   -0.024585  0.00010078   -0.037252   -0.016789
0.034855   0.0056225      1.2532   -0.015815   0.0039985   -0.026209   -0.021337
0.03453    0.011469      1.1119 -0.00054884   0.0046481   -0.010943   -0.020687
0.029658     0.01764     0.84687    0.017965   0.0039985      0.0014    -0.01484
0.024786    0.024461     0.56819    0.034206   0.0075714   0.0056225  -0.0067202
0.023812    0.033231     0.35544     0.04395    0.021863   0.0010752  -0.0011985
0.02641    0.043625     0.23948    0.046548    0.046873  -0.0089938 -0.00022403
0.02706    0.053044     0.20765    0.043625    0.075781   -0.018088  0.00042559
0.023812    0.058241     0.23461    0.036479    0.099167   -0.017439   0.0033489
0.017316    0.059216     0.28885    0.027709     0.11021  -0.0067202    0.011144
0.012443    0.056942     0.35317    0.021538     0.11021    0.009845    0.022837
0.013093     0.05207     0.42138    0.020888     0.10664     0.02706    0.034206
0.019589    0.043625     0.49153    0.022188    0.099817    0.037129    0.039078
0.029009    0.036479     0.56104    0.023812    0.092671    0.036804     0.03583
0.037129    0.031607     0.60327    0.024461    0.081627    0.029009    0.026735
0.040052    0.022837     0.54383    0.021213     0.06961    0.019589     0.01894
0.037129   0.0039985     0.29503    0.016991    0.057267    0.012768    0.013743
0.033556   -0.026533    -0.13502    0.014392    0.044599   0.0095202   0.0085458
0.033231   -0.060313    -0.62093    0.011794    0.028359   0.0052977  -0.0011985
0.038753   -0.084674     -1.0139    0.008221   0.0075714  -0.0021729   -0.013216
0.044599   -0.092469      -1.216   0.0056225   -0.016464   -0.008669   -0.019063
0.045249   -0.086948     -1.2108   0.0075714    -0.04115   -0.008669   -0.015815
0.040052   -0.071357     -1.0455    0.012768   -0.063237  -0.0034721  -0.0076946
0.034206   -0.050894    -0.80055    0.018615   -0.079477   0.0065969 -0.00022403
0.02641   -0.029457    -0.55207    0.028359   -0.092469    0.017965   0.0033489
0.019264   -0.010618    -0.35426    0.040052    -0.10351     0.02641   0.0056225
0.013093   0.0033489    -0.22272    0.048822    -0.10806    0.027709   0.0091954
0.0095202    0.011794    -0.14996    0.050121    -0.10449    0.023162    0.015692
0.008221    0.016016    -0.11098    0.042326   -0.090845     0.01894    0.024137
0.0056225    0.013418   -0.086298     0.02706   -0.067134    0.015692    0.030308
-0.0031473  0.00042559   -0.064211   0.0049729   -0.043099    0.012768    0.031932
-0.016789   -0.019712   -0.037577   -0.016464   -0.030106   0.0088706     0.02641
-0.027183   -0.035628  -0.0073698   -0.027833   -0.031081      0.0014    0.012768
-0.029132   -0.040825    0.019589   -0.028482   -0.044073   -0.010943  -0.0031473
-0.02426   -0.036278    0.039078   -0.024585   -0.061613   -0.027508   -0.015815
-0.01614   -0.025559    0.050446   -0.021986    -0.07428   -0.045047   -0.021661
-0.0093186  -0.0096434     0.05272   -0.022311   -0.077853   -0.054467   -0.023935
-0.0011985    0.014068    0.049796   -0.021661   -0.077203   -0.052518   -0.023285
0.015367    0.042975     0.04395   -0.018413   -0.077528   -0.038876   -0.015165
0.038753    0.069934    0.039078   -0.013866   -0.077853   -0.021012   0.0036737
0.06019    0.084876    0.036804  -0.0073698   -0.076554  -0.0073698    0.025111
0.075131    0.085525    0.041676 -0.00054884   -0.070382  0.00075039    0.037129
0.079354    0.076755    0.051745   0.0072465   -0.059989   0.0056225    0.039402
0.075131    0.065712    0.061489    0.017316    -0.04862    0.010495     0.03453
0.06896    0.057592    0.065712     0.02641   -0.039851     0.01829    0.027385
0.063763    0.054344    0.063438    0.032582   -0.032705    0.028034    0.021213
0.059865    0.054019    0.057917    0.033881   -0.024909    0.036804    0.018615
0.055318    0.054668    0.054344    0.031282    -0.01614    0.043625    0.018615
0.046223    0.057267    0.055318    0.028034  -0.0034721    0.048822    0.024137
0.032582    0.060515    0.058891    0.027385    0.014068     0.05142    0.031932
0.018615    0.065712    0.059865    0.025436    0.036479    0.047523    0.038428
0.0075714    0.067986    0.058241    0.020888    0.054344    0.038753     0.03583
0.0062721    0.062464    0.057917    0.012119    0.067661    0.028034    0.026735
0.012443     0.05207     0.06961  0.00075039    0.075781    0.016991    0.014717
0.019264    0.040377    0.096244  -0.0076946    0.080978   0.0056225   0.0033489
0.024137    0.031932     0.13067  -0.0083442    0.084226  -0.0031473  -0.0093186
0.020564    0.028034     0.15796 -0.00022403     0.08585  -0.0067202   -0.022311
0.0088706    0.029009     0.16803    0.014392    0.081952  -0.0034721   -0.031081
-0.0057458    0.032257     0.16413    0.030633     0.06831   0.0017248   -0.031081
-0.017439    0.036154     0.15341    0.042326    0.047523   0.0072465   -0.026209
-0.020362    0.037778     0.13652    0.046223    0.030633    0.011794   -0.022311
-0.014516    0.038753     0.11866    0.042651    0.019589    0.014717   -0.016464
-0.0028225    0.037454     0.10242     0.03583    0.015042    0.017965   -0.007045
0.0069217    0.033556    0.091047    0.030308   0.0095202    0.022188   0.0059473
0.012443    0.030308    0.085525    0.030633   0.0069217    0.024786     0.01829
0.015692    0.030633    0.088448    0.036154   0.0095202    0.024137     0.02641
0.019914    0.036479    0.092996    0.047847    0.014068    0.022512    0.028684
0.024786    0.046223    0.095269    0.059216    0.018615    0.022188    0.025436
0.02706    0.056292     0.09462    0.063438    0.022512    0.021863    0.016341
0.024786    0.061814     0.09462    0.057592    0.024461    0.020564   0.0023744
0.019264    0.057267    0.095269    0.045574    0.023812    0.016016   -0.013541
0.010495    0.041676     0.09397    0.030633    0.024461    0.010495   -0.025884
-0.00022403    0.020564    0.090722     0.01829    0.028359   0.0039985   -0.030106
-0.012567 -0.00054884      0.0865     0.01017    0.037778  -0.0037969   -0.025559
-0.022636    -0.01549    0.081952   0.0049729    0.046873   -0.013866   -0.016464
-0.029457   -0.026533    0.075131      0.0014    0.055318   -0.023935  -0.0073698
-0.03238   -0.035628    0.065387  -0.0015233    0.062464   -0.027508  -0.0018481
-0.027183   -0.038227    0.055318  -0.0011985    0.067661   -0.020362   0.0017248
-0.014516   -0.028482    0.051096   0.0059473    0.075456  -0.0024977   0.0095202
-0.00054884   -0.011592    0.054019     0.01829    0.083251    0.017316    0.020239
0.010495   0.0069217    0.056942    0.030957    0.088773    0.030957    0.029333
0.01764    0.023162    0.055643    0.039078    0.089748    0.033231    0.034855
0.021538    0.034206    0.046873    0.042326    0.090072    0.023487    0.038428
0.019589    0.038753    0.036154    0.041676    0.088773   0.0072465    0.037454
0.010819    0.037778    0.032257    0.042651    0.086175  -0.0044465    0.033556
0.00075039    0.038103    0.043625    0.047198    0.083251  -0.0067202    0.029658
-0.0034721    0.040702    0.071558    0.051096    0.080328   0.0017248    0.033231
0.00010078    0.042326     0.10924    0.053694    0.076431    0.015042    0.042975
0.0091954    0.039727     0.14886     0.05207    0.074157    0.026735    0.053694
0.015692    0.033231     0.17777    0.048497     0.06831    0.032257    0.058891
0.015692    0.028034     0.19011     0.04395    0.056617    0.029983     0.06084
0.010819     0.02706     0.18881    0.040377     0.03453    0.021538    0.062464
0.0056225    0.032582     0.17615    0.039402   0.0039985    0.013418    0.063763
0.0026992    0.037129     0.15828    0.038753   -0.030756   0.0091954    0.062789
0.0023744     0.03518     0.13912    0.032906   -0.064536   0.0078962    0.059216
0.0033489    0.028034     0.12613    0.021538   -0.085973   0.0052977     0.05142
0.0056225     0.01764     0.11768    0.008221   -0.091495  -0.0024977    0.039402
0.010495    0.010495     0.10729 -0.00087364     -0.0837  -0.0093186    0.030308
0.018615     0.01017    0.085525  -0.0037969   -0.067459   -0.014516    0.026735
0.025761    0.016016    0.041351 -0.00054884   -0.051219   -0.017439    0.023812
0.030633    0.024786   -0.052193   0.0059473   -0.041475   -0.019063    0.018615
0.030633    0.030957    -0.22726    0.009845   -0.040175   -0.018738    0.013418
0.02706    0.029983    -0.46048   0.0059473   -0.044073    -0.01614   0.0088706
0.020888    0.022512    -0.67193  -0.0057458    -0.04992   -0.012242   0.0065969
0.014068    0.012443    -0.77229   -0.017439   -0.052193  -0.0076946   0.0036737
0.0078962   0.0020496    -0.72065   -0.023285   -0.053817  -0.0015233  -0.0011985
0.0085458  -0.0057458    -0.54428   -0.019063   -0.059014   0.0039985  -0.0063954
0.014068  -0.0099683    -0.31626   -0.007045    -0.06681   0.0072465  -0.0080194
0.022188   -0.010943    -0.11228   0.0052977   -0.071032   0.0069217  -0.0054209
0.023487   -0.014191    0.016341    0.012119   -0.068109   0.0020496  -0.0011985
0.016016   -0.021012    0.059865    0.010495   -0.058365   -0.008669  -0.0041217
-0.0018481   -0.029132    0.043625   0.0020496   -0.041799   -0.022311    -0.01549
-0.023285   -0.036927   0.0046481   -0.010943   -0.023285   -0.030106   -0.027833
-0.041475   -0.042124   -0.028807   -0.022311 -0.00087364   -0.029457   -0.032055
-0.04992   -0.045372   -0.042124   -0.029782    0.029333   -0.021337   -0.025234
-0.051219   -0.045697   -0.035628   -0.031081    0.063438   -0.012242  -0.0096434
-0.045047   -0.039851   -0.018738   -0.025884    0.097543  -0.0057458   0.0072465
-0.031406   -0.026209  -0.0031473   -0.011592     0.12775 -0.00087364    0.023162
-0.010943  -0.0073698   0.0069217   0.0095202     0.15309   0.0039985    0.036154
0.01017    0.011469   0.0091954    0.029009     0.17062   0.0052977    0.044599
0.024137    0.024137   0.0065969    0.038428     0.18069   0.0049729    0.046873
0.028359    0.028684   0.0062721     0.03583     0.18297   0.0059473    0.042326
0.026085     0.02706    0.013093    0.024461     0.17972    0.012119    0.033231
0.021538    0.024461    0.025436    0.008221     0.16998    0.021213    0.023162
0.019589    0.022837    0.037454  -0.0057458     0.15373    0.027709    0.017965
0.022188    0.020888    0.042975   -0.012892     0.12678    0.027709    0.017965
0.027385    0.016666    0.044275   -0.011592    0.092346    0.023162    0.023162
0.030957    0.011144    0.040702  0.00075039    0.056292    0.018615    0.033231
0.029333   0.0072465    0.031607     0.01829    0.021213    0.014068    0.042651
0.022188   0.0069217    0.021863    0.036154  -0.0093186    0.009845    0.045249
0.013418   0.0078962    0.019914    0.050446   -0.034004   0.0069217    0.037454
0.0069217    0.008221    0.020888    0.057917   -0.053168   0.0043233    0.024137
0.0033489   0.0062721    0.017316     0.06019   -0.071357    0.003024    0.013418
0.0020496   0.0039985    0.012119    0.059865   -0.094418  0.00042559    0.009845
-0.0011985   0.0043233     0.01017    0.059216     -0.1204 -0.00054884    0.014717
-0.0050961   0.0085458    0.014717    0.057592    -0.14509   0.0023744    0.023487
-0.0047713    0.015042    0.021863    0.055643    -0.16263    0.009845    0.030957
-0.00022403    0.017965    0.032257    0.051745    -0.17627    0.021538    0.033231
0.0039985    0.018615    0.040377    0.046873    -0.18959    0.033231    0.034206
0.0065969     0.01894    0.039727    0.040052    -0.20225    0.039078     0.03583
0.0039985    0.020239    0.029983    0.034206    -0.21297    0.038103     0.03518
-0.0037969    0.022837    0.017316    0.031282    -0.21752     0.03583    0.031932
-0.010943    0.023162    0.011469    0.028034    -0.21395    0.033881    0.028359
-0.016789    0.024461    0.015042    0.022188    -0.20063    0.032257    0.026085
-0.017114    0.029333    0.024461    0.013093    -0.17692     0.02706    0.022512
-0.012242    0.039078    0.036804   0.0036737    -0.14152    0.015692    0.015692
-0.0067202    0.047523    0.047198  -0.0024977   -0.098965   0.0056225   0.0065969
-0.0037969    0.050446    0.053044  -0.0063954   -0.058689      0.0014  -0.0037969
-0.00087364    0.045899    0.051745  -0.0080194   -0.025234   0.0039985   -0.011592
0.0062721    0.034206    0.044924   -0.012567  -0.0057458   0.0072465   -0.019712
0.012768    0.013093     0.03453   -0.022636  -0.0015233   0.0091954   -0.027833
0.012443   -0.011592    0.025436   -0.034654  -0.0093186   0.0078962   -0.033679
0.0052977   -0.029132    0.022512     -0.0405   -0.018738   0.0052977   -0.035628
-0.007045   -0.035303    0.029983   -0.038551    -0.02426   0.0043233    -0.03303
-0.019388   -0.030106    0.048497   -0.029782   -0.022961    0.008221   -0.026209
-0.027508   -0.016789    0.069285   -0.019388   -0.017114    0.013743   -0.018738
-0.026858   0.0039985    0.083251  -0.0096434  -0.0096434     0.01829   -0.017764
-0.016789    0.028359    0.088448  -0.0015233  0.00075039    0.020888   -0.018738
0.00075039    0.053044    0.091047   0.0085458    0.016341    0.023162   -0.018088
0.025436    0.072533     0.10534    0.023487    0.037454    0.030633   -0.011917
0.045899    0.084226     0.14367    0.041027    0.058891    0.038753  -0.0024977
0.059216    0.087149       0.207    0.053044    0.074806    0.041027   0.0085458
0.062464     0.08585     0.28918    0.055968    0.081303    0.039078    0.019264
0.057592    0.083576     0.38662    0.049472    0.081303    0.031607    0.025436
0.048497    0.079679     0.48959    0.039078    0.075781    0.023162    0.026085
0.040702    0.072208     0.57663    0.031607    0.065387    0.015042    0.021863
0.033881    0.058891     0.57598    0.030957    0.054668   0.0072465    0.016016
0.028684    0.032906     0.37753     0.03518    0.049796   0.0017248    0.012443
0.023812  -0.0093186    -0.03303    0.037778    0.052395  0.00075039    0.012119
0.019914   -0.061937    -0.52316    0.035505    0.059216   0.0020496    0.013093
0.016341    -0.10838    -0.90806     0.02706    0.064737   0.0017248    0.011144
0.013093    -0.13404     -1.0766    0.019589    0.066686  -0.0021729   0.0056225
0.012768     -0.1321     -1.0256     0.01894    0.064737   -0.010618  -0.0021729
0.01894    -0.10838    -0.83888    0.022837    0.057267   -0.025884   -0.007045
0.033881   -0.070707    -0.61054    0.028684    0.041027   -0.041799  -0.0080194
0.052395   -0.032705    -0.41078    0.030308    0.019264   -0.052193  -0.0044465
0.069285  -0.0034721    -0.26007    0.026735  0.00010078   -0.054467   0.0010752
0.078055    0.011469    -0.12722     0.01764  -0.0096434   -0.050244   0.0039985
0.075781    0.015692    0.016341   0.0069217   -0.008669   -0.042449   0.0043233
0.063438    0.015367     0.16705  -0.0031473   0.0017248   -0.035628   0.0020496
0.045249    0.015042     0.29892  -0.0099683    0.019589   -0.033354  -0.0024977
0.027709    0.016341     0.37525    -0.01484    0.038753    -0.03303  -0.0093186
0.014392    0.020564     0.37298   -0.019712     0.05272   -0.033679    -0.01549
0.008221    0.023812      0.2934   -0.021012    0.058241   -0.032705   -0.017439
0.0085458    0.025761     0.16803   -0.016789    0.058241    -0.03173   -0.017114
0.010495    0.028034    0.038428  -0.0044465    0.056292   -0.029782   -0.012567
0.010819    0.030633   -0.060638    0.012768    0.058241   -0.027508  -0.0076946
0.0088706    0.033556    -0.11196    0.032257    0.063438   -0.025559  -0.0028225
0.0065969    0.037454    -0.11683    0.048822     0.06961   -0.022311   0.0017248
0.0017248    0.038428   -0.093769    0.058566    0.074157   -0.020362   0.0052977
-0.0073698    0.036479   -0.069408    0.056942    0.076755   -0.023935   0.0052977
-0.019712    0.029333   -0.069733    0.044275    0.076755   -0.033679      0.0014
-0.031081    0.019589    -0.10319    0.026085    0.072533   -0.044073  -0.0067202
-0.038551    0.010495    -0.16295   0.0078962    0.067661   -0.050894   -0.017764
-0.043423      0.0014    -0.23863  -0.0047713    0.061814   -0.053168   -0.026533
-0.045697  -0.0076946    -0.31301   -0.008669    0.054993   -0.049595   -0.030431
-0.043748   -0.012892    -0.36466   -0.007045    0.045899   -0.043748   -0.030431
-0.034004  -0.0089938    -0.37018   0.0026992    0.038103   -0.033679   -0.028157
-0.01614    0.003024    -0.31171    0.017965    0.029333   -0.022961   -0.025234
0.0023744    0.015042      -0.174    0.031607    0.014717   -0.012567   -0.023285
0.016666    0.024786    0.036804    0.036804  -0.0063954  -0.0063954   -0.019063
0.025111    0.031282     0.29373     0.03518   -0.027183  -0.0093186   -0.015165
0.029658    0.036804     0.56332    0.033556   -0.044073   -0.018413   -0.011592
0.032257    0.042001     0.83778    0.031932   -0.052518   -0.026858   -0.007045
0.033556    0.047198      1.0882    0.030633    -0.04992   -0.026533  -0.0021729
0.033556    0.049147      1.2259    0.031282   -0.040175   -0.017764   0.0043233
0.029009    0.046223      1.1616    0.029658   -0.035628  -0.0047713    0.010495
0.020564    0.037129     0.88812     0.02706   -0.039851    0.009845    0.014068
0.012768    0.022512     0.49673    0.025761   -0.053492    0.024137     0.01894
0.0085458    0.011144     0.11768    0.026735   -0.070707    0.033881    0.027709
0.0062721   0.0059473     -0.1597    0.031282    -0.08305    0.032257    0.037129
0.0052977   0.0046481    -0.30587     0.03453   -0.085973    0.019914    0.044275
0.0059473   0.0056225    -0.33705     0.03453   -0.081426   0.0052977    0.045899
0.0091954   0.0069217     -0.2867    0.030957   -0.072981  -0.0044465    0.041676
0.014392    0.011144    -0.19154    0.024461   -0.064211  -0.0093186    0.034206
0.017316    0.016991   -0.089546    0.016991   -0.060313    -0.01549    0.028034
0.015367    0.023162   -0.011917    0.012119   -0.063561   -0.019712    0.025111
0.0095202    0.028684    0.025761    0.016016   -0.070058   -0.020687     0.02706
0.0020496    0.032257    0.028034    0.028359    -0.07428   -0.020037    0.031282
-0.0028225    0.033556   0.0069217    0.039402   -0.071032   -0.017764     0.03518
-0.0041217    0.033231   -0.022636    0.040377   -0.057065   -0.013216     0.03583
-0.0024977    0.031607   -0.052193    0.032906   -0.036602  -0.0067202    0.030633
-0.0037969    0.031282   -0.079152    0.020564   -0.016464  -0.0034721    0.023162
-0.010293    0.032257    -0.10156    0.009845  -0.0041217  -0.0031473    0.016666
-0.019388     0.03518    -0.11521    0.003024   0.0017248  -0.0060706    0.012443
-0.025884    0.042326    -0.12073   0.0010752   0.0088706  -0.0067202    0.011144
-0.025559    0.046873    -0.11586   0.0020496     0.01829  -0.0041217    0.014068
-0.018413     0.04395    -0.10514   0.0023744    0.027709  0.00075039     0.01894
-0.0060706    0.034206   -0.094743  0.00042559    0.032906   0.0043233    0.020888
0.0062721    0.017965   -0.091495  -0.0050961    0.031607   0.0069217    0.018615
0.011144  -0.0018481   -0.096692   -0.016789    0.023812   0.0065969    0.013418
0.0062721   -0.018088    -0.10676   -0.030106    0.012119   0.0026992   0.0075714
-0.0057458   -0.024909    -0.11261   -0.036602  -0.0011985  -0.0057458   0.0059473
-0.014191   -0.023935    -0.10774    -0.03303    -0.01484    -0.01549   0.0039985
-0.016464   -0.016464    -0.09182   -0.019388   -0.025234   -0.023935  0.00042559
-0.014516  -0.0076946   -0.072656  -0.0050961   -0.034004   -0.029132  -0.0044465
-0.0099683   0.0010752   -0.056741   0.0052977   -0.042774   -0.025559  -0.0057458
-0.0031473     0.01017   -0.044723    0.013418    -0.04862    -0.01549    0.003024
0.0062721     0.01829   -0.035953    0.024786   -0.050894  0.00075039    0.022188
0.013418    0.029009   -0.031406    0.042975    -0.04927     0.01764    0.044599
0.016341    0.037454   -0.030756    0.063763   -0.045697    0.031282    0.058891
0.016666    0.039727   -0.028157    0.080653    -0.04115    0.041351    0.058566
0.015367    0.035505   -0.023935    0.088773   -0.034978     0.04395    0.046548
0.014392    0.028359   -0.020687    0.084551   -0.029457    0.040052    0.029983
0.015042    0.022512   -0.018088    0.068635   -0.024909     0.03453    0.016991
0.016016    0.022512   -0.015165    0.048497   -0.021661    0.027709    0.011794
0.01894    0.025436  -0.0096434    0.032257   -0.018413    0.023812    0.015692
0.021213    0.028034  -0.0034721    0.020564   -0.011592    0.025436    0.023487
0.021863    0.026085 -0.00054884    0.014717 -0.00054884    0.029009    0.029333
0.020888    0.022512  -0.0054209    0.010495     0.01017     0.03583    0.032582
0.01829    0.020239   -0.017439   0.0075714     0.01764    0.042326    0.036154
0.019914    0.022837   -0.031081   0.0078962    0.026735    0.044924    0.038428
0.02706    0.028684     -0.0405    0.012119    0.037778    0.044275    0.039402
0.034855    0.032906   -0.042774    0.017316    0.044924    0.040377    0.038428
0.040377    0.032257   -0.037252    0.022837    0.042975    0.037454    0.036154
0.0433    0.027385    -0.03173    0.022837     0.03453    0.038103    0.034206
0.042975    0.023487   -0.028482    0.019589    0.025436    0.042651    0.034206
0.040052    0.020239   -0.028157    0.015692    0.021538    0.044275    0.036154
0.03583    0.019914   -0.030431    0.012119    0.017965    0.040702    0.036804
0.031282    0.024137   -0.030106    0.010495    0.012768    0.030308     0.03518
0.023487    0.031282   -0.012567   0.0088706   0.0039985    0.019914    0.030308
0.011469    0.038428    0.031607   0.0065969  -0.0060706    0.011794    0.020239
0.0010752    0.042001     0.10144   0.0033489   -0.015815    0.009845    0.009845
-0.0031473    0.037454     0.18069  0.00010078    -0.02361   0.0088706      0.0014
-0.0015233    0.024461     0.25248  -0.0034721   -0.026858    0.008221  -0.0034721
0.0056225   0.0091954     0.31029  -0.0096434   -0.027833   0.0085458  -0.0018481
0.013418  -0.0024977     0.35219   -0.014516   -0.029132    0.008221   0.0049729
0.01894  -0.0080194     0.37915   -0.013866   -0.027183   0.0091954    0.013093
0.023487  -0.0089938     0.39084  -0.0076946   -0.017764    0.013743    0.021213
0.02641  -0.0096434      0.3837   0.0010752  -0.0063954    0.016666    0.024137
0.025761   -0.013541     0.36226   0.0075714  -0.0047713    0.009845    0.017316
0.01829   -0.019712      0.3366    0.010495   -0.014516  -0.0047713   0.0036737
0.0033489   -0.024585     0.31516     0.01017   -0.030756   -0.020037  -0.0093186
-0.01484   -0.026533     0.30152   0.0072465   -0.046347   -0.029132   -0.019712
-0.029457   -0.025559     0.29113   0.0023744    -0.05739   -0.028807   -0.024585
-0.037252   -0.022636     0.25702 -0.00087364   -0.062262   -0.021012   -0.022311
-0.037252   -0.019388     0.12288 -0.00054884   -0.060313   -0.011592   -0.016789
-0.029132   -0.011917    -0.19836   0.0088706   -0.051544  -0.0028225  -0.0080194
-0.011917 -0.00087364    -0.68492    0.023487   -0.038551   0.0039985   0.0010752
0.0075714   0.0088706      -1.188    0.033231   -0.024585     0.01017    0.011469
0.021538    0.016991     -1.5135    0.032257   -0.011267    0.015367    0.023487
0.028359    0.021538      -1.532    0.020564    0.003024     0.01894    0.030957
0.029983    0.025436      -1.252   0.0075714    0.018615     0.01894    0.031607
0.032906     0.03453    -0.78821   0.0017248    0.039078    0.016341     0.02706
0.037778    0.047523    -0.29872   0.0056225    0.057592    0.017316    0.021538
0.04395    0.061489    0.085525    0.019914    0.070259    0.024461    0.017316
0.046223    0.072208     0.31159    0.038103    0.072858    0.037129    0.016666
0.041676    0.078055     0.40221    0.058241    0.070259    0.048172    0.020239
0.031607    0.080328     0.41553    0.072208    0.064413    0.050771    0.030633
0.01894    0.083576     0.41033    0.076755    0.055968    0.047198    0.042001
0.0085458      0.0865     0.41878    0.074157    0.048822    0.040702    0.049796
0.0039985    0.085525     0.44801     0.06831    0.048497    0.033881    0.050771
0.00010078    0.078704     0.48926    0.059865    0.057267     0.02706    0.045574
-0.0047713    0.063113     0.51817    0.045249    0.070909    0.020888    0.033881
-0.012242    0.036154     0.47692    0.021538    0.082277    0.017316    0.022188
-0.018738  -0.0024977     0.28138   -0.011267    0.088773    0.016666    0.016666
-0.021661   -0.050244   -0.073306   -0.042774    0.096893    0.018615    0.017965
-0.018088   -0.096367    -0.47802   -0.061613     0.11021     0.01764    0.023812
-0.0083442     -0.1269    -0.79438   -0.061288     0.12483   0.0091954    0.028034
0.0085458    -0.13112    -0.94704   -0.046347     0.13457  -0.0060706    0.023812
0.02641    -0.10741    -0.93599   -0.022636      0.1323   -0.020037     0.01764
0.042975    -0.06551    -0.81549  0.00075039     0.11638   -0.029132     0.01764
0.051745   -0.022311    -0.65179    0.018615    0.092021   -0.029782    0.020888
0.05142   0.0065969    -0.49848    0.024786    0.065712   -0.022311    0.022837
0.044275     0.01764    -0.38512    0.025436    0.045249   -0.011917    0.019589
0.034206    0.016016    -0.30814    0.023812    0.038103  -0.0037969    0.013093
0.024461    0.012768    -0.22597    0.022512     0.04395  0.00042559    0.008221
0.015367    0.014392   -0.071032    0.023162    0.053044      0.0014   0.0049729
0.0088706    0.020888     0.21188    0.026085     0.06084   0.0023744   0.0020496
0.0039985    0.022837      0.5997    0.030633    0.058891   0.0033489  0.00075039
-0.0031473    0.016666     0.98394    0.032257    0.044599   0.0026992  -0.0034721
-0.01484   0.0023744      1.2353    0.027709    0.019264  0.00042559   -0.010943
-0.027183   -0.011267      1.2798    0.020239  -0.0096434  0.00075039   -0.017439
-0.032705   -0.016789      1.1282    0.015042   -0.042124   0.0026992   -0.021986
-0.021986   -0.014516     0.85629    0.013093   -0.078178   0.0065969   -0.021661
-0.00054884  -0.0076946     0.56462     0.01017    -0.11326   0.0085458   -0.015815
0.020564   0.0017248     0.33011   0.0039985    -0.13599    0.003024  -0.0060706
0.036154    0.014717     0.18492  -0.0011985    -0.13567  -0.0060706   0.0056225
0.045574    0.032906     0.12125  0.00010078    -0.11456   -0.013541    0.016341
0.050121     0.05272     0.11021   0.0046481   -0.082076   -0.014516    0.027385
0.054019    0.066686     0.12158    0.009845   -0.048945   -0.010293     0.03453
0.055643    0.072208     0.13165    0.013743   -0.023285  -0.0047713    0.034206
0.052395     0.06896     0.13197    0.019589  -0.0076946  0.00042559    0.028684
0.0433    0.057592     0.12028    0.029658   0.0017248   0.0056225    0.024137
0.029009     0.04395     0.10371    0.042651    0.012119    0.012119     0.02641
0.013743    0.031607    0.092671    0.053694    0.025761    0.021538    0.034855
0.003024    0.023812    0.087474    0.061489    0.033881    0.032906    0.041351
-0.0028225    0.021538    0.079679    0.064088     0.03453    0.039727    0.042651
-0.007045    0.022188    0.061165    0.062464    0.032257     0.03518    0.039078
-0.008669    0.024137    0.026085    0.058566    0.029983    0.016666    0.033556
-0.0054209    0.025436   -0.019063     0.05272    0.031282  -0.0067202    0.028359
0.00042559    0.023812   -0.059014    0.048822    0.035505   -0.022311    0.022188
0.0062721    0.016991   -0.082076     0.05142    0.037778   -0.026209    0.012443
0.0052977   0.0091954   -0.086948    0.057917    0.033881    -0.02361  -0.0021729
-0.0011985   0.0039985   -0.081101    0.065062    0.022188   -0.018738   -0.018088
-0.010943    0.003024   -0.069733     0.06831   0.0056225    -0.01549   -0.033679
-0.019388   0.0049729   -0.057065    0.064413   -0.008669   -0.018088   -0.045047
-0.023935   0.0075714   -0.044398    0.054344   -0.013216   -0.022311    -0.04927
-0.021986   0.0088706   -0.033354    0.038103   -0.011592   -0.024585   -0.045697
-0.014191   0.0095202   -0.025884     0.01894  -0.0096434   -0.018088   -0.038227
-0.0034721   0.0075714   -0.019388 -0.00054884  -0.0089938  -0.0034721   -0.030106
0.0072465   0.0039985   -0.010293    -0.01484  -0.0080194     0.01017   -0.021337
0.015367    0.003024   0.0026992   -0.016789  -0.0093186    0.020239  -0.0093186
0.022512   0.0052977    0.017316  -0.0050961   -0.011592    0.024137   0.0017248
0.026735    0.009845    0.029333    0.011794   -0.015815    0.021213    0.008221
0.029658    0.014392    0.033881    0.024461    -0.01484    0.015042   0.0078962
0.02706    0.017965    0.024786    0.028684  -0.0089938   0.0091954   0.0046481
0.021213     0.01764   0.0039985    0.023162  -0.0041217   0.0065969      0.0014
0.016991    0.015692   -0.021661    0.015367  -0.0044465   0.0049729  0.00010078
0.012768   0.0088706   -0.042124   0.0085458   -0.012242   0.0010752  -0.0041217
0.0049729 -0.00022403   -0.053168  0.00010078   -0.027833  -0.0076946   -0.012892
-0.0031473   -0.010943   -0.053492   -0.010293   -0.050244   -0.018413   -0.023285
-0.012892   -0.018413   -0.051219   -0.020037   -0.070058   -0.027833   -0.024585
-0.022636   -0.021012   -0.055766   -0.026533   -0.080776    -0.03303   -0.020687
-0.029132   -0.016789    -0.06616   -0.033679   -0.085648   -0.035953    -0.01614
-0.026858  -0.0076946   -0.075904    -0.04115   -0.085973   -0.038227    -0.01484
-0.01614   0.0017248   -0.077203   -0.044073   -0.084024   -0.037902   -0.019063
-0.0024977    0.012119   -0.066485   -0.035303   -0.076554   -0.033354   -0.023285
0.009845    0.022188   -0.046022   -0.013216   -0.062262   -0.021012   -0.019063
0.016666    0.032582   -0.024585    0.012119   -0.044073  -0.0015233  -0.0054209
0.018615      0.0433  -0.0099683    0.031282   -0.030756    0.016341    0.010495
0.014068    0.054344  -0.0054209    0.038103   -0.028157    0.025111    0.023812
0.0078962    0.065712  -0.0083442    0.032906   -0.031406    0.022512    0.029333
0.0023744    0.072533   -0.013541    0.022512   -0.034654    0.013418    0.025436
0.0043233    0.072533   -0.015165    0.012768   -0.037577   0.0043233    0.016991
0.011794    0.063438   -0.014516   0.0095202    -0.04115  -0.0057458    0.012119
0.021213    0.048172    -0.01484    0.013093   -0.046996   -0.011267    0.013418
0.031282    0.030633   -0.015815    0.021863   -0.050244  -0.0096434    0.018615
0.041351    0.015692   -0.015815    0.029983   -0.045372 -0.00054884    0.023812
0.047198   0.0072465    -0.01549    0.034206   -0.034978    0.011794    0.024786
0.0433   0.0039985    -0.01484    0.033231   -0.021661    0.022837    0.024137
0.030633   0.0039985    -0.01484     0.02641  -0.0093186    0.028359    0.024786
0.016341   0.0052977   -0.014516    0.011469 -0.00022403    0.025436    0.026085
-0.00054884    0.008221    -0.01484  -0.0047713   0.0065969    0.013418    0.029009
-0.014191    0.011469   -0.014516   -0.020362    0.013093  -0.0018481    0.032257
-0.017439    0.013093   -0.013541   -0.030431    0.021538   -0.012242    0.036154
-0.0089938    0.011794   -0.011917   -0.033679    0.034855   -0.011917    0.038753
0.0039985    0.013418   -0.012242   -0.028482    0.053369 -0.00022403    0.037454
0.016341     0.01764   -0.016789   -0.018088    0.074157    0.013743    0.034855
0.027709    0.022188   -0.020037  -0.0054209    0.095269    0.022837    0.031282
0.038753    0.024461   -0.017439   0.0049729     0.11671    0.020888    0.028684
0.045899    0.025436   -0.013541    0.014068     0.13392   0.0072465    0.026735
0.049472    0.024786   -0.013216    0.022188     0.14464   -0.014516    0.023487
0.048497    0.020888   -0.019388    0.030633     0.14821   -0.031406     0.01894
0.042001    0.013093   -0.029457    0.039727     0.14951   -0.038227    0.012119
0.031932   0.0033489   -0.036927     0.04395     0.15081   -0.034978   0.0039985
0.023162  -0.0063954    -0.04115     0.03583     0.15373   -0.026533  -0.0076946
0.015042   -0.011267   -0.044398    0.018615     0.15601   -0.019388   -0.013866
0.0075714   -0.012892   -0.046022  -0.0015233     0.15244   -0.018088   -0.013541
0.0039985    -0.01484   -0.043423   -0.021986     0.13457   -0.026209  -0.0083442
0.0010752   -0.020037     -0.0405   -0.042774    0.096569   -0.043423  -0.0031473
-0.0063954   -0.028482   -0.039201   -0.056416    0.044924   -0.062262  -0.0031473
-0.018738   -0.035953   -0.039851    -0.05804  -0.0076946   -0.075255   -0.008669
-0.029132   -0.039526   -0.041475   -0.050894   -0.051544   -0.077203   -0.016789
-0.031081   -0.036927   -0.043423   -0.043423   -0.077528   -0.071032   -0.024909
-0.025234   -0.029132   -0.045047   -0.035953   -0.089221   -0.059339   -0.030106
-0.012567   -0.019388   -0.043099   -0.028157   -0.098965   -0.044723   -0.029132
0.0062721  -0.0073698   -0.036602   -0.014191    -0.11228   -0.027833   -0.017439
0.026085   0.0091954   -0.028482    0.008221     -0.1295  -0.0063954   0.0043233
0.041027    0.024137   -0.021661    0.033231    -0.14574    0.013743    0.029333
0.045574     0.03453   -0.014516    0.052395    -0.15841    0.028684    0.049796
0.040052    0.038753  -0.0089938    0.059541    -0.16685    0.032582    0.063113
0.028034    0.038753  -0.0057458    0.054344      -0.174    0.026735    0.071234
0.019589    0.040702  -0.0047713    0.039402    -0.18114    0.017965    0.072533
0.020239      0.0433  -0.0067202    0.025111    -0.18731    0.013093    0.070909
0.026085    0.045899  -0.0099683    0.012119    -0.19348     0.01017    0.063763
0.031932    0.044599   -0.012567   0.0026992    -0.19348   0.0039985    0.049796
0.034855    0.037778    -0.01484  -0.0044465    -0.18277  -0.0024977     0.03518
0.033556    0.031607   -0.014516  -0.0096434    -0.16133  -0.0050961    0.023487
0.029333    0.031282   -0.010293   -0.012242    -0.13599  -0.0037969     0.01764
0.023812    0.034855  -0.0028225  -0.0080194    -0.11326 -0.00054884    0.014717
0.01764    0.037454   0.0039985   0.0017248   -0.094093  0.00010078    0.014068
0.011794    0.037129   0.0072465    0.012443   -0.068758  -0.0037969    0.016991
0.0069217    0.038103   0.0039985    0.026735   -0.033354   -0.010943    0.024137
0.0023744    0.041027  -0.0054209    0.042651   0.0085458   -0.017439    0.032906
0.00010078     0.04395   -0.013866    0.057592    0.050771   -0.023285    0.039078
0.0036737    0.044275   -0.016464    0.066037      0.0865   -0.024585    0.041027
0.011469    0.039078   -0.010293     0.06961     0.10729   -0.018413    0.039078
0.019589    0.029658      0.0014    0.070259     0.11313  -0.0060706     0.03518
0.024137    0.020888    0.013743    0.070584     0.10989   0.0065969    0.032906
0.02706    0.015692    0.022837    0.070584     0.10274    0.015692    0.031282
0.028684    0.014717    0.031282    0.068635    0.095594    0.016991    0.030957
0.02706    0.014717    0.034855    0.063763    0.091696    0.012443    0.029983
0.020888    0.016016     0.03583    0.055318    0.089098   0.0026992     0.02706
0.011469    0.014717    0.031607    0.046223    0.084226  -0.0057458    0.024461
0.0039985    0.011469    0.021863    0.038428    0.075781  -0.0099683    0.020564
0.0059473   0.0091954   0.0095202    0.031932    0.064737  -0.0096434    0.015367
0.015692   0.0072465  -0.0018481     0.02706    0.056617  -0.0096434    0.008221
0.023487   0.0059473   -0.007045    0.024786    0.049796  -0.0080194      0.0014
0.019914  0.00010078  -0.0044465    0.023487    0.040702  -0.0063954  -0.0047713
0.0026992   -0.012242  0.00042559    0.024461    0.029983  -0.0054209   -0.012892
-0.021661   -0.026858    0.003024    0.025111    0.020239  -0.0076946   -0.021661
-0.039851   -0.039851    0.003024    0.022512    0.011794   -0.010293   -0.030106
-0.048296    -0.04992   0.0023744    0.015692   0.0046481  -0.0080194   -0.034978
-0.04862   -0.054792   0.0075714   0.0091954 -0.00022403 -0.00087364   -0.031406
-0.043099   -0.054792     0.01894   0.0072465  0.00042559   0.0085458   -0.022636
-0.035628   -0.051544    0.034206    0.016991   0.0059473    0.017316   -0.012242
-0.025884   -0.043423    0.047523    0.039402    0.017316    0.022512 -0.00022403
-0.01484   -0.026533    0.053044    0.070909     0.03518    0.027709    0.013418
-0.0037969  -0.0021729    0.048822    0.099167     0.05272     0.03453    0.027709
0.0085458     0.02641    0.037454     0.11541    0.063763    0.041676    0.039402
0.024786    0.050771    0.022837     0.12028    0.065387    0.048172    0.044924
0.040702     0.06831     0.01017     0.11866    0.059216    0.054019    0.043625
0.053044    0.076755  -0.0057458     0.11118    0.049147    0.061814    0.042975
0.055643    0.074482   -0.025884     0.10177    0.040377    0.067986    0.044275
0.050121    0.065062   -0.044398    0.092996     0.03453    0.068635    0.045574
0.041676    0.053369   -0.035303    0.086175    0.031607    0.061814    0.044599
0.031932     0.04395    0.063438    0.075781    0.032906    0.050121    0.040377
0.025436    0.038103      0.2999    0.063438    0.037454    0.042651    0.032906
0.019589    0.032582     0.59872    0.047198    0.046873    0.040052    0.019914
0.013743    0.025761     0.77704    0.028359    0.059216    0.039078   0.0049729
0.0075714    0.016016     0.69421    0.010495    0.069934    0.031932   -0.007045
0.0036737   0.0049729     0.37103  -0.0044465    0.075456    0.019264   -0.014516
0.0010752  -0.0034721   -0.027508   -0.014191    0.074482   0.0065969   -0.018088
-0.00087364  -0.0076946    -0.32146   -0.017439    0.066037 -0.00022403   -0.021012
0.00075039  -0.0057458    -0.41955   -0.015165    0.053369  -0.0011985   -0.023285
0.0049729    0.003024    -0.33185  -0.0076946    0.044599  0.00075039    -0.02361
0.0043233    0.015042    -0.14509   0.0023744    0.040052   0.0020496   -0.021012
-0.00022403    0.026735    0.041351    0.013418    0.036479  -0.0011985   -0.014191
-0.0080194     0.03518     0.16315    0.022188    0.036479  -0.0073698  -0.0073698
-0.017114    0.038103     0.20246    0.026735    0.042651   -0.013541  -0.0011985
-0.023935    0.032257     0.16575    0.030308    0.054019    -0.01549   0.0023744
-0.024909    0.024786    0.058241    0.033556    0.065387   -0.014191   0.0026992
-0.021337    0.017965    -0.10741    0.040377    0.070259  -0.0089938    0.003024
-0.01549    0.015367    -0.29482    0.050771    0.067336  -0.0028225   0.0056225
-0.0096434     0.01764     -0.4621     0.06019    0.057267   0.0010752    0.011794
-0.0054209    0.021538    -0.57286    0.063113    0.038103 -0.00054884     0.01894
-0.0044465    0.023487    -0.60144    0.056942    0.011469  -0.0076946    0.023162
-0.0057458    0.023812    -0.55435    0.045899   -0.022636   -0.018088    0.022188
-0.0083442    0.022837    -0.45983    0.030308    -0.06681   -0.030431    0.015692
-0.013216     0.01829    -0.35134    0.011794    -0.11651   -0.043748   0.0065969
-0.020037     0.01017    -0.25552  -0.0047713    -0.16133   -0.054467  -0.0018481
-0.03173 -0.00054884    -0.18699   -0.017439    -0.19836   -0.063561  -0.0089938
-0.047971   -0.012242    -0.14249   -0.026533    -0.23084   -0.068758   -0.010943
-0.062912   -0.022311    -0.11196   -0.038227    -0.25812   -0.073955  -0.0099683
-0.070707   -0.030431   -0.085973   -0.051544    -0.27566   -0.070058   -0.011267
-0.067134    -0.03173   -0.063237   -0.059989    -0.28118    -0.05804   -0.011592
-0.054467   -0.020687   -0.033679   -0.057065    -0.26754   -0.038551  -0.0073698
-0.033354      0.0014   0.0078962   -0.045372    -0.23246   -0.015165   0.0059473
-0.0080194    0.026735    0.063113   -0.028157    -0.17952   0.0049729    0.024137
0.013418    0.042975     0.14399   -0.011917    -0.12365    0.016991    0.042326
0.025436    0.046548     0.25475  -0.0011985   -0.076554    0.018615    0.056617
0.02641    0.039078     0.37265   0.0026992   -0.039526    0.013093    0.063763
0.016666    0.025111     0.46035   0.0023744  -0.0067202   0.0052977    0.063763
0.0069217    0.013743     0.49186   0.0010752    0.020239   0.0033489    0.055318
0.0026992    0.011144     0.46068  -0.0011985    0.040702    0.008221    0.046223
0.0065969     0.01829      0.3837  -0.0057458     0.05207    0.015367    0.042001
0.014717    0.030957     0.28723  -0.0089938    0.059216    0.020564      0.0433
0.023487    0.046548     0.19986  -0.0099683    0.067661    0.021213    0.047523
0.028359    0.059216     0.13782  -0.0083442    0.075781    0.019589    0.050771
0.028359    0.066686     0.10274  -0.0034721    0.084551    0.021213     0.05142
0.023487     0.06831    0.086175   0.0017248    0.092671    0.027385    0.051096
0.016341    0.065387    0.075131   0.0059473    0.098193    0.040052     0.05142
0.014392    0.061814    0.063763   0.0085458     0.10242    0.055643    0.050771
0.01894    0.061165    0.049796    0.009845     0.10274    0.066362    0.045899
0.027385     0.06019    0.031932    0.014068    0.097868    0.067011    0.036154
0.036154    0.059216    0.013418    0.023162    0.083251    0.057917    0.023487
0.044275    0.055643  0.00010078     0.03453     0.06019    0.044924    0.013093
0.05207    0.047198  -0.0028225    0.042001    0.031607    0.033881    0.008221
0.059216    0.038428   0.0043233    0.043625   0.0059473    0.033231   0.0078962
0.061814    0.032906    0.012443    0.039078  -0.0089938    0.039402   0.0085458
0.062464    0.030957    0.015367    0.027385  -0.0067202    0.047847    0.010819
0.058241    0.029333   0.0088706    0.008221     0.01017    0.054344    0.012768
0.053044    0.024137  -0.0050961   -0.014191    0.032906    0.055968    0.014068
0.050446     0.01764   -0.020037    -0.03173    0.050121    0.055643    0.014717
0.050771    0.011469    -0.03303   -0.037577    0.061165    0.056617    0.012119
0.052395   0.0069217   -0.041799   -0.031406    0.066686    0.062139   0.0078962
0.054019   0.0052977   -0.044073   -0.017114    0.070584    0.067661    0.008221
0.049796   0.0078962   -0.037252   0.0023744    0.072533     0.06896    0.015367
0.036804    0.015042   -0.026858     0.01894    0.069285    0.060515    0.019264
0.016666    0.020239   -0.020037    0.026735    0.055643    0.041676    0.014717
-0.0034721    0.019589   -0.022636    0.018615    0.038103    0.017316  0.00075039
-0.014516    0.015692   -0.033679  -0.0028225    0.023487  -0.0050961   -0.015165
-0.014191    0.011794   -0.050569   -0.025884    0.016341   -0.019388   -0.026209
-0.0073698   0.0075714   -0.067134   -0.041475    0.012443   -0.022636   -0.030106
0.00042559   0.0026992   -0.080127   -0.051544     0.01017   -0.018088   -0.029132
0.0062721 -0.00087364   -0.084999   -0.057065   0.0091954   -0.008669   -0.026533
0.015042   0.0010752   -0.077853   -0.054792    0.012119   0.0026992   -0.021012
0.026735    0.009845   -0.059989   -0.041475    0.017316    0.011469   -0.012242
0.040052    0.019914   -0.042449   -0.020362    0.024137    0.015367  -0.0024977
0.047523    0.027709   -0.036278   0.0072465    0.029983    0.015042   0.0062721
0.045899    0.032257   -0.043748    0.031607     0.03518    0.011469    0.010495
0.038753    0.033231   -0.054467    0.048172    0.039727   0.0075714    0.012119
0.030308    0.032906   -0.062262    0.051096    0.042001   0.0059473    0.013093
0.022837    0.030308   -0.064211    0.042975    0.037778   0.0062721    0.011794
