-0.048296   -0.036278     0.05207     0.14107     0.13652   -0.055441   -0.025884
-0.021012   -0.022961    0.068635     0.16413    0.090722    -0.11618      0.0014
0.0049729  -0.0080194    0.090072     0.19823  -0.0050961     -0.1636    0.026735
0.029009    0.008221     0.10859     0.24241    -0.15288    -0.20063     0.05272
0.049796    0.028034     0.11443     0.28691    -0.31464    -0.22726    0.083576
0.06896    0.049796     0.10761     0.32036    -0.44943    -0.23279     0.11736
0.0865    0.072858    0.096569     0.33758    -0.53908     -0.2159     0.15211
0.10501    0.093321     0.08585     0.34147     -0.5865    -0.18666     0.18069
0.12028     0.10956    0.078379     0.33725    -0.60014      -0.161     0.20051
0.13457     0.12223    0.074157     0.32783    -0.58845    -0.15093      0.2044
0.14399     0.13132    0.073507     0.31906    -0.55922    -0.15743     0.19434
0.14789     0.13295    0.078055     0.31549    -0.52544     -0.1727      0.1781
0.14919     0.13165    0.088773     0.31776     -0.5001    -0.18861     0.16543
0.14691     0.12678     0.10501     0.32361     -0.4988    -0.19608     0.16088
0.14107     0.11963     0.12158     0.32426    -0.54623    -0.18861     0.16023
0.13425     0.11476     0.13197     0.31224    -0.66413    -0.17075     0.16445
0.13165     0.11378      0.1336     0.28398    -0.85025    -0.15093      0.1729
0.13035     0.11054      0.1258     0.24533     -1.0633    -0.13242     0.18167
0.13002     0.10306     0.11638     0.20733     -1.2423     -0.1191     0.18979
0.13035    0.097218     0.11021     0.18687     -1.3401    -0.11001     0.19141
0.13295     0.09462     0.10534     0.19076     -1.3605    -0.10416     0.18102
0.13457    0.093321     0.10274     0.21707     -1.3599   -0.097991     0.16023
0.13067    0.093645     0.10306     0.25313     -1.4222   -0.086298     0.13782
0.1232    0.095919     0.10566     0.27944     -1.6083   -0.067784     0.11638
0.11801    0.099817     0.11151     0.28496     -1.9114   -0.046347     0.10144
0.11443     0.10469     0.11703     0.27391     -2.2521   -0.021337    0.093645
0.11476     0.10956     0.11898      0.2593     -2.5256   0.0052977    0.095919
0.12125     0.11313     0.11638     0.24793     -2.6536    0.038428     0.10534
0.13165     0.11606     0.11118     0.24208     -2.6081    0.080653     0.11703
0.14237     0.11833     0.10729     0.24046     -2.4161     0.13002     0.12775
0.15081     0.11931     0.10339     0.23916     -2.1297     0.18069      0.1349
0.15666     0.11963    0.097543     0.22682     -1.8036     0.22682     0.13912
0.15698     0.11963    0.092021     0.19531     -1.4778     0.26579     0.14204
0.14854     0.11963    0.089098     0.14464     -1.1744     0.29275     0.14529
0.13165     0.11671    0.088448    0.081627    -0.90611      0.3038     0.15211
0.10924     0.11054    0.087149    0.015692    -0.68135      0.3051      0.1625
0.088448     0.10242    0.082927   -0.043748     -0.5027     0.30607      0.1742
0.072858    0.093645    0.073182    -0.09182    -0.34614     0.30997     0.18589
0.066362    0.084226     0.06084    -0.12495    -0.18049     0.31451     0.19141
0.069285    0.072533    0.047523    -0.14996    0.012119     0.31094     0.18557
0.076106    0.058566    0.034206    -0.17984     0.20181     0.29048     0.16575
0.080653    0.042001    0.020239     -0.2042     0.30022     0.24728     0.13392
0.081303    0.030957   0.0062721    -0.18926     0.23266     0.18459    0.096244
0.079679    0.030308   0.0023744   -0.097017    0.021863     0.11703    0.063113
0.075456    0.040377    0.016666    0.076431    -0.21622    0.059541    0.040377
0.071234    0.055318    0.046548     0.28626    -0.33737    0.021538    0.029333
0.067336     0.06961    0.076106     0.46685    -0.25033 -0.00054884    0.023487
0.062789     0.07708    0.092021     0.56657    0.032582   -0.012892    0.017965
0.057267    0.073182    0.090722     0.56657     0.41228   -0.017439    0.011469
0.049147    0.061814    0.075456     0.48082      0.7582   -0.013866   0.0036737
0.039727    0.049472    0.054993     0.35089     0.97128   0.0020496  -0.0041217
0.034206    0.042651    0.039402     0.22097      1.0216    0.030957  -0.0073698
0.034855    0.041027    0.032906     0.12158     0.94659    0.067336  -0.0057458
0.039727    0.042975    0.036154    0.063438     0.80855     0.10339   0.0039985
0.044275    0.043625    0.042975    0.039078     0.65686     0.13814    0.019589
0.042975    0.042975    0.053044    0.033556      0.5094     0.17095    0.038428
0.037129    0.039727    0.062789    0.031932     0.36843      0.2044    0.053369
0.032906    0.036154    0.063438    0.025436     0.23201     0.23104    0.057917
0.033231    0.032257    0.051745    0.010819     0.10371     0.24371    0.049796
0.032582     0.02641    0.031282   -0.011917  -0.0044465     0.23981    0.032257
0.028359    0.019264    0.011144   -0.040175   -0.087597     0.21675    0.013418
0.020239    0.011469  -0.0063954   -0.070058    -0.14314      0.1755 -0.00087364
0.012768   0.0062721   -0.019388   -0.095717    -0.16198      0.1284   -0.008669
0.0091954   0.0020496   -0.029457    -0.11553    -0.12495    0.084551   -0.010618
0.011469  -0.0034721   -0.040825    -0.12398   -0.011592    0.053369  -0.0047713
0.01829   -0.012242   -0.048296    -0.12398     0.17322    0.038428   0.0075714
0.022512   -0.022311   -0.046996    -0.11358     0.39312    0.039078    0.021213
0.024461   -0.029457   -0.037577   -0.092794      0.5893    0.049147    0.029658
0.023487   -0.030106    -0.02426    -0.06616     0.71208    0.056942    0.032906
0.023812    -0.02361   -0.013216   -0.042124     0.73904    0.055643    0.031607
0.031282   -0.010618  -0.0021729   -0.028482     0.68642    0.043625    0.024786
0.042651   0.0039985   0.0043233   -0.025559     0.59158    0.021538    0.014717
0.053044    0.012119   0.0046481   -0.031081     0.48764  -0.0093186   0.0056225
0.058241    0.011144  0.00042559   -0.046671     0.39344   -0.041799  -0.0011985
0.056942   0.0046481  -0.0050961   -0.072006     0.32004   -0.068758   -0.007045
0.053369 -0.00087364  -0.0076946    -0.10416     0.27846   -0.085648   -0.013866
0.047198  -0.0011985  -0.0047713    -0.13015     0.27489   -0.088247   -0.022311
0.041027   0.0052977   0.0043233    -0.13437     0.30672   -0.076554   -0.028482
0.032582    0.016341    0.016991    -0.11261     0.35999   -0.057065   -0.028807
0.023812     0.02706    0.029983   -0.078178     0.41813   -0.034654    -0.02426
0.020239    0.031607    0.036479   -0.062262      0.4688    -0.01484   -0.015815
0.022837    0.029658    0.033881   -0.076879     0.50485  0.00075039  -0.0044465
0.028359    0.022837    0.021538    -0.10611     0.52531    0.013093    0.011794
0.03518    0.016341   0.0039985    -0.11261     0.54058    0.019264    0.028684
0.037129    0.015692   -0.007045   -0.076229      0.5565    0.018615    0.043625
0.037129    0.020888  -0.0067202   -0.007045     0.56721    0.010819    0.049472
0.039727    0.029658   0.0026992     0.06961     0.57793  -0.0050961    0.042975
0.043625     0.03453    0.013418     0.13197      0.5893   -0.027508    0.033881
0.044599    0.032906    0.016666     0.16445     0.58216   -0.058365     0.02641
0.036804    0.023162    0.012443     0.16056      0.5094   -0.095068    0.021538
0.023487    0.012768   0.0046481     0.12613     0.28366    -0.13502    0.017316
0.0088706   0.0052977   0.0023744    0.074157    -0.12235    -0.17984    0.008221
-0.0024977   0.0069217    0.003024    0.023812    -0.57838    -0.22532  -0.0067202
-0.010618    0.015692   0.0046481    -0.01484      -0.885    -0.25845   -0.026858
-0.018413    0.023812   0.0075714   -0.034329    -0.92755    -0.27144    -0.04115
-0.023285    0.028034    0.011794   -0.037577    -0.73202    -0.26267   -0.044723
-0.026533    0.025761    0.016016   -0.034329    -0.41858    -0.23701   -0.040175
-0.028482    0.023812     0.01764   -0.028807    -0.11715     -0.2042   -0.032705
-0.03173    0.020888    0.011144   -0.029132    0.083251    -0.17594   -0.026209
-0.036278     0.01894  -0.0031473   -0.036927     0.14204    -0.16328   -0.023935
-0.043423    0.016341   -0.019712   -0.055116    0.063438    -0.16945   -0.030431
-0.052843    0.010819   -0.034654   -0.082725   -0.084349    -0.19251   -0.046996
-0.064861      0.0014   -0.045697    -0.11358    -0.18244    -0.21947   -0.072331
-0.07428  -0.0083442   -0.050894    -0.13924    -0.13729    -0.22889   -0.093119
-0.077853   -0.014191   -0.052843    -0.15451    0.057592    -0.20843    -0.10091
-0.073306   -0.014516   -0.050894    -0.15321     0.32816    -0.15841   -0.096367
-0.06616   -0.010618   -0.044723    -0.14087     0.60327   -0.090845   -0.080776
-0.055116  -0.0060706   -0.035953     -0.1295     0.86474   -0.023935   -0.058365
-0.044723  -0.0021729   -0.026209    -0.12755      1.1389    0.028359   -0.038551
-0.04115  0.00042559   -0.017114     -0.1321      1.4474    0.063438   -0.030106
-0.04115 -0.00087364   -0.011917    -0.14054      1.7596    0.080653    -0.03238
-0.039201  -0.0044465    -0.01484    -0.15483      2.0009    0.084551   -0.041799
-0.035303   -0.012567   -0.025559    -0.17172      2.0883    0.080653   -0.051544
-0.032705   -0.022961   -0.038227    -0.18471      1.9701     0.07773   -0.058689
-0.034978   -0.033679    -0.04862    -0.19154      1.6599    0.080978   -0.058365
-0.041475   -0.043423   -0.056091    -0.19316      1.2435    0.086824   -0.051544
-0.047971   -0.052518   -0.062262    -0.19283     0.81699    0.085525   -0.041799
-0.057065   -0.055441   -0.068758    -0.18536      0.4597    0.074157   -0.033679
-0.066485   -0.051868   -0.070058    -0.15841     0.19271    0.058891   -0.032055
-0.070058   -0.039201   -0.063561   -0.098641   -0.047971    0.048497   -0.025884
-0.061613   -0.019388   -0.051544  -0.0067202    -0.38187    0.049472  -0.0093186
-0.044398   0.0023744   -0.039526    0.096893    -0.89767    0.056617    0.015367
-0.026858    0.021213   -0.029782     0.18264     -1.5346     0.06019    0.040377
-0.0096434    0.032257   -0.022961     0.23071     -2.0926    0.052395    0.056942
0.0036737    0.036479   -0.015815     0.23396     -2.3424    0.032906    0.061165
0.013093    0.034206  -0.0080194     0.20246     -2.1488   0.0069217    0.054668
0.016341    0.027709      0.0014     0.15666     -1.5499   -0.022961     0.04395
0.014717    0.020564   0.0075714     0.11346    -0.75443   -0.053817    0.032582
0.010495    0.014717    0.011469    0.077405  -0.0037969   -0.081101    0.026085
0.0072465    0.013093    0.015042    0.054019     0.55065    -0.09994    0.022188
0.00075039     0.01829    0.020564    0.046873     0.87838    -0.10449    0.019914
-0.0076946    0.029983    0.029333    0.050771      1.0203   -0.087272    0.016016
-0.011592    0.042001    0.041027    0.060515      1.0414   -0.045372    0.013093
-0.0063954    0.048172    0.055318    0.072208      1.0057    0.008221    0.014392
0.0062721    0.049472    0.066686    0.083251     0.95211    0.058241    0.020888
0.020564    0.047847    0.071883    0.095269     0.89137    0.092671     0.03518
0.030308    0.048497    0.072858     0.10469     0.81277     0.11216    0.054019
0.031607    0.053044    0.075456     0.11151     0.69909      0.1232    0.070909
0.029983    0.061165     0.07773     0.10956     0.53506     0.12807    0.078055
0.027709    0.065062     0.07708    0.098842     0.32393     0.12288    0.074806
0.025761    0.062464    0.073182    0.084226    0.088124     0.10761    0.068635
0.02706    0.056617     0.06961    0.073507    -0.15841    0.087799    0.065387
0.032582     0.05272    0.067336    0.070909    -0.43254    0.065387    0.067011
0.037778    0.053694    0.065712    0.078379    -0.74046    0.037454    0.068635
0.037778    0.056942    0.063763    0.090397     -1.0461   0.0046481     0.06896
0.034855     0.06084    0.062139    0.091696     -1.2962   -0.028157    0.067986
0.031607    0.062464    0.063438    0.068635     -1.4476   -0.054142    0.067011
0.033231    0.058241    0.067661    0.021213     -1.4625   -0.061288    0.070259
0.044599    0.053044    0.073507    -0.03238     -1.3238   -0.036927    0.087799
0.065712     0.05142    0.078055   -0.070382     -1.0578    0.017316     0.12158
0.087149    0.054668    0.079679   -0.079152    -0.73072    0.092996     0.16121
0.10014    0.058891    0.076755   -0.064536    -0.41435     0.16965     0.19011
0.10079    0.058891    0.072858   -0.031081    -0.15743     0.23071     0.20083
0.094295    0.054344    0.069285    0.011144    0.025761     0.26352     0.19596
0.086175    0.042326    0.064413    0.052395     0.13067     0.26839     0.18102
0.077405    0.029333     0.05207    0.083576     0.15049      0.2528     0.15991
0.069934    0.020239    0.032582    0.096244    0.092021     0.22682     0.13327
0.069934    0.016991    0.009845    0.091047   -0.014191     0.19888     0.10501
0.078704    0.021863  -0.0050961    0.079029    -0.12398     0.17225    0.076755
0.092996     0.03453  -0.0057458    0.076106    -0.19576     0.15049    0.058241
0.10599     0.05272   0.0072465    0.088773    -0.22337     0.13684    0.051745
0.11411    0.074157     0.02706     0.11183    -0.20485      0.1349    0.055968
0.11703    0.092671    0.045574     0.14009    -0.11845     0.14789    0.063763
0.11703     0.10404    0.058891       0.169    0.063438     0.17452    0.072208
0.11768     0.10664    0.067986     0.19369      0.3366     0.21025    0.075781
0.11801     0.10436    0.074806     0.21155     0.65751      0.2476    0.074806
0.11736     0.10274    0.081952     0.22194     0.96998     0.28106     0.06896
0.11151     0.10144    0.089098     0.22129      1.2266     0.30217    0.057917
0.098842    0.096893    0.095594     0.20603      1.3942     0.30412    0.042001
0.080328    0.086175    0.096244     0.18037      1.4458     0.28301    0.028034
0.064088    0.072858    0.092346     0.15309      1.3526     0.24176    0.020239
0.054344    0.058891      0.0852     0.12872      1.1113     0.19531    0.019264
0.052395    0.048172    0.074157     0.11346     0.77607     0.15731    0.023162
0.056292    0.042651    0.055643     0.10242     0.41163     0.12807    0.027709
0.06084    0.041027    0.033231     0.08585 -0.00022403    0.093321    0.027385
0.062789    0.040702    0.012119    0.055968     -0.5394    0.033231    0.018615
0.058241    0.037129  -0.0080194   0.0065969     -1.2121   -0.064211  -0.0041217
0.045899    0.029333   -0.025884   -0.053492     -1.9205    -0.19121   -0.037252
0.028359    0.020239   -0.040825    -0.10741     -2.5266    -0.32308   -0.071032
0.0043233    0.010819   -0.050894    -0.13989     -2.9173    -0.44001    -0.09929
-0.024909   0.0036737   -0.055441    -0.15093      -3.055    -0.52869     -0.1191
-0.054467 -0.00087364   -0.058689    -0.14314     -2.9761    -0.58585    -0.13015
-0.077853  -0.0024977   -0.061613    -0.13015     -2.7062    -0.61638    -0.13534
-0.096042  -0.0041217   -0.063237    -0.12138     -2.2463    -0.62808    -0.13827
-0.10611  -0.0047713   -0.063237    -0.11683     -1.6376    -0.62483    -0.13989
-0.10644  -0.0041217   -0.063237    -0.11553    -0.97984    -0.60339    -0.14119
-0.097341  -0.0024977   -0.060313    -0.11423    -0.38674    -0.55889    -0.13664
-0.084999 -0.00022403   -0.053492    -0.10709    0.067011    -0.48679    -0.12755
-0.07493    0.003024    -0.04115   -0.089221     0.37298    -0.39389    -0.11651
-0.067784   0.0069217   -0.021986   -0.059339     0.57079    -0.28768    -0.10416
-0.063561    0.012768  0.00075039   -0.019388     0.70136    -0.17854   -0.091495
-0.058365     0.01894    0.022188    0.021863     0.78419   -0.071357   -0.076554
-0.046022    0.024786    0.038428     0.06084     0.80367    0.026735   -0.056416
-0.025884    0.028684    0.046548    0.090722     0.71663     0.11248   -0.033679
-0.0063954    0.029658    0.044599     0.10729      0.5133     0.18297   -0.013541
0.008221    0.029658    0.038753     0.10989     0.23429     0.23201  -0.0011985
0.014068    0.027709    0.033881    0.093321   -0.043099      0.2502  -0.0011985
0.009845    0.021863    0.030633     0.06019    -0.23441     0.23104   -0.015165
-0.0047713    0.010495    0.026085    0.014068    -0.28963     0.18622   -0.034978
-0.019063  -0.0028225    0.021863   -0.030106    -0.19771      0.1362   -0.051544
-0.028482   -0.012892    0.023162   -0.058365    0.042651     0.10209   -0.058365
-0.028807    -0.01484    0.033556   -0.062262     0.45548    0.099817   -0.052843
-0.020687  -0.0060706     0.05207   -0.046996      1.0281     0.13197   -0.034654
-0.0089938    0.011144    0.073182   -0.022636      1.6582     0.18687  -0.0073698
-0.0015233    0.031282    0.086175  -0.0050961       2.176     0.24501    0.023812
0.0014    0.049472    0.087149  -0.0011985      2.4238     0.29178    0.049796
0.0026992    0.062139    0.078055  -0.0028225      2.3251     0.31841    0.066037
0.0075714    0.066037    0.065712   0.0010752      1.9067     0.31971    0.072858
0.013093    0.061489    0.053369    0.020888      1.2805     0.28788    0.072858
0.014392    0.047198    0.039078    0.057917     0.61529     0.22714    0.067986
0.0085458    0.028684    0.019264     0.10112    0.067986     0.15244    0.058566
-0.00054884    0.011144  -0.0018481     0.13879     -0.2867    0.080003     0.05207
-0.0037969  -0.0034721   -0.015165     0.16023    -0.46048    0.023812    0.049796
-0.00022403   -0.011592    -0.01614     0.16803     -0.5001  -0.0073698    0.049796
0.0072465   -0.013541   -0.008669      0.1677    -0.45008   -0.020687    0.050121
0.01829   -0.010293      0.0014     0.16056    -0.32763   -0.026209    0.048497
0.033556  -0.0011985    0.015367     0.15146    -0.14866   -0.031081    0.045574
0.054344     0.01017     0.02706     0.14042    0.015692   -0.036278    0.045574
0.073182     0.01894     0.03518     0.12418    0.022512   -0.040825    0.053044
0.082277    0.021213    0.037454     0.10209    -0.22597   -0.045047    0.062464
0.080003    0.016991    0.033556    0.079354     -0.6349   -0.048296    0.072858
0.06961     0.01017    0.023812    0.061489    -0.93275   -0.047971    0.079354
0.053369    0.008221    0.012443    0.054344    -0.86551   -0.038551    0.081627
0.03518    0.013418   0.0075714    0.061165    -0.36206   -0.021012    0.078704
0.019914    0.023812   0.0085458    0.076431     0.42852  -0.0024977    0.071558
0.016991     0.03453    0.012119    0.090722      1.2181   0.0065969    0.059541
0.021863    0.042651    0.014717    0.092021      1.7635   0.0033489    0.045899
0.027709    0.045899    0.015692    0.075781      1.9756  -0.0099683     0.03453
0.028034    0.042651    0.016666    0.048497      1.9148    -0.02426    0.028359
0.020888    0.035505    0.016016    0.021863      1.7128   -0.029132    0.025761
0.008221    0.027709    0.015042   0.0046481      1.4802   -0.017764    0.029658
-0.0044465    0.022837    0.016666  -0.0041217      1.2662   0.0069217     0.03518
-0.0089938    0.021538    0.021213   -0.010293      1.0638    0.036154    0.037778
-0.0050961    0.025436    0.025111   -0.016464      0.8498    0.059865    0.037454
0.0036737    0.029009    0.027385   -0.022311     0.61594    0.071234    0.033556
0.013093    0.030957     0.02706   -0.025559     0.36843    0.070584    0.028034
0.022188    0.030957    0.024461   -0.021986     0.12905    0.063763    0.025761
0.032257    0.030308    0.023812  -0.0073698   -0.079477    0.061814    0.030957
0.042001    0.030957     0.02706    0.013743    -0.23993    0.075131    0.043625
0.05142    0.038103    0.034206    0.039727    -0.34225     0.10274    0.057592
0.061165     0.05207     0.04395    0.065712    -0.38967     0.13652    0.074482
0.073832    0.067336    0.050771    0.087799    -0.40071     0.16088    0.094945
0.086824    0.076431     0.05272     0.10566    -0.39519     0.17225     0.11606
0.10112    0.074157    0.052395     0.11606    -0.38707     0.17322     0.13327
0.10826    0.064413    0.053694     0.11606    -0.38122     0.16933     0.14269
0.10761    0.055968    0.062789     0.10534    -0.38155     0.16478     0.14854
0.099167     0.05207    0.073832    0.092671    -0.38674     0.16153     0.15731
0.089423    0.056292    0.080653    0.082927    -0.39097     0.15861     0.16705
0.088448    0.063763    0.079029    0.075131    -0.39844     0.15731      0.1755
0.10014    0.069285    0.070584    0.065062    -0.42572     0.15763     0.17745
0.11898    0.070259    0.057267    0.054993    -0.48289     0.15341     0.17062
0.13457    0.065712    0.044275     0.05207    -0.56344     0.14009     0.15828
0.13912    0.055318     0.03583    0.059216    -0.64724     0.11833     0.14237
0.13425    0.042326    0.034206    0.070584    -0.72065    0.092996     0.12385
0.12548    0.032257    0.037454     0.07773    -0.78821    0.067986     0.10209
0.11248    0.030308      0.0433    0.070584    -0.84635    0.041351    0.080978
0.096893     0.03453    0.047523    0.047523    -0.88305     0.01017    0.059865
0.079029    0.042001    0.042326    0.016016    -0.88175   -0.021661      0.0433
0.062464    0.047523    0.030957   -0.017114    -0.80997   -0.045697     0.03583
0.047847    0.048497    0.021213   -0.040825    -0.64139   -0.058365    0.034855
0.038103     0.04395    0.015042   -0.055766    -0.38447   -0.057715    0.037778
0.02706     0.03453     0.01017   -0.073955   -0.073306   -0.043423     0.04395
0.011144    0.023487  -0.0011985    -0.11066       0.258    -0.01614    0.047198
-0.012567    0.014392   -0.020037     -0.1636      0.5893    0.017965    0.045249
-0.036927    0.009845   -0.042449    -0.21167     0.90177     0.05272    0.038753
-0.051219   0.0075714   -0.058689    -0.24188      1.1187     0.08585    0.029658
-0.04992   0.0072465   -0.061613    -0.25325      1.1447     0.11248    0.021538
-0.03238    0.011794   -0.044723    -0.25812     0.95503     0.12872    0.018615
-0.00087364    0.023487   -0.012242    -0.27046     0.60847     0.12937    0.019589
0.032257     0.03453    0.019589    -0.29645     0.19076     0.11118    0.018615
0.05207    0.040377    0.036154    -0.32666    -0.20031    0.075781    0.012443
0.048172    0.037778    0.032257    -0.33932    -0.48386    0.029333  -0.0011985
0.023487    0.028359    0.010819    -0.30587    -0.61346   -0.018738   -0.019063
-0.0067202    0.016016   -0.015165    -0.20355    -0.58683   -0.059989   -0.035628
-0.025884    0.009845    -0.03238   -0.027183    -0.42345   -0.088247   -0.044073
-0.021012    0.016666   -0.032705     0.19336     -0.1636    -0.10319    -0.04115
0.0026992    0.034206   -0.011592     0.39799     0.10501    -0.11001   -0.028807
0.033231    0.054344    0.025111     0.54318     0.26222    -0.11618   -0.010943
0.053369    0.067661    0.063113     0.62828     0.27651    -0.13145   0.0033489
0.06019    0.068635    0.088124     0.67538     0.22584    -0.15516   0.0065969
0.054993    0.058566    0.092671     0.70266     0.20505    -0.18017      0.0014
0.040377    0.038753    0.081627     0.70558     0.22227    -0.19901   -0.008669
0.01764    0.016991    0.065387       0.677     0.18719    -0.21005   -0.019063
-0.0060706  0.00010078    0.052395     0.61659   -0.035303    -0.22012   -0.027833
-0.024585   -0.010943    0.044275     0.52759    -0.52024    -0.24286   -0.034978
-0.032705    -0.01549    0.039727     0.41845     -1.1874    -0.27826   -0.044398
-0.032055   -0.016789     0.03518     0.30152     -1.8198    -0.31594   -0.055441
-0.027833   -0.018413    0.027709     0.19174     -2.1816    -0.33835   -0.062912
-0.02426   -0.019388    0.019589    0.099167      -2.167     -0.3377   -0.063886
-0.022961   -0.022636    0.012119    0.025436     -1.8636    -0.31561   -0.060313
-0.021986   -0.033679   0.0072465   -0.030756      -1.471    -0.27696   -0.053817
-0.018413   -0.048945  -0.0018481   -0.072981     -1.1799    -0.23019    -0.04927
-0.013216   -0.064536    -0.01484    -0.10319     -1.0922    -0.17659   -0.044723
-0.0063954   -0.075579   -0.029782     -0.1191     -1.2157    -0.11553   -0.039201
0.0014   -0.076229    -0.04115    -0.12592     -1.5164    -0.04862    -0.03173
0.0046481   -0.067459   -0.046022     -0.1282     -1.9328    0.020888   -0.021337
0.0043233    -0.04992   -0.046996    -0.12885     -2.3694    0.087474  -0.0080194
0.0049729   -0.025884   -0.045372     -0.1256     -2.7003     0.13749   0.0056225
0.009845   0.0023744   -0.038551     -0.1191     -2.7588     0.16543     0.01829
0.017316    0.029333   -0.025884    -0.11261     -2.4113     0.17355    0.028034
0.025436    0.051745   -0.010293    -0.11098     -1.6541      0.1625    0.030633
0.030308    0.063438  0.00042559    -0.11845    -0.59657     0.14529    0.024461
0.027709    0.061814   0.0033489    -0.13534     0.57891     0.13684    0.015042
0.016991    0.046548  -0.0037969    -0.15743      1.6401     0.14724   0.0075714
-0.00022403    0.025761   -0.017764    -0.17724      2.4485     0.17387   0.0088706
-0.01549   0.0078962   -0.033679    -0.18829      2.9792     0.20668    0.015692
-0.021986  -0.0024977   -0.044073    -0.18764      3.2852     0.23624    0.019914
-0.021337  -0.0024977   -0.045697    -0.17627      3.4512     0.25475    0.019589
-0.016464   0.0052977   -0.036927    -0.15808      3.5483      0.2619    0.017316
-0.011267     0.01764   -0.022636    -0.13924      3.5694     0.26482    0.013093
-0.0054209    0.030308   -0.010293     -0.1204      3.3752     0.26677   0.0095202
0.00010078    0.040702  -0.0050961    -0.10481      2.7619     0.26579   0.0059473
0.00010078    0.044924  -0.0096434   -0.096367      1.6569     0.26222   0.0039985
-0.0060706    0.040702   -0.020362   -0.096692     0.24695     0.25605  -0.0028225
-0.010943    0.031282   -0.032705    -0.10579     -1.0532     0.23786   -0.015165
-0.0099683    0.022837   -0.043423    -0.11845     -1.8656     0.19726   -0.029457
-0.0050961    0.024786    -0.04862    -0.13015     -2.0199     0.13879   -0.042449
-0.00054884     0.03583   -0.044073    -0.13112     -1.5561    0.076106   -0.049595
0.00042559    0.048822   -0.030106    -0.11163    -0.73234    0.025436   -0.051544
-0.00054884    0.054993   -0.011917   -0.072006    0.084551 -0.00087364   -0.046347
-0.0050961    0.053044   0.0075714   -0.025884     0.58313  -0.0037969   -0.030756
-0.014191    0.042326    0.020564   0.0069217     0.64062   0.0026992   -0.011592
-0.024585    0.025761    0.023812    0.012119     0.32653  -0.0031473   0.0069217
-0.03173    0.010495    0.018615  -0.0080194    -0.12398   -0.034004    0.020888
-0.034654   0.0020496    0.012768   -0.039526    -0.43352    -0.09182    0.026735
-0.030756   0.0017248    0.011469    -0.06551    -0.45301     -0.1649    0.024137
-0.020037   0.0088706    0.013418   -0.076879    -0.23279    -0.22954    0.016666
-0.0083442    0.018615     0.01894   -0.070382    0.058241    -0.26332    0.008221
0.0036737    0.026735    0.025111   -0.052843     0.25605    -0.25422   0.0046481
0.013743    0.031282    0.033231   -0.034329     0.29535    -0.20388    0.011144
0.023812    0.033231    0.042326   -0.021012     0.22649    -0.12982    0.028359
0.036154    0.034206     0.05207    -0.01484     0.15179   -0.054467    0.053044
0.050771     0.03518    0.055968   -0.015165     0.18004   0.0020496    0.073182
0.059541    0.033556    0.055318   -0.012567     0.38597    0.027709    0.079029
0.054668    0.029983    0.049472  -0.0083442     0.75625    0.017965     0.06831
0.036479    0.021213    0.037778  -0.0096434      1.1785   -0.025884    0.046548
0.011144   0.0091954    0.023162   -0.022961      1.5183   -0.090845    0.021863
-0.012892  -0.0057458   0.0069217   -0.046671       1.692    -0.16295   0.0033489
-0.031081   -0.017114  -0.0073698   -0.073631      1.7092    -0.22467   -0.008669
-0.043748   -0.019712   -0.014191   -0.096367      1.6488    -0.26267    -0.01549
-0.04927   -0.014191  -0.0057458    -0.10286      1.5891    -0.26916   -0.016464
-0.045697  -0.0050961    0.014068   -0.087272      1.5718     -0.2435   -0.011592
-0.033679   0.0075714    0.042651   -0.047321      1.5923    -0.19348  -0.0047713
-0.017439    0.022188    0.072208   0.0036737      1.6147    -0.12885   0.0020496
0.0010752    0.036804    0.094295    0.041676      1.5952   -0.062587    0.011469
0.017965    0.051096     0.10599    0.050771      1.5098  -0.0018481    0.026735
0.030308    0.064088     0.10794    0.029333      1.3614    0.051096    0.045899
0.040377    0.074157     0.10664  -0.0080194      1.1727    0.099817    0.064413
0.049472    0.080978     0.10306   -0.039526      0.9703     0.14237    0.081303
0.060515    0.087474    0.096893   -0.048945     0.77542      0.1742    0.095269
0.076755    0.093645    0.090397   -0.028807     0.60489     0.19401     0.10729
0.097868    0.099492    0.087799     0.01764     0.47627     0.19921     0.11736
0.11671     0.10339    0.088124    0.083576     0.40384     0.18914     0.12645
0.1284     0.10436    0.092671     0.15861      0.3785      0.1755     0.13457
0.13165     0.10079    0.095594     0.23039     0.37363     0.16803     0.13717
0.1284     0.09462    0.092346     0.28431     0.35024     0.17517     0.13392
0.12418     0.08585    0.080653     0.31484     0.29633     0.19758     0.12548
0.11541    0.074806    0.062789     0.32069     0.21545     0.22649     0.11151
0.10306    0.064737    0.045249     0.31094     0.10501     0.25865    0.093645
0.089423    0.056292    0.034206     0.29892   -0.056416     0.30477    0.075781
0.082602    0.055643    0.029333      0.2908    -0.30879      0.3759    0.062139
0.081952    0.063763    0.031607     0.29178    -0.67875     0.46685    0.053369
0.083576    0.073832    0.039402     0.29503     -1.1513     0.54773     0.04395
0.08585    0.080328    0.051096     0.29405     -1.6626      0.5841    0.030308
0.089098    0.081952    0.063113     0.28171     -2.1329     0.56559    0.015042
0.089423    0.080328    0.070909       0.258     -2.4999     0.49933   0.0046481
0.089423    0.078379    0.070909     0.22649       -2.74     0.40124  0.00010078
0.090722    0.079354    0.064413     0.19174     -2.8813     0.28106  -0.0024977
0.090397    0.082927    0.056617     0.15373      -2.969     0.14594   -0.011267
0.084226    0.084226    0.051096     0.11606     -2.9959    0.009845   -0.021986
0.073832    0.079679    0.047198      0.0865     -2.9008    -0.10124   -0.031081
0.062789    0.068635    0.045574    0.072208     -2.6308    -0.16815   -0.034329
0.056617    0.057592    0.049147    0.070909     -2.1826    -0.19219   -0.033354
0.055643    0.048497    0.055318    0.073182     -1.6038    -0.20453   -0.028157
0.055318    0.040377    0.056617    0.067336    -0.97465    -0.23733   -0.028157
0.050121    0.032906    0.050446    0.049147    -0.36953    -0.30327   -0.040825
0.039727    0.023487    0.042001    0.024137     0.16543    -0.39129   -0.059989
0.028359    0.014717    0.033231      0.0014     0.61529    -0.47802   -0.073631
0.019264   0.0059473    0.026085   -0.016464      0.9703    -0.53746   -0.075904
0.013418  0.00010078     0.01829   -0.026209      1.2201    -0.56474    -0.06551
0.0095202  -0.0015233    0.009845   -0.024585      1.3708    -0.56182   -0.045697
0.0065969   0.0026992   0.0059473   -0.012892      1.4413    -0.53421   -0.019388
0.0046481    0.011794   0.0078962   0.0085458      1.4481    -0.48191    0.016016
0.0072465    0.020564    0.017316    0.036479      1.4137    -0.40753    0.056617
0.01017     0.02706    0.026735    0.064413      1.3484    -0.31724    0.097543
0.009845    0.028034    0.029983    0.084551      1.2532    -0.22337     0.13165
0.0069217    0.024137    0.025111    0.091372      1.1392    -0.13989     0.15309
0.0046481    0.017316    0.014392    0.082277      1.0284   -0.072981     0.15763
0.0033489   0.0075714 -0.00087364    0.058566      0.9349   -0.020362     0.14334
-0.0011985  0.00075039   -0.017764    0.028359     0.84655    0.025111     0.11671
-0.0093186  -0.0057458   -0.034004 -0.00022403     0.73936    0.064088     0.08585
-0.020687   -0.015815   -0.048945    -0.02361     0.54253     0.10144    0.055643
-0.033354   -0.028482   -0.059989   -0.042124     0.14854     0.15341    0.028034
-0.043423   -0.042124   -0.070058   -0.055766    -0.48224     0.23883   0.0033489
-0.050569   -0.052193   -0.077203    -0.06681     -1.2319     0.35641   -0.021337
-0.054792   -0.055766   -0.079152   -0.073306     -1.8906     0.47822   -0.045372
-0.053168   -0.050894   -0.073631    -0.07493     -2.2976     0.56657   -0.066485
-0.044398   -0.037902   -0.060963   -0.072006     -2.4152     0.59158   -0.081426
-0.029132   -0.020687   -0.042774   -0.068758     -2.3015     0.54773   -0.085648
-0.010293  -0.0063954    -0.02426   -0.063886     -2.0592     0.45126   -0.076879
0.0075714   0.0046481   -0.012567    -0.05739     -1.7785     0.32913   -0.057715
0.020564    0.014392  -0.0089938    -0.04862     -1.4908       0.207   -0.034978
0.028359    0.020564  -0.0076946   -0.041475      -1.178     0.10599   -0.013866
0.034855    0.022512  -0.0047713   -0.034004    -0.79503    0.034855    0.003024
0.040377    0.022837   0.0052977    -0.02426    -0.32113   -0.010618    0.015042
0.04395    0.025761    0.022188  -0.0099683     0.20148   -0.039526     0.02706
0.049472    0.033881    0.042651   0.0078962     0.66855   -0.063561    0.043625
0.055643    0.045899    0.057267    0.025436     0.98394   -0.096042    0.061814
0.058566    0.057267    0.061489    0.037129      1.1275    -0.14509    0.075456
0.055643    0.062789    0.055968    0.031932       1.145     -0.2068    0.079029
0.046548    0.057267      0.0433   0.0095202      1.1044    -0.26916    0.071234
0.033881    0.045574    0.029658   -0.018738      1.0525    -0.31918    0.058566
0.021213     0.03453    0.020888   -0.038876      1.0005    -0.34257    0.048497
0.012119    0.027709    0.022188   -0.040825     0.93587    -0.33153    0.046223
0.0075714    0.024461    0.031282    -0.02361      0.8459     -0.2906    0.047198
0.0046481    0.023487    0.043625   0.0056225     0.73189    -0.23214    0.048822
0.003024    0.023487    0.050446    0.034855     0.61041    -0.17107    0.046548
0.0046481    0.025436    0.046223    0.055643      0.5029    -0.12203     0.04395
0.0065969    0.030633    0.034855    0.065387      0.4243   -0.092469    0.044924
0.0043233    0.039078    0.020564    0.067986     0.37168   -0.079152    0.048172
-0.0024977    0.048822    0.010495    0.067011     0.32686   -0.073306    0.053044
-0.013541    0.054993   0.0075714     0.06831     0.26092   -0.069083    0.054993
-0.022311    0.057267    0.012768    0.076755     0.16283   -0.064861    0.058241
-0.025559    0.058241    0.019264    0.088448    0.067011   -0.056091    0.064413
-0.024585    0.058566    0.026085     0.10177    0.008221   -0.036278    0.076431
-0.022961    0.057267    0.032906     0.11443  -0.0063954  -0.0024977      0.0865
-0.022961    0.054668    0.041351     0.12515    0.029658    0.044599    0.095919
-0.019388    0.051745    0.052395     0.13002      0.1232     0.10436     0.10631
-0.011917    0.048172    0.062464      0.1271     0.25605      0.1716     0.11476
-0.0018481    0.044924    0.064413     0.11833     0.38954     0.23526     0.11801
0.011469      0.0433    0.056292     0.10761     0.49251     0.27911     0.10859
0.024461    0.045249    0.040052     0.10112     0.54903     0.29275    0.089748
0.037778    0.047847    0.024461     0.10339     0.57209     0.27391    0.064088
0.051096    0.049472    0.016991     0.11411     0.57793     0.22974    0.040702
0.066037    0.052395    0.017965      0.1258     0.56494     0.16835    0.023487
0.079354    0.055643    0.021538     0.12678     0.52466     0.09397    0.011144
0.085525    0.057267    0.020564     0.11541     0.45093    0.012768   0.0017248
0.0852    0.058566     0.01829    0.096244     0.34115   -0.063561  -0.0060706
0.082927    0.057917     0.01894    0.076106     0.16705    -0.12787   -0.011592
0.080978    0.056942    0.028359    0.063113     -0.1178    -0.17465   -0.010943
0.07708    0.057267    0.039727    0.057592    -0.54135    -0.20355  -0.0050961
0.068635     0.06084    0.048822    0.057917     -1.0649    -0.21785      0.0014
0.059541    0.066686    0.055968    0.059541     -1.5759    -0.22012   0.0065969
0.057267    0.072208    0.061814    0.064413     -1.9543    -0.20258    0.014717
0.063438    0.078704    0.064088    0.071558     -2.1764    -0.15548    0.030308
0.072858      0.0852    0.061814    0.075131     -2.3535   -0.073306    0.054993
0.081303    0.088124    0.055968    0.075456     -2.6546    0.037129    0.083576
0.08585    0.087474    0.049796    0.065387     -3.1125     0.15763     0.10242
0.0852    0.083576    0.043625    0.041027     -3.5585     0.25897     0.10826
0.080978    0.074482    0.038753   0.0062721     -3.7375     0.31906     0.10371
0.074806     0.06084    0.031282   -0.029782     -3.4646     0.34115    0.096244
0.06831    0.045899    0.018615   -0.054142     -2.7169     0.33823    0.087474
0.065062    0.031932   0.0065969   -0.061288     -1.6295     0.32393    0.080328
0.065062    0.020564  -0.0021729   -0.054467    -0.42085     0.30477    0.075781
0.067011    0.016016  -0.0063954   -0.044723      0.6692     0.28268    0.070909
0.06831    0.013418  -0.0028225   -0.036278      1.4413     0.25475    0.064737
0.06831   0.0078962   0.0062721   -0.029782      1.8155     0.22194    0.054668
0.066362   0.0010752    0.013418   -0.020687      1.8148     0.18134    0.044275
0.059541  -0.0037969    0.017316  -0.0050961      1.5501     0.14009    0.033556
0.045249  -0.0050961    0.016341    0.017316      1.1879     0.11248    0.023487
0.023162  -0.0076946   0.0085458    0.037129     0.90112     0.10989   0.0091954
-0.0076946   -0.014516  -0.0021729    0.041027     0.80205     0.12093   -0.012242
-0.045047   -0.027508   -0.012567    0.022837     0.91249     0.11638   -0.043748
-0.084674   -0.045047   -0.024585    -0.01484      1.1759    0.072208   -0.081101
-0.12625   -0.067134    -0.04115    -0.06551      1.4754   -0.011592    -0.11618
-0.16263   -0.088247   -0.060313    -0.12333      1.6988     -0.1204    -0.14444
-0.18666    -0.10416   -0.078827    -0.17789       1.795    -0.22467    -0.15905
-0.19381    -0.11423    -0.09117    -0.21427      1.7895    -0.30035      -0.161
-0.18536    -0.11651   -0.093119    -0.22109      1.7456    -0.34484    -0.15451
-0.16588    -0.11131   -0.085973    -0.19933      1.7411    -0.36823    -0.14216
-0.13404    -0.10384   -0.070707    -0.15711      1.8388    -0.38545     -0.1256
-0.096042   -0.094093   -0.053492    -0.10968      2.0194    -0.40006    -0.10384
-0.060963   -0.082076   -0.039526   -0.072981      2.1896    -0.41111   -0.078178
-0.036602   -0.068434   -0.034004   -0.051219      2.2273    -0.41923   -0.048945
-0.028157   -0.056416   -0.034004   -0.036278      2.0259    -0.42182   -0.021337
-0.037902    -0.04862   -0.036927   -0.016789      1.5384     -0.4163 -0.00022403
-0.05804   -0.046347   -0.037577   0.0085458     0.84395    -0.39974    0.014068
-0.076554   -0.048296   -0.029132     0.03518     0.13392    -0.36628    0.021213
-0.084349   -0.052518   -0.011592    0.057917    -0.33705    -0.30392    0.022512
-0.077853   -0.054142    0.013093    0.073507    -0.33445    -0.19901     0.01894
-0.059339   -0.053168    0.036154    0.082602     0.23169   -0.051219    0.014717
-0.029782   -0.047321     0.05207    0.087799      1.2288     0.11833    0.013743
0.0043233   -0.034329    0.054993    0.088773      2.3553     0.27326    0.014392
0.041676   -0.017114      0.0433    0.081952      3.2569     0.38305    0.014392
0.081303  -0.0015233    0.013418    0.067011      3.6165     0.43989    0.011794
0.11898   0.0075714   -0.026209    0.045574      3.2342     0.45028   0.0049729
0.14951    0.008221    -0.06616    0.021863      2.1666     0.42852  -0.0018481
0.16803   0.0075714   -0.090845  -0.0031473     0.76405     0.39182  -0.0044465
0.17062    0.012443   -0.093769   -0.027183    -0.55435     0.35804  -0.0015233
0.15503    0.029333   -0.077528   -0.050894     -1.5785     0.33433   0.0026992
0.1258    0.060515   -0.050569   -0.072981     -2.4019     0.31776   0.0056225
0.088124    0.099817   -0.021337   -0.090521     -3.1525      0.2921  0.00075039
0.057917     0.14269   0.0062721    -0.10026     -3.7608     0.24143   -0.011267
0.050121     0.18102     0.02706   -0.093769      -3.984     0.16738   -0.027833
0.067986     0.20765    0.041027   -0.065186     -3.6014    0.092671   -0.041475
0.10047     0.21707    0.055318   -0.011267     -2.5613    0.048172   -0.045697
0.13132     0.20993    0.073507    0.058241     -1.0126    0.059541   -0.034978
0.15016     0.19531     0.10079      0.1323     0.71987     0.13197  -0.0083442
0.15341     0.18329      0.1349     0.19693      2.1955     0.24988    0.031607
0.14042     0.17517     0.16543      0.2463      3.1429     0.39247    0.075131
0.11801     0.16803     0.18589     0.28236       3.444     0.52726     0.11313
0.096569     0.16348     0.19953     0.30282      3.1049     0.62243     0.13814
0.082602     0.15926     0.21447     0.30574      2.2302     0.65394     0.14724
0.075781     0.15373     0.22974      0.2908      1.0015     0.61334     0.14172
0.070259     0.14334     0.23559     0.26125    -0.36823     0.51687     0.12645
0.059216      0.1284     0.22552     0.21675     -1.6642     0.39117     0.10599
0.036154     0.10469     0.20246     0.15341     -2.7903     0.26287    0.085525
-0.0044465    0.075131     0.16738    0.058241     -3.7521     0.14984    0.066362
-0.066485    0.039402     0.11736    -0.11033     -4.6079    0.054668    0.046223
-0.14476  0.00075039    0.048822    -0.37862     -4.9685   -0.037577    0.021213
-0.22044   -0.034004   -0.038227     -0.7187     -4.9682    -0.14281   -0.007045
-0.26981   -0.061937     -0.1321      -1.024     -4.9685     -0.2578   -0.029457
-0.27599   -0.081101    -0.21427     -1.1663     -4.9682    -0.37213    -0.04115
-0.24448   -0.088896    -0.26787     -1.0708     -3.6686    -0.47412   -0.043748
-0.18959   -0.086948    -0.27858    -0.76385     -1.3404    -0.56376   -0.039201
-0.13177   -0.077528     -0.2526    -0.35037      1.0548    -0.64562   -0.032705
-0.080451    -0.06681    -0.21395    0.045899      2.8133    -0.72227   -0.033354
-0.032055   -0.059664    -0.18147     0.34082       3.685    -0.79438   -0.046671
0.024137   -0.059664     -0.1623     0.51232      3.7269    -0.84537   -0.071682
0.093321   -0.056416    -0.14671      0.5893      3.2092     -0.8496   -0.097666
0.16965   -0.041799    -0.11845     0.61756      2.4865    -0.78431    -0.10903
0.24046   -0.010293   -0.069083     0.63413      1.8379    -0.64692   -0.096692
0.29762    0.031932  -0.0041217     0.65134      1.4016     -0.4556   -0.058689
0.33628    0.073507    0.059216     0.66011       1.184    -0.24123  -0.0054209
0.35219    0.099492     0.10599     0.64842      1.1184   -0.039851    0.050121
0.33465     0.10371     0.13262     0.60717      1.1226     0.12418     0.10014
0.28171    0.090722     0.14042     0.54155      1.1262     0.24241     0.13912
0.20505    0.072208     0.13782      0.4636      1.0902     0.31257     0.15893
0.12125    0.056617     0.13197     0.37915      1.0148       0.334     0.15991
0.051745    0.047523     0.12807     0.29405     0.94627     0.31354     0.14529
0.0088706    0.042651     0.12515     0.21837     0.92125     0.26969      0.1232
-0.0054209    0.041027     0.12548     0.16185     0.93067     0.22292     0.10631
-0.0011985    0.045574     0.12775     0.12678      0.9349     0.18687     0.10306
0.0095202     0.05272      0.1297     0.11118      0.8852     0.16348     0.11151
0.020239    0.059216     0.13002     0.10631     0.74586     0.14821     0.11963
0.029658    0.063763     0.12385     0.10664      0.5081     0.13425     0.11833
0.041027    0.065387     0.11183     0.10047     0.19856     0.11378     0.10469
0.060515    0.065062    0.094945    0.082602    -0.15126    0.079679      0.0852
0.094945    0.062139    0.079679    0.053369    -0.53486    0.030957     0.06831
0.14009    0.060515    0.064737    0.014068    -0.96912    -0.03173    0.057592
0.17939    0.062464     0.05142   -0.027833     -1.4271    -0.10026    0.054668
0.19661    0.065062    0.040702   -0.063886     -1.7964    -0.16295    0.056942
0.18394    0.066686    0.036154   -0.087922     -1.9312    -0.21492    0.056292
0.1362    0.065062    0.038103    -0.10189     -1.7714    -0.25682    0.046223
0.054019    0.055968    0.042975    -0.10449     -1.3764    -0.28638    0.029658
-0.052518    0.035505    0.047523   -0.097991    -0.88338    -0.29417    0.017316
-0.16718   0.0085458    0.055968   -0.082076    -0.44911    -0.27046    0.016016
-0.26851   -0.018088    0.069285   -0.056741    -0.16588    -0.21752    0.023812
-0.33153   -0.039851    0.084876   -0.027833    0.029333    -0.14216    0.030957
-0.33705   -0.058689     0.09397  -0.0037969     0.31289   -0.047321     0.03518
-0.28573    -0.07493      0.0865   0.0065969     0.79393    0.056292    0.039402
-0.19673   -0.086623    0.061165   0.0046481      1.4156     0.15666    0.046873
-0.10254   -0.089221    0.024786  0.00010078      2.0061     0.24695    0.055318
-0.027183   -0.077853  -0.0050961   0.0075714       2.406     0.33238    0.065062
0.016991   -0.049595   -0.015165    0.032582      2.5554      0.4282    0.074806
0.032582  -0.0083442  -0.0044465    0.066362      2.4881     0.54318    0.082602
0.029009      0.0433    0.017316     0.10144      2.2689      0.6757    0.087474
0.022188    0.093645    0.038103     0.12807      1.9444      0.8027    0.088448
0.02641     0.12807    0.055968     0.14334      1.5608     0.89495    0.089423
0.042326     0.14074    0.073182     0.14886      1.1519     0.92515    0.092996
0.064413     0.13522    0.091696     0.15114      0.7124     0.88585     0.10144
0.086175     0.12223     0.11183     0.15244     0.14334     0.79263     0.10729
0.10371     0.11248     0.13295     0.15633    -0.72032      0.6744     0.10501
0.10859     0.10729     0.15179     0.16153      -1.901     0.55877    0.093321
0.095594     0.10339      0.1638     0.16121     -3.1528      0.4701    0.070909
0.06831    0.095919     0.16575     0.15438     -4.0717     0.40449    0.036804
0.042326    0.087799     0.15958     0.13912      -4.377     0.34115   -0.010293
0.033556     0.08585     0.14951     0.12028      -4.085     0.26125   -0.066485
0.045899     0.08585     0.13392     0.10242     -3.4588     0.16088    -0.11943
0.069934    0.084226     0.11346    0.085525     -2.8335    0.050771    -0.15581
0.090397    0.073832    0.092996    0.071883     -2.3577    -0.05804    -0.16718
0.092346    0.055968    0.076755    0.071883      -1.889    -0.14964    -0.15353
0.077405    0.037778    0.065712    0.092346      -1.216    -0.21135    -0.12527
0.064088    0.026735    0.064088     0.13425    -0.22921    -0.22304   -0.089221
0.065712    0.028359    0.076431     0.19174     0.98881    -0.16393   -0.043423
0.082927      0.0433     0.10306     0.25475      2.2367   -0.034978    0.012119
0.10924    0.065062      0.1323     0.30412      3.3687     0.12385    0.070909
0.1362      0.0852     0.15081     0.32588      4.3389      0.2502     0.12418
0.16413    0.097543     0.15406     0.31322      4.9586      0.2895      0.1716
0.19661     0.10242     0.14139     0.26514       4.958     0.21285     0.21155
0.23136    0.099817     0.11346     0.18557      4.9583    0.029333     0.23948
0.25507    0.094295    0.075131    0.083901      4.2824    -0.21752      0.2502
0.25085    0.089098    0.036479   -0.025234      2.5031    -0.47282     0.24501
0.20765    0.084226   0.0049729    -0.12138    0.011794    -0.68719     0.23006
0.13262    0.078704   -0.010943    -0.19316     -2.8387    -0.84635     0.21155
0.047847    0.074806   -0.011592    -0.23766     -4.9685    -0.95743     0.19304
-0.017764    0.069934  -0.0018481    -0.25455     -4.9682     -1.0178     0.18167
-0.034978    0.067661    0.013418    -0.24578     -4.9685     -1.0055     0.18297
0.0085458    0.069285    0.021538    -0.22369     -4.9682    -0.90774     0.18816
0.096569     0.06961    0.015367    -0.22142     -4.9682    -0.74923     0.18232
0.17874    0.064088    -0.01614    -0.28248     -4.9685    -0.59462     0.14821
0.19563    0.045899   -0.084024    -0.43384     -4.9682    -0.51634    0.078055
0.11638   0.0046481    -0.18147    -0.66543     -4.9685    -0.54265   -0.023285
-0.04927   -0.062587    -0.29515    -0.92787     -4.9685    -0.64854    -0.13632
-0.27079    -0.14314    -0.40786     -1.1562     -4.9688    -0.77716    -0.24058
-0.50692    -0.21914    -0.49588     -1.2943      -3.147    -0.86291    -0.31951
-0.7187    -0.27501     -0.5433     -1.3209     0.19239    -0.85772    -0.36109
-0.86681    -0.30067    -0.54882     -1.2478       3.828    -0.74631    -0.36401
-0.91488    -0.29353    -0.52024     -1.0964       4.958    -0.53843    -0.33023
-0.84472    -0.26039    -0.46957     -0.8902      4.9583    -0.26754    -0.27339
-0.66446    -0.21525    -0.40721    -0.64821      4.9583    0.017316    -0.21135
-0.41046    -0.16912    -0.33185    -0.39032      4.9583     0.27067    -0.15288
-0.13502    -0.12657    -0.24675    -0.14054      4.9583     0.46328   -0.097991
0.11378     -0.0824    -0.15711    0.063438      4.9586      0.5841   -0.045372
0.30672   -0.040175   -0.073306     0.19499      4.9583     0.63445   0.0026992
0.43599  -0.0015233  -0.0018481     0.24988      3.8449     0.62113    0.039402
0.5081    0.030633    0.054019      0.2489      2.7577     0.56104    0.060515
0.54188    0.057592    0.092996     0.21545      2.4345     0.48212    0.071558
0.5565    0.081952     0.11638      0.1625      2.8327     0.41488    0.083901
0.55357     0.10566     0.12548    0.090072      3.4031     0.37525     0.10079
0.53084      0.1258     0.11573    0.011469      3.3456     0.35187     0.11995
0.48731     0.13555    0.084876   -0.048296      2.0165     0.31386     0.13749
0.4282     0.13002    0.039727    -0.05804    -0.55792     0.23494     0.14756
0.36356     0.11541  -0.0031473    0.011469     -3.3691     0.11508     0.14659
0.296    0.095269   -0.027183     0.16445     -4.9682   -0.018738     0.13067
0.21577    0.075781   -0.021012     0.36226     -4.9685    -0.14281     0.10177
0.10761    0.055318    0.010495     0.53376     -3.7254    -0.24253    0.057917
-0.027508    0.028684     0.05142     0.62048    -0.72325    -0.30912  -0.0018481
-0.16945  -0.0028225    0.083576     0.60911      2.5164    -0.33543   -0.073955
-0.28898   -0.037577    0.092996     0.52272      4.6494    -0.32113    -0.15353
-0.36758   -0.073306    0.076431     0.40189      4.9586    -0.27566    -0.22564
-0.39487    -0.10481    0.041351     0.27294       3.255     -0.2133    -0.27728
-0.37798    -0.12398   0.0056225     0.14886      0.1742    -0.14801    -0.29742
-0.339     -0.1269   -0.019063    0.035505      -3.081   -0.094743    -0.28833
-0.29905    -0.11586   -0.034329   -0.061937     -4.9682   -0.067459    -0.26299
-0.27371    -0.10059   -0.046022    -0.14444     -4.9685   -0.080451    -0.23928
-0.26592   -0.089546   -0.061288    -0.20485     -4.9256    -0.13015    -0.22726
-0.26624   -0.086298   -0.077853    -0.22369     -2.7575    -0.17887    -0.22499
-0.26039   -0.084674   -0.088247     -0.1688    -0.15321    -0.16718    -0.21947
-0.23831   -0.076229   -0.082725   -0.029457      2.0818   -0.063886    -0.19706
-0.20225   -0.060638   -0.054792     0.16478      3.4307     0.11021    -0.15808
-0.1649   -0.043423   -0.011267     0.35739      3.7864     0.29405    -0.11521
-0.14249    -0.03303    0.033881     0.50258      3.3183     0.43242   -0.085973
-0.13957   -0.029132     0.06831     0.58281      2.4907      0.5029   -0.076229
-0.14834   -0.026858    0.091696     0.60522      1.8434     0.51784   -0.071682
-0.15158   -0.022961     0.10664     0.59287      1.6706      0.5016   -0.058365
-0.13957   -0.013541     0.11411     0.55552      1.9009     0.47367   -0.028807
-0.11131    0.003024     0.11183     0.49738      2.2663     0.45386    0.008221
-0.071032    0.020888     0.10209     0.42105      2.5265     0.46815    0.042001
-0.028157    0.033231    0.088773     0.33498      2.5768     0.53863    0.065062
0.0052977    0.038428    0.075456     0.25215      2.4508     0.66563    0.078704
0.024786    0.039727    0.071883     0.18719      2.2299     0.82511    0.090397
0.032906    0.039402    0.078704     0.15309      1.9655     0.97615     0.10339
0.036479    0.039078    0.092996      0.1349      1.6579      1.0622     0.11898
0.042001    0.042001     0.10209     0.11054      1.2636      1.0479     0.13327
0.053044    0.049472    0.099492    0.075131     0.68187      0.9271     0.14464
0.073182     0.06084    0.095269    0.051745    -0.18796     0.71793     0.15471
0.10242    0.073832     0.10404    0.067986     -1.3342     0.45775     0.16121
0.13457    0.090722     0.13295     0.13782     -2.5945     0.19823      0.1625
0.15861     0.11346     0.17939      0.2502      -3.716   -0.019712     0.15633
0.16835     0.13652     0.22682     0.37038     -4.4783    -0.18666     0.14756
0.16478     0.15341     0.26157     0.46133     -4.7681    -0.31659     0.13684
0.15373     0.16315     0.27716     0.50518     -4.5602    -0.42117     0.12872
0.14951     0.16835     0.27619     0.50648     -3.9314    -0.49523      0.1271
0.16121      0.1716     0.26352     0.48341     -3.0787    -0.52154     0.13782
0.18622     0.17582     0.24923     0.45158     -2.2586    -0.48938      0.1638
0.2148     0.18134     0.23851     0.42495     -1.6606    -0.40396     0.19921
0.24046     0.18816     0.23331     0.41196     -1.3297    -0.28573     0.23721
0.25832     0.19888     0.23559     0.41131     -1.1903    -0.15483     0.27099
0.26677      0.2096     0.24111      0.4165     -1.1143    -0.01484     0.29795
0.27164     0.21675     0.24501      0.4204     -1.0091     0.12548     0.31776
0.27619     0.22032      0.2463     0.41488    -0.84505     0.24143     0.33173
0.27879     0.22065     0.24273     0.39669    -0.62028     0.30639      0.3392
0.27651     0.21447     0.23169     0.36486    -0.36596     0.30802     0.34342
0.26709     0.20181      0.2148     0.31939    -0.14054      0.2541     0.34407
0.24988     0.18524     0.19499     0.26384  0.00042559      0.1716     0.34277
0.22909     0.16803     0.17615     0.21123    0.028034    0.095919     0.34342
0.21447     0.15666     0.16315     0.17225   -0.057065    0.049796     0.34894
0.21155     0.15049     0.15373     0.14789    -0.23733    0.028034     0.35349
0.21155     0.14529     0.13944      0.1284     -0.4543    0.021538     0.35122
0.20668     0.13717      0.1206     0.10404    -0.59267    0.030633     0.33693
0.19304     0.12418     0.10534    0.070584    -0.49913    0.061489     0.31451
0.17355     0.10631    0.095269    0.029009     -0.0824     0.11054     0.28821
0.15276      0.0865    0.088448   -0.013216     0.59255     0.16315     0.26579
0.12807    0.066037    0.080328   -0.059664      1.3854     0.20051     0.24468
0.096569    0.044924    0.067336    -0.11488      2.1562      0.2057      0.2174
0.049472    0.023487    0.049796    -0.17107      2.7623      0.1768     0.18167
-0.011592   0.0046481    0.029333    -0.21622      3.1092     0.12223     0.13847
-0.078827   -0.010618   0.0095202    -0.24188      3.1845    0.055318    0.094295
-0.13859   -0.021012  -0.0076946    -0.24415      3.0146   -0.022636    0.054668
-0.17854   -0.027183   -0.019712    -0.23051      2.5771    -0.10806    0.025111
-0.19673   -0.031406   -0.027508    -0.22044      1.7999    -0.20615  -0.0021729
-0.19738   -0.037577   -0.039851    -0.23993     0.71857    -0.32243   -0.031406
-0.18634   -0.043099   -0.063886     -0.2984    -0.42345    -0.44911   -0.065835
-0.16588   -0.050244    -0.10059     -0.3822     -1.3147    -0.56247    -0.10059
-0.13924   -0.061613    -0.14152     -0.4673     -1.7552    -0.63522    -0.13437
-0.10579   -0.079152    -0.18147    -0.53031     -1.7185    -0.65828    -0.16328
-0.064211   -0.095717    -0.21037    -0.55727     -1.3699    -0.64269    -0.18861
-0.011267    -0.10546    -0.22077    -0.54428    -0.96393    -0.60794    -0.21362
0.051745    -0.10124    -0.21265    -0.49588    -0.71383    -0.57189    -0.23603
0.11898    -0.08305    -0.19056    -0.42345    -0.69271    -0.54168    -0.25227
0.18199   -0.056741    -0.15938    -0.33932    -0.85317    -0.51212     -0.2591
0.23591   -0.026858    -0.11813     -0.2526     -1.0705    -0.47444    -0.25682
0.27586 -0.00022403   -0.075579    -0.17302     -1.1809    -0.41468    -0.24318
0.2921    0.022512     -0.0405    -0.10124    -0.99089    -0.31756    -0.22239
0.27684    0.040377   -0.016464   -0.033679    -0.37798    -0.17205    -0.19608
0.23331    0.055643  -0.0015233     0.03453     0.61918    0.024461     -0.1623
0.16738    0.070584    0.008221     0.10599      1.8025     0.26644    -0.12463
0.087474    0.084876    0.015367     0.18264      2.9594     0.54415   -0.087597
-0.0024977    0.092996    0.024137     0.26092      3.9072     0.83713   -0.052518
-0.089221    0.089748    0.033231     0.32751      4.4399      1.1132   -0.019063
-0.15743    0.072858    0.039727     0.36583      4.3285      1.3321    0.013093
-0.19641    0.048172    0.039727     0.36389      3.4366      1.4601    0.041027
-0.19803    0.023162    0.035505     0.31874      1.7583      1.4815    0.055318
-0.16523   0.0020496    0.023812     0.23461    -0.59625      1.3977    0.046548
-0.10546   -0.010618   0.0033489     0.12645     -3.2067      1.2308    0.011469
-0.030431    -0.01614   -0.021012    0.014392     -4.9685      1.0229    -0.04115
0.05142  -0.0089938   -0.037252   -0.078503     -4.9685     0.81115   -0.098316
0.13587    0.013743   -0.037902    -0.13632     -4.9685     0.60782    -0.14054
0.21382    0.051096    -0.02426    -0.15743     -4.9682     0.38922    -0.16035
0.26612    0.092346  -0.0044465    -0.15548     -4.9682     0.10599    -0.17075
0.26774     0.12483    0.009845    -0.15873     -4.9685    -0.28248    -0.19576
0.20278     0.13555   0.0056225    -0.20485     -3.8609    -0.78171    -0.25682
0.081627      0.1219   -0.020362    -0.30717     0.22162      -1.328    -0.35167
-0.066485      0.0865   -0.067784    -0.46113      3.5626     -1.8026    -0.46275
-0.20875     0.03583    -0.12657    -0.63555      4.9583     -2.0835    -0.56214
-0.32536   -0.021012    -0.18049    -0.78756      4.9583     -2.1014     -0.6297
-0.40883   -0.075579    -0.21655    -0.87168      4.5474      -1.862    -0.65763
-0.4569    -0.12495    -0.22954    -0.86876      3.6883     -1.4498    -0.64529
-0.46535    -0.16133    -0.22174    -0.79373      3.2267     -1.0071    -0.59884
-0.43157    -0.18439    -0.20485    -0.68524       3.229    -0.68394    -0.53486
-0.36336    -0.19771    -0.19154    -0.58553      3.4944    -0.57189    -0.47087
-0.27891    -0.20453    -0.18829    -0.52381      3.7633    -0.64464    -0.41728
-0.19576    -0.20583    -0.19121      -0.504      3.8572    -0.78106    -0.36238
-0.1204    -0.19706    -0.19413    -0.49588      3.6198    -0.84212    -0.29125
-0.048296    -0.17789    -0.18959    -0.44976      2.9045    -0.75638    -0.19154
0.026085    -0.14411    -0.16977    -0.31691      1.6813    -0.53973   -0.061288
0.10242   -0.098641    -0.12625   -0.084024   -0.040175     -0.2513    0.082277
0.16965   -0.053817    -0.06551     0.20505     -2.2027    0.061814     0.21967
0.20798   -0.023285  -0.0057458     0.46717     -4.5846     0.36389     0.34017
0.2122   -0.014191    0.033231     0.61951     -4.9682     0.62048     0.44249
0.19596   -0.020687    0.040377     0.61334     -4.9682     0.80075     0.52954
0.17712   -0.033679    0.019264     0.45938     -4.9682     0.89689     0.60457
0.17322   -0.047321   -0.021986     0.22292     -4.9685     0.90242     0.66303
0.18524   -0.059664   -0.072656   -0.010293     -4.9685       0.804     0.68934
0.20603   -0.069083    -0.12073    -0.17757     -3.4841      0.5958     0.66953
0.22162   -0.070707     -0.1597    -0.26364    -0.83725      0.2921     0.60164
0.22   -0.063237    -0.18796    -0.29645      1.7011   -0.075904     0.49998
0.19076    -0.04927     -0.2068    -0.30912       3.586    -0.44618     0.38662
0.1258    -0.03303    -0.21622    -0.32243      4.4902    -0.73266     0.28463
0.021538   -0.018738    -0.21492    -0.33575      4.2317    -0.85966     0.21123
-0.10221  -0.0093186    -0.19933     -0.3364      2.9143    -0.81419     0.17257
-0.21492  -0.0047713    -0.17302    -0.31009      1.0671    -0.65374     0.15698
-0.29093  -0.0047713    -0.13794     -0.2474    -0.56019    -0.47509     0.14399
-0.32308  -0.0050961    -0.09994    -0.14541     -1.4466    -0.35556     0.12028
-0.31366   0.0020496   -0.061288   -0.012892     -1.5612    -0.32146      0.0865
-0.26819    0.021213   -0.025234     0.13652     -1.1526    -0.34517    0.051096
-0.19706     0.05272   0.0088706     0.29015    -0.52414     -0.3705    0.024461
-0.10936    0.090072    0.044275     0.43437     0.17939    -0.34809    0.012443
-0.020037      0.1245    0.083576     0.55617     0.93782    -0.26169    0.014717
0.049796     0.15049     0.12678     0.64257      1.7151     -0.1334    0.024786
0.088773     0.16608     0.16705      0.6809      2.4712  -0.0015233    0.040377
0.10047      0.1742     0.20213     0.67213      3.1949     0.10664    0.067661
0.10761     0.18037     0.23039     0.63672      3.8945     0.19011     0.11086
0.13392     0.18979      0.2528     0.59385      4.5049     0.25572     0.16965
0.18069     0.20505     0.26774     0.54805      4.8771     0.28853     0.23429
0.22877     0.21675     0.27067     0.48959      4.8635     0.26709     0.28008
0.25767     0.21837     0.25767     0.41293      4.3376     0.18232     0.28788
0.2541     0.20538     0.22877     0.32004      3.3375     0.04395     0.24858
0.22     0.17907     0.18816     0.22292      2.1338     -0.1334     0.17095
0.16738     0.15049     0.14399      0.1284      1.1181    -0.31561    0.081952
0.11671     0.13067     0.10501    0.045574     0.64744    -0.45203   0.0046481
0.083576     0.12418    0.078379   -0.012567     0.83551    -0.48679   -0.045697
0.07708     0.13035    0.065712   -0.032055      1.4068    -0.39097   -0.066485
0.094945     0.14399    0.069934   0.0095202      1.9288    -0.17497   -0.059014
0.13067      0.1651    0.090397      0.1206      2.1461     0.11931   -0.029457
0.1742     0.19109     0.12288     0.28138      2.0139     0.43372    0.016341
0.21837     0.21025     0.16121     0.44314      1.5894      0.7111    0.067336
0.25735     0.21707     0.19758     0.56072     0.96933     0.92223     0.11281
0.27651      0.2122     0.23039     0.61334     0.25183      1.0739     0.14496
0.26417     0.19953     0.25767     0.61106    -0.51602      1.1951     0.15958
0.22     0.18589     0.27651     0.57404     -1.3059      1.2945     0.15601
0.15861     0.17387     0.28301     0.51947     -2.0368      1.3468     0.13847
0.10469     0.16088     0.27684     0.45938     -2.6256      1.3204     0.11443
0.077405     0.14756     0.25865     0.40254     -3.0521      1.2022    0.089098
0.079354     0.13879     0.23916     0.35252     -3.3276      1.0132    0.063763
0.098193     0.13392     0.22097     0.31257     -3.4133     0.80725     0.04395
0.12678     0.13327     0.21058     0.28918     -3.2155     0.64647    0.030957
0.16121     0.13522     0.21415     0.28885     -2.7146     0.57079    0.023812
0.19044     0.13847     0.22974     0.31354     -2.0173     0.58053    0.020888
0.20765     0.14172     0.24825     0.35544     -1.2917     0.64744    0.024786
0.21025     0.14172     0.25995     0.40091    -0.65049     0.73222    0.037778
0.19856     0.13717      0.2593     0.43469   -0.078178     0.79523    0.054668
0.1729     0.12775     0.24793     0.44606      0.5042     0.81374     0.06831
0.131     0.11508     0.22812     0.42852      1.0697     0.77444    0.073507
0.076431     0.10112      0.2044     0.38078      1.4166     0.67667    0.075781
0.020888    0.086824     0.17874     0.30834      1.2496     0.52694     0.07708
-0.018088    0.075781     0.15633     0.22065     0.48796     0.35317    0.077405
-0.030431    0.067661     0.14172     0.13425    -0.56084     0.18524    0.078055
-0.020362    0.059541     0.12905    0.065387     -1.3751    0.044275    0.083251
0.00042559    0.050446     0.11541    0.022837     -1.5638   -0.050569    0.092671
0.020239    0.041027     0.10047   0.0065969     -1.0383   -0.082076     0.10404
0.029658    0.031607    0.087474    0.010495   -0.071682    -0.04115     0.11281
0.032257    0.021863    0.076106    0.028034     0.87513    0.071883     0.11963
0.039727    0.013093    0.065712    0.046223      1.4484     0.23526     0.13067
0.065387   0.0020496    0.057267    0.053044      1.5407     0.40351     0.15244
0.10436  -0.0096434    0.050121    0.042651      1.2698     0.53149     0.18427
0.1336   -0.022311    0.041027    0.014068     0.88747     0.59742     0.21675
0.13197   -0.036927    0.022512   -0.025234     0.66855     0.59872     0.23006
0.10112   -0.053492  -0.0024977   -0.063886     0.77379     0.53896     0.21155
0.059541   -0.067784   -0.031081   -0.095068      1.1626     0.42592     0.16478
0.01764   -0.077853   -0.057065    -0.11845      1.6745     0.27391     0.10242
-0.033354   -0.086623   -0.080127    -0.13989      2.1425     0.10794    0.044275
-0.10741   -0.096042    -0.10221      -0.161      2.5407   -0.038551   0.0043233
-0.2042    -0.11423    -0.11975    -0.17984      2.9763    -0.15191   -0.016464
-0.30652    -0.14249    -0.12787    -0.19478       3.485    -0.24675   -0.029132
-0.39389    -0.17659     -0.1256    -0.21005       3.915    -0.35719   -0.050569
-0.44099    -0.20778    -0.11261    -0.22824       4.016     -0.4975   -0.090521
-0.43059    -0.22791   -0.093444    -0.25812      3.5947    -0.64692    -0.14996
-0.35849    -0.23409   -0.073631      -0.301      2.6288    -0.76969     -0.2133
-0.24415    -0.23181   -0.056741    -0.35232      1.1275     -0.8418    -0.26851
-0.12365    -0.22986   -0.050894    -0.41013    -0.93372    -0.87461    -0.31399
-0.0405    -0.23798   -0.062587    -0.48549     -3.3152    -0.90059    -0.35296
-0.017439     -0.2539   -0.088572    -0.57838     -4.9685    -0.93047    -0.38772
-0.046996    -0.26429    -0.12527    -0.66998     -4.9685    -0.95841    -0.41533
-0.10416    -0.25812    -0.16685    -0.73039     -4.9682    -0.96263     -0.4241
-0.15451    -0.23116    -0.20128    -0.72097     -4.9682    -0.91293    -0.39941
-0.1701    -0.18277    -0.21817    -0.62353     -4.9682    -0.77327    -0.33672
-0.13762    -0.11228    -0.21005    -0.45236     -4.9682    -0.52998    -0.24091
-0.071357   -0.026858    -0.17919    -0.25227     -4.5446    -0.19771    -0.13794
-0.015165    0.061165    -0.13664   -0.071682     -1.8597     0.19401   -0.057065
-0.01614      0.1362    -0.09182    0.062139     0.93814     0.59677   -0.013541
-0.093769     0.18849   -0.051868     0.15244      3.0984     0.96673  -0.0057458
-0.22304     0.21545   -0.024585     0.20993      4.4457      1.2574   -0.021661
-0.36173     0.22097   -0.010943     0.23656      4.9583       1.425   -0.054142
-0.46372     0.20798   -0.011592     0.22065      4.9583      1.4497   -0.098316
-0.50627     0.17485   -0.022961     0.15503      4.9583      1.3451    -0.14541
-0.47867     0.12418   -0.043099    0.054668      4.5101      1.1545    -0.18114
-0.3861    0.059216   -0.067784   -0.047646        2.86     0.92028    -0.18991
-0.25195   -0.007045    -0.09182    -0.12073     0.48179     0.66855    -0.16945
-0.11163   -0.070058    -0.11683    -0.18082     -2.0569      0.4204    -0.13729
-0.0015233     -0.1217    -0.14769    -0.27404     -4.0275     0.18687    -0.11975
0.063763    -0.16068    -0.18569    -0.39714     -4.9685   -0.035628    -0.13112
0.09397    -0.18147     -0.2107    -0.45366     -4.8743     -0.2435    -0.16555
0.11963    -0.17854    -0.19998    -0.33705     -3.9327    -0.43514    -0.20518
0.16056    -0.15223    -0.14801    -0.03238     -2.7146    -0.61411    -0.23214
0.21317    -0.10676   -0.075255     0.34927     -1.6837    -0.76969    -0.23538
0.25995   -0.053168  -0.0083442     0.65069    -0.98017    -0.86876    -0.21102
0.27684 -0.00054884    0.034855     0.76827    -0.47737    -0.88955     -0.1597
0.25085    0.046223    0.053694     0.69356     0.11606    -0.83465   -0.084349
0.18946    0.086824    0.061165     0.48536      1.0158    -0.72032   0.0095202
0.10956     0.12028     0.06961     0.21772       2.113    -0.58195     0.10761
0.024786     0.13847    0.078704   -0.058689      3.0338    -0.47119     0.18751
-0.043748     0.13392    0.074482    -0.31431      3.4742    -0.43157     0.23006
-0.072981     0.11151    0.048822    -0.52316      3.4382    -0.47314     0.23071
-0.045372    0.078379  -0.0021729    -0.65504      3.0939     -0.5826     0.19044
0.025436    0.038428   -0.073631    -0.68135      2.4021    -0.73169     0.12548
0.11801  -0.0057458    -0.14671    -0.58813      1.0638     -0.8889    0.056617
0.2044   -0.044073    -0.20128    -0.42085     -1.0822     -1.0386   0.0023744
0.25475   -0.072006    -0.23636    -0.31756     -3.6101     -1.1929   -0.038876
0.25702   -0.091495    -0.26364    -0.41078     -4.9685     -1.3693   -0.080451
0.21415    -0.10644    -0.29158    -0.69466     -4.9682     -1.5509    -0.12917
0.11606     -0.1191    -0.31204     -1.0214     -4.9682     -1.6837    -0.17237
-0.062262    -0.13242    -0.31009     -1.2131     -4.2419     -1.7133    -0.19673
-0.32211    -0.14281    -0.27599     -1.1624     -1.6921     -1.6213    -0.19608
-0.61476    -0.13989    -0.21005    -0.86161     0.60619     -1.4547    -0.17172
-0.85901    -0.11423    -0.11683    -0.40039      2.0155     -1.2852    -0.13177
-0.96588   -0.063886   -0.010618     0.09462      2.4664     -1.1673   -0.086623
-0.8863  -0.0024977    0.087474     0.49706       2.239     -1.0981   -0.048296
-0.63717    0.055318     0.16185     0.73514      1.8229     -1.0162   -0.022311
-0.29288    0.097543     0.20473     0.81667      1.6907     -0.8457  -0.0018481
0.053044     0.12385     0.22065     0.80238      1.9847      -0.542    0.025436
0.32556     0.14334      0.2187      0.7569      2.5115    -0.11586    0.067986
0.5042     0.16413      0.2096     0.72702      2.9887     0.38435     0.12905
0.60749     0.19239     0.20473     0.72929      3.1514     0.89007     0.20538
0.65978     0.22682     0.21058     0.76372      2.8574       1.323     0.29015
0.6848     0.26255     0.22617     0.80985      2.0867      1.6069     0.36648
0.69421     0.28756     0.23721     0.83323     0.86474      1.7044      0.4178
0.69194     0.29113     0.22682      0.8014    -0.77879      1.6319     0.43762
0.67927     0.27716     0.18492     0.72182     -2.6425      1.4565     0.43307
0.65556     0.25443     0.11963     0.63997     -4.3354      1.2594     0.41943
0.61139     0.22682    0.050771     0.59287     -4.9685      1.0918     0.39864
0.53343     0.19531   0.0026992      0.5854     -4.9685     0.96088     0.36876
0.4191     0.16185   -0.011592      0.5945     -4.5641     0.84622     0.32718
0.28268     0.12515   0.0010752     0.57858     -2.8459     0.71922     0.27814
0.13652    0.084551    0.019589     0.49868    -0.66413     0.55909     0.22227
-0.0037969    0.032906    0.021538     0.34212      1.5871     0.35641     0.15276
-0.1256   -0.026858  -0.0015233     0.13327      3.3745       0.131    0.067336
-0.21817   -0.088896   -0.035303   -0.072656       4.221    -0.06681   -0.021337
-0.27664    -0.13989   -0.059339    -0.22532      3.8705    -0.18017   -0.096042
-0.29775    -0.16523   -0.061613    -0.28995       2.695    -0.17465    -0.14606
-0.28313     -0.1636   -0.037252    -0.26657      1.5231    -0.05804     -0.1649
-0.24415    -0.14119   0.0049729    -0.18569     0.95731     0.11866    -0.16068
-0.18407    -0.10871    0.047847   -0.097666     0.90242     0.27911    -0.14476
-0.11683   -0.077528     0.07708   -0.047971     0.82089     0.36421    -0.12657
-0.056741   -0.054142    0.089423   -0.047321     0.42787     0.35641    -0.10806
-0.01549   -0.041799    0.086824   -0.082725    -0.06681     0.28008   -0.091495
0.009845   -0.040825    0.075456    -0.12625    -0.29872     0.18004   -0.077203
0.026085   -0.045047    0.064737    -0.15256    -0.10903    0.097218   -0.060963
0.037129   -0.045697    0.061489    -0.14671     0.31127    0.053369   -0.040175
0.040377   -0.036278    0.070584    -0.11196     0.60847    0.056942   -0.011917
0.040702   -0.015815    0.092671   -0.055766      0.5435     0.10014    0.028034
0.045574    0.015042     0.12613    0.009845     0.11313     0.16121    0.080003
0.058891    0.050446     0.16218    0.080978    -0.45658     0.21967     0.13684
0.080003    0.086175     0.19758     0.15438    -0.81809     0.26839     0.19369
0.10404     0.11703     0.23396     0.23526    -0.70733     0.30445     0.24143
0.1245     0.13749     0.26352     0.31906   -0.089871     0.31679     0.27099
0.13749     0.14561     0.27944      0.3837     0.84947     0.29762     0.27684
0.14074     0.14139     0.27879     0.40643      1.7739     0.25507     0.26125
0.13425      0.1258     0.25995     0.37655       2.366     0.23039     0.23266
0.12288     0.10501     0.22747      0.3012      2.5294     0.27879     0.19986
0.10859      0.0865     0.18654     0.19271      2.3783     0.42722     0.16965
0.088773    0.071234     0.14334    0.061165      1.9785     0.63542     0.14594
0.066686    0.059865     0.10177     -0.0824       1.338     0.82641     0.13425
0.043625    0.054668    0.062464    -0.22564     0.56007      0.9375     0.13652
0.024137    0.051745    0.028034    -0.35524    -0.11748      0.9349     0.14821
0.012443    0.053369   0.0059473    -0.44878    -0.44229     0.80465     0.15861
0.012119    0.058241  -0.0037969    -0.48126    -0.32633     0.56072     0.15763
0.01764    0.063763  -0.0063954    -0.45463     0.11995     0.25313     0.14042
0.024786    0.064088   -0.012242    -0.41143     0.62211   -0.059339     0.11086
0.0433    0.062789   -0.025559    -0.38869     0.89624     -0.3325    0.080653
0.0865    0.071558   -0.035303    -0.35946     0.82024     -0.5459    0.064088
0.15828     0.10047   -0.026858    -0.24708     0.55747    -0.68167    0.074157
0.24923     0.15081    0.014392  -0.0063954     0.46425    -0.72942     0.11151
0.3431     0.21447    0.089748     0.31971     0.83258    -0.68589     0.17387
0.43145     0.28301     0.18881     0.63997      1.6144     -0.5537     0.25832
0.50907     0.34732     0.29892     0.88033      2.4388     -0.3416     0.35869
0.56689     0.39539     0.39539      1.0005      2.8568   -0.067134     0.46652
0.58963      0.4178     0.45743      1.0028      2.5375     0.22454     0.56494
0.57371     0.41683     0.48082     0.92743      1.3945     0.47302      0.6403
0.52889     0.39572     0.47302     0.84493    -0.35329      0.6299      0.6822
0.46652     0.35804     0.44444     0.81017     -2.2037     0.67538     0.68512
0.40416     0.31516     0.40416      0.8368     -3.6923     0.62406     0.65102
0.35771     0.27846     0.36291     0.89657     -4.6154     0.51979     0.59125
0.32686      0.2528     0.32491     0.93132     -4.9682     0.40903     0.51525
0.29503     0.22877     0.28853     0.88455     -4.9685     0.30932     0.42527
0.24371     0.19823     0.24111     0.72864       -4.76     0.21902     0.32231
0.16283     0.15114      0.1716     0.46847     -3.9856     0.12515      0.2044
0.05207    0.080978    0.072858     0.13327     -2.4733    0.020239    0.072858
-0.085324  -0.0047713   -0.046996    -0.23181    -0.28378   -0.067134   -0.066485
-0.24123   -0.093119    -0.17205    -0.58975      1.8723    -0.12203    -0.20323
-0.40916    -0.17757     -0.2906    -0.91781      3.0643    -0.17757     -0.3351
-0.57741     -0.2565    -0.39584     -1.2059       2.912    -0.28183    -0.45853
-0.72292    -0.32243    -0.48419     -1.4368       1.681    -0.46567    -0.56799
-0.81484    -0.36888    -0.55077     -1.5944  -0.0067202    -0.72389    -0.65309
-0.82556    -0.39681    -0.58942     -1.6782      -1.493     -1.0198    -0.71155
-0.75248    -0.41078    -0.60144     -1.6973     -2.2856     -1.3014    -0.74891
-0.61476    -0.41825    -0.59332     -1.6564     -2.2755     -1.5226    -0.76742
-0.45041     -0.4202    -0.57253     -1.5528     -1.8442     -1.6636    -0.76839
-0.29223     -0.4163     -0.5459     -1.3904     -1.5223      -1.722    -0.74826
-0.17692    -0.39746    -0.51764     -1.1812     -1.5346     -1.6999     -0.7096
-0.13437    -0.36791    -0.48549    -0.94346     -1.6977     -1.6048    -0.66251
-0.16555     -0.3312    -0.44164    -0.68882     -1.6139     -1.4391    -0.60924
-0.23538    -0.28443    -0.37798    -0.42637     -1.0146     -1.1955    -0.54103
-0.28151    -0.22272    -0.29482     -0.1727   0.0065969    -0.86908    -0.45138
-0.26397    -0.14671    -0.20128     0.05207      1.0541    -0.49101     -0.3403
-0.18114   -0.065186    -0.10741     0.23494      1.6917     -0.1191    -0.22012
-0.060638   0.0065969    -0.02361     0.37136      1.5806     0.17777    -0.10449
0.059216    0.055968    0.042326      0.4662      0.6718     0.35739  -0.0021729
0.15438    0.083576    0.088773     0.52564    -0.63425      0.4282    0.087799
0.21837    0.095594     0.12223     0.55942     -1.6996     0.43664     0.17192
0.25475     0.10306     0.15373     0.57631     -2.0998     0.44574     0.24598
0.26709     0.11378     0.19271     0.58995     -1.7509     0.50193     0.30185
0.25995     0.13425     0.23429     0.60911    -0.87233     0.62373     0.33368
0.23818     0.16445     0.27229      0.6351     0.14139     0.79523     0.34342
0.20603     0.19791     0.29957     0.65751     0.76567     0.97972     0.33563
0.17095     0.22389     0.30802     0.65361     0.57533      1.1298     0.31581
0.14009     0.23299     0.29795     0.60976    -0.29515      1.2032     0.28528
0.12028     0.21902     0.26514     0.52661     -1.1591      1.1801     0.24566
0.11054     0.18199     0.21382     0.40514     -1.4427      1.0447     0.19141
0.10177     0.12743     0.14334     0.23818     -1.1465     0.77866     0.11898
0.078379    0.064413    0.058891    0.029983    -0.60859     0.38597    0.022837
0.031607  0.00075039   -0.032705    -0.19283    -0.06681   -0.079477   -0.092145
-0.035953   -0.051868    -0.11683    -0.38674     0.40481    -0.52934    -0.20843
-0.11423    -0.08305    -0.17789    -0.51245     0.77639     -0.8889    -0.30847
-0.18764   -0.087922     -0.2042    -0.55337     0.99076      -1.113    -0.37765
-0.23961   -0.076229    -0.20096    -0.51797      1.0385     -1.1754    -0.40916
-0.26429   -0.056091    -0.17854    -0.43287      1.0395      -1.074    -0.40461
-0.26494   -0.036278    -0.14736    -0.32503      1.2071    -0.84148    -0.36921
-0.24578   -0.019063    -0.11456    -0.21687       1.642    -0.52869    -0.30944
-0.21135  -0.0024977   -0.085324    -0.11943      2.2042    -0.19706    -0.23214
-0.16425    0.015042   -0.060313     -0.0405      2.6918    0.096569    -0.15093
-0.10871    0.034206   -0.034329    0.017965      2.9909     0.31322   -0.085324
-0.052843    0.055643  -0.0067202    0.066037      3.0884     0.43989   -0.042774
-0.0093186     0.07708    0.022837     0.11541      3.0075     0.48861   -0.018738
0.012119    0.092346    0.055643     0.17517      2.8266     0.48439  -0.0057458
0.0095202    0.098517    0.091372     0.24176      2.6934     0.45613   0.0033489
-0.0041217    0.096569      0.1245     0.30607      2.7928     0.43047    0.016666
-0.0089938    0.089098     0.15114     0.36291      3.2368     0.43047    0.041351
0.010495    0.081627     0.17322     0.41033      3.9085     0.47205    0.081303
0.062464    0.084876     0.19726     0.45158      4.5347     0.55747     0.14009
0.14659     0.10534     0.22779     0.49186      4.8518       0.677     0.21058
0.25637     0.14009     0.25865     0.53473       4.766     0.81504     0.28301
0.36811      0.1781     0.28463     0.57988      4.3226     0.95374     0.34407
0.45223     0.21285      0.3025     0.62633      3.5798      1.0781      0.3889
0.48309     0.23981     0.31386     0.66628       2.544      1.1707     0.41748
0.45321     0.25735     0.32296     0.68804      1.0866      1.2077     0.43274
0.36876     0.26027     0.32556     0.67213    -0.90254      1.1541     0.42982
0.25248     0.24955     0.31679     0.60652     -3.1707     0.99369     0.40708
0.13912     0.22584     0.29535     0.49673     -4.9688     0.75171     0.36811
0.056617     0.19369     0.26482     0.36616     -4.9685     0.47952     0.32231
0.0075714     0.15341     0.22357     0.23526     -4.9682     0.22422     0.27164
-0.02426     0.11021      0.1729     0.10664     -4.9685   0.0095202     0.21772
-0.056416    0.058566     0.11833    -0.02361     -4.9685    -0.15353     0.15861
-0.096367 -0.00087364    0.070909    -0.14964     -4.8327    -0.25033     0.09462
-0.12852   -0.057715    0.035505    -0.25455     -3.8252    -0.26494    0.039402
-0.12722   -0.096367    0.017965    -0.32925     -2.7877    -0.20615   0.0049729
-0.078178    -0.10968    0.016666    -0.36791     -1.6554    -0.11813   -0.011917
0.009845    -0.09929     0.02641    -0.36563     -0.3757   -0.051544   -0.021661
0.10826   -0.074605    0.039727    -0.31399      1.0746   -0.028482   -0.037577
0.17712   -0.046022    0.045249    -0.21362      2.5888   -0.051868   -0.063237
0.18167   -0.030756     0.03583   -0.081426      3.9855    -0.11651    -0.10319
0.1206   -0.036278    0.011144    0.054344      4.9586    -0.19186    -0.15158
0.025111   -0.056416   -0.021337     0.15926       4.958    -0.22012    -0.18407
-0.059339   -0.080451   -0.055441     0.20798      4.9583    -0.14866    -0.17984
-0.10936   -0.098641    -0.09182     0.18784      4.1914    0.035505    -0.14509
-0.13404    -0.11196    -0.13404     0.10436      2.2211     0.27716    -0.10806
-0.15516    -0.13015    -0.18894   -0.021337    -0.45625     0.48147    -0.10189
-0.18959    -0.15711    -0.25325    -0.16393     -3.1603     0.57858    -0.13372
-0.23344    -0.18569    -0.30879    -0.28086     -4.9682     0.55617    -0.18666
-0.27111     -0.2042    -0.33932     -0.3377     -4.9685     0.45775    -0.22954
-0.28476     -0.2016    -0.33607    -0.32828     -4.9685      0.3366     -0.2435
-0.26949    -0.17887    -0.29937    -0.26819     -4.9682     0.21642    -0.22726
-0.22986    -0.14411    -0.24773    -0.18829     -4.9682     0.10209    -0.19121
-0.16945    -0.10611    -0.20063    -0.10774     -4.9682   -0.017764    -0.14639
-0.086948   -0.067134    -0.16782   -0.037577     -4.8928    -0.16328    -0.10579
0.010819   -0.029132    -0.14866    0.019914     -3.2597    -0.35394   -0.083375
0.11183   0.0049729    -0.14087    0.056942        -1.1    -0.59007    -0.08305
0.18816    0.029983    -0.14379    0.071234     0.98979    -0.84245   -0.098641
0.2161    0.041351    -0.14996     0.06961      2.1857     -1.0568    -0.11618
0.18816    0.043625    -0.14801     0.06896      2.0854     -1.1809    -0.11293
0.1206    0.045249    -0.12657    0.086175     0.97322     -1.1854   -0.077203
0.042975    0.050771    -0.08305     0.12515    -0.20713     -1.0724   -0.012892
-0.023285    0.062139   -0.025234     0.17777     -0.5066    -0.88727    0.065712
-0.071682    0.072533    0.030633     0.22649     0.43274    -0.70506     0.13847
-0.10124    0.076755    0.076106     0.25443      2.2179    -0.57286     0.18914
-0.10189    0.075131     0.11313     0.26384      4.0034    -0.48386     0.22227
-0.067134    0.073182     0.14107     0.26092       4.958    -0.41208     0.24955
-0.0028225    0.073507      0.1638     0.24306      4.7582    -0.33867     0.27749
0.073182     0.07708     0.17842     0.20181      3.4216    -0.25292     0.30542
0.14334    0.087149     0.18589     0.13944      1.7992    -0.14152     0.32556
0.19628     0.10566     0.18784    0.066686     0.59612    0.013418     0.33433
0.23786     0.13262     0.18524  -0.0089938    -0.13469     0.21058     0.32946
0.27846     0.15958     0.17712   -0.091495    -0.83888     0.43177     0.31192
0.31322     0.17355     0.15991    -0.18959      -1.915     0.65621     0.28788
0.31971     0.16121     0.12613    -0.31236     -3.4256     0.85532     0.26157
0.28106     0.11898    0.065712    -0.44196     -4.9682     0.97225     0.22292
0.19563    0.057592    -0.01484    -0.51439     -4.9685     0.94627     0.16283
0.076106  -0.0024977   -0.089221    -0.48516     -4.9685     0.75885    0.083901
-0.056416   -0.039526    -0.13112    -0.40071     -3.7323     0.44996  -0.0034721
-0.1753   -0.043423    -0.13957    -0.36531    -0.74338     0.10177   -0.090845
-0.2578   -0.021012    -0.12787    -0.42962      2.5716    -0.19348    -0.17205
-0.288    0.008221    -0.11098    -0.53973      4.9586    -0.35979    -0.24253
-0.26916    0.024137    -0.10156    -0.59722       4.958    -0.37213    -0.29677
-0.22174    0.017316    -0.10091      -0.542      4.9583    -0.26592    -0.32958
-0.17075  -0.0076946    -0.10676    -0.38122      4.9583    -0.11228    -0.33478
-0.13502   -0.042774    -0.11261    -0.16718      4.9583   0.0020496    -0.30977
-0.11683   -0.074605    -0.11358    0.040377      4.0881    0.011794    -0.25455
-0.11228   -0.096042    -0.10838     0.19791      2.8714   -0.095068    -0.18244
-0.12073    -0.10579    -0.10221     0.28106      1.8528     -0.2945    -0.10774
-0.14509    -0.10644    -0.09929     0.29113      1.0996     -0.5459   -0.046347
-0.18439    -0.10286    -0.10156     0.24566     0.53701    -0.79698   -0.011267
-0.23181   -0.097666    -0.10514     0.17322    0.047847    -0.99608  -0.0073698
-0.27241   -0.095717    -0.10351     0.11248    -0.37733      -1.113   -0.028807
-0.28216   -0.085648   -0.090521    0.089748    -0.64789      -1.139   -0.064211
-0.2435   -0.059664   -0.064536     0.10566    -0.70213     -1.0714    -0.09117
-0.16588   -0.023285   -0.030106     0.13944    -0.60794    -0.93502   -0.094418
-0.079152   0.0085458   0.0052977     0.16413    -0.47542    -0.77229   -0.070382
-0.019063    0.024137    0.039402     0.15536    -0.36076    -0.64627    -0.02361
0.0072465    0.027709    0.071234     0.11801    -0.27176    -0.61476    0.036804
0.021213    0.032906     0.10047    0.089098    -0.20225    -0.69564     0.10306
0.064088    0.050446     0.12937     0.11346    -0.16555    -0.83108     0.16835
0.16218    0.078055     0.16121      0.2174    -0.19186    -0.91975     0.22844
0.30542     0.11021     0.20376     0.39247    -0.27566     -0.8863     0.27911
0.45905     0.14139     0.25962     0.60489    -0.41208    -0.72617     0.31711
0.58995     0.16835     0.32296     0.80302    -0.64302    -0.48549     0.34245
0.6848     0.19109      0.3772     0.94399    -0.99413    -0.20063     0.35544
0.74586     0.20928     0.41456      1.0135     -1.4011     0.13912     0.35901
0.77866     0.22259     0.43047      1.0187      -1.748     0.53571     0.35869
0.78289     0.23429     0.43047     0.97842     -1.9221     0.94756     0.36194
0.74911      0.2463     0.42365     0.91996     -1.8458      1.3107      0.3746
0.67213     0.25605     0.41261     0.86311     -1.5824      1.5699     0.39669
0.55715     0.26384     0.39799     0.81634     -1.2982      1.7057     0.41975
0.42657     0.26612      0.3785     0.77931      -1.074      1.7424     0.43502
0.29145     0.26579     0.35414     0.74748    -0.84342      1.7157     0.44476
0.15503     0.27164     0.32751       0.715    -0.50238      1.6605     0.45386
0.019914     0.29145      0.3038     0.67992   -0.041799      1.6352     0.46977
-0.10286     0.31711     0.28073     0.63023     0.48179      1.6917     0.48829
-0.19154     0.33368     0.24858     0.54545      1.0369      1.8216     0.49511
-0.22272     0.33465     0.20408     0.41358      1.5507      1.9632     0.48017
-0.17562     0.32556     0.15179     0.24468      2.0422       2.035     0.44216
-0.046022     0.31289     0.10144    0.067986      2.7087      1.9957     0.39214
0.14399     0.29568    0.061489   -0.078503      3.9504      1.8723     0.35284
0.347     0.26677    0.036804    -0.17367      4.9583      1.7368      0.3366
0.5055     0.22454    0.023812    -0.22272      4.9586      1.6349     0.34342
0.58021     0.16998    0.011144    -0.26364      4.9583       1.555     0.35512
0.56039     0.11021   -0.010293    -0.34062      4.9586      1.4413     0.34992
0.461    0.043625   -0.053492    -0.47834      4.9583      1.2305     0.30899
0.30347   -0.026858    -0.12365      -0.669       4.958     0.89267     0.22552
0.10924   -0.099615    -0.21297    -0.87688     0.53181     0.43307     0.10696
-0.10124     -0.1701    -0.30229     -1.0601     -4.9682    -0.10254   -0.032705
-0.30912    -0.23116    -0.37538     -1.1867     -4.9682    -0.64919    -0.17984
-0.50465    -0.28086    -0.42052     -1.2504     -4.9682     -1.1572    -0.31983
-0.68622    -0.32211    -0.43839     -1.2563     -4.9682     -1.5908    -0.44651
-0.85804    -0.36109    -0.43482     -1.2183     -4.9682     -1.9319    -0.56019
-1.013    -0.40136    -0.42377     -1.1575     -4.9682     -2.1852    -0.65991
-1.1335    -0.43774    -0.41533     -1.0922     -4.9682     -2.3616    -0.74403
-1.1958    -0.46243     -0.4137     -1.0318     -4.9682     -2.4701    -0.81062
-1.1825    -0.46827    -0.40883     -0.9753     0.18297     -2.5126    -0.85804
-1.0877    -0.45106    -0.39292    -0.91391      3.7666     -2.4769    -0.88338
-0.92917    -0.41403    -0.36303     -0.8418      4.9323      -2.346     -0.8863
-0.73949    -0.36661    -0.32276    -0.75378        4.26     -2.1072    -0.86746
-0.55792    -0.32211    -0.28183    -0.63945      2.8815      -1.763    -0.83368
-0.41468     -0.2919     -0.2487    -0.49848      1.8258     -1.3459    -0.79178
-0.31886    -0.27728    -0.22597    -0.34549      1.4406    -0.91781    -0.73916
-0.25682    -0.26884    -0.21005    -0.20745      1.4897    -0.55337    -0.66868
-0.2029    -0.25227    -0.19348    -0.10449      1.6144    -0.30944    -0.58488
-0.13599    -0.22239    -0.17562   -0.040175      1.6872    -0.19608     -0.4962
-0.051219    -0.17984    -0.15646  -0.0034721      1.8119    -0.16718    -0.40721
0.048822    -0.12885    -0.13307    0.023812      2.1162    -0.15776    -0.32048
0.16348   -0.073631   -0.098965    0.057267      2.5963    -0.12203    -0.23636
0.28138    -0.01614   -0.052518     0.10112      3.1296   -0.048296    -0.15191
0.38662    0.044924   0.0036737     0.15666      3.5613    0.051096   -0.067459
0.47042     0.10729    0.069285     0.22714      3.7981     0.15666    0.014068
0.52239     0.16543     0.14269     0.30997      3.8283     0.24955    0.088124
0.52694      0.2096      0.2187     0.39669      3.6805     0.32134     0.14854
0.47789     0.23429     0.28593     0.48082       3.357     0.36908     0.19271
0.38532     0.24176     0.33335      0.5526      2.9013     0.40124     0.22389
0.27651     0.24143     0.36064     0.60489      2.4381     0.44249     0.25345
0.1781      0.2463     0.37883     0.64095       2.113     0.51525     0.29503
0.11898     0.26222     0.39312     0.66888      2.0042     0.61853     0.34797
0.11411     0.28268     0.40481     0.69519      2.0298     0.72897     0.40773
0.16705     0.30445     0.41715     0.72799      1.8781     0.81829     0.47107
0.26612     0.32621     0.43469     0.76762      1.1249     0.87513     0.53506
0.39539     0.34862     0.45483     0.80562    -0.41858      0.8917     0.59093
0.53603     0.36746     0.47172     0.82544     -2.3642     0.85759     0.62081
0.66661     0.37688     0.47724     0.81115     -4.0545     0.77379     0.61626
0.7647     0.37298     0.46587     0.76307     -4.9682     0.65946     0.58508
0.82219     0.35934     0.43989     0.69421     -4.9682     0.55585     0.54675
0.84493     0.34472     0.41131      0.6273     -4.9685     0.51914     0.52012
0.85662     0.34602     0.39572      0.5945     -4.5336     0.57533     0.51167
0.88163     0.36681     0.39734     0.62211     -3.6654     0.69779     0.51557
0.92645     0.39831     0.41033     0.70948     -2.5288     0.81797     0.51492
0.95633     0.41715      0.4204     0.82316     -1.0942     0.83745     0.48114
0.9232     0.39864     0.40026     0.89397     0.41293     0.66953     0.38662
0.80595     0.32523     0.32491     0.84752      1.6742     0.30477     0.22194
0.62568     0.20246     0.19044     0.64842      2.7337    -0.15646     0.01017
0.42365    0.059541    0.021863     0.32263      3.6565     -0.5537    -0.20615
0.23916   -0.063237    -0.14411   -0.060313      4.1118    -0.78236    -0.38122
0.093645    -0.14314    -0.28118    -0.42897      3.6805    -0.84635    -0.48581
-0.012892    -0.17497    -0.38025    -0.73656      2.4599    -0.83368    -0.51764
-0.10384    -0.17205    -0.43936    -0.95776      1.1181     -0.8366    -0.50238
-0.20778    -0.15646     -0.4634     -1.0864     0.30152    -0.93372    -0.48126
-0.34712    -0.15288    -0.46535      -1.138   -0.014516     -1.1377    -0.49036
-0.51992    -0.17919    -0.46178     -1.1419    -0.53746     -1.3586    -0.53648
-0.69661    -0.23506    -0.45853     -1.1172     -1.8198     -1.4583     -0.5878
-0.8366     -0.2997    -0.45366     -1.0584      -3.588      -1.342    -0.60437
-0.90644    -0.34809    -0.43839    -0.95581     -4.9682     -1.0295    -0.56864
-0.90124    -0.36433    -0.40688    -0.80802     -4.9682    -0.63555    -0.49198
-0.84375    -0.34647    -0.35849    -0.62483     -4.0899    -0.28508    -0.40363
-0.75865    -0.30554    -0.29385    -0.42962     -1.5431   -0.039526    -0.32113
-0.66348     -0.2578    -0.22109    -0.26332      1.6716     0.11281    -0.25422
-0.56636    -0.22109    -0.15516     -0.1714      4.4341     0.22584    -0.19738
-0.47412    -0.20225    -0.10774    -0.18991       4.958     0.34764    -0.14444
-0.39779    -0.19543   -0.086298    -0.31301      4.9583     0.48861   -0.090521
-0.34614    -0.19024   -0.092145    -0.47899      4.6829       0.639   -0.027508
-0.31399    -0.17562    -0.11163    -0.58942      2.5297     0.78094    0.055318
-0.27761    -0.14087    -0.12138    -0.57091     0.55195     0.91313     0.16673
-0.22174    -0.08305    -0.10286    -0.41728    -0.60631      1.0359     0.29925
-0.14866  -0.0054209    -0.05804    -0.18277    -0.81387      1.1288     0.43957
-0.065186    0.080978  -0.0018481    0.060515    -0.31854      1.1587     0.57014
0.022512     0.16088    0.054019      0.2528      0.5133      1.1035     0.67408
0.11151     0.21967    0.099817     0.37006       1.325     0.97063     0.74326
0.19401     0.25605     0.13814     0.43989        1.87     0.78873     0.77769
0.258     0.27651     0.17582      0.5159      2.0529     0.58865     0.77899
0.29048     0.29048     0.21902     0.63705      1.9197     0.40059     0.74683
0.28528      0.3038     0.26482     0.79978      1.5683     0.25832     0.68804
0.25085     0.31322     0.30347     0.95796      1.0496     0.19239     0.60587
0.19986     0.31159     0.32004      1.0596     0.36226     0.22292     0.51525
0.14464     0.29405     0.31322      1.0801    -0.54882     0.32848     0.42917
0.095269     0.26417     0.29113      1.0226     -1.7188     0.43404     0.35317
0.062139     0.22974     0.25767     0.90696     -2.9914     0.43989     0.28333
0.053369     0.20181     0.21545     0.75593     -3.9515      0.2921     0.21577
0.075131     0.18622     0.16608     0.60197     -4.2198    0.029658     0.15763
0.12385     0.18362      0.1232     0.47302     -3.7264    -0.24221     0.11703
0.18687     0.18589    0.095269     0.39474     -2.6114    -0.42377    0.095269
0.2489     0.18557    0.088448     0.37883     -1.1556    -0.45723    0.095919
0.30542     0.17355    0.098842     0.41423     0.22194      -0.339     0.11248
0.34602     0.14367     0.11801     0.46425      1.1343     -0.1204      0.1336
0.36096    0.093321       0.131     0.48894      1.4845     0.12483     0.14074
0.34115    0.030633      0.1258     0.46685      1.4841     0.32946     0.12807
0.29015   -0.025559     0.10371     0.39864      1.4738     0.45646     0.10242
0.22194   -0.058365     0.07708     0.30347       1.846      0.5094     0.07773
0.15179   -0.064211    0.057267     0.21447      2.8503     0.51557    0.065387
0.089098   -0.052193    0.053369     0.15861      4.4308     0.50875    0.064737
0.037454    -0.03303    0.064088     0.14561      4.9583     0.50842    0.072858
-0.0021729   -0.016464    0.078055     0.15341       4.958     0.49153    0.080328
-0.030106  -0.0057458    0.084226     0.14367       4.958     0.39019    0.077405
-0.047646  -0.0015233    0.080653    0.095919      4.0521      0.1349    0.058241
-0.062912  -0.0034721     0.06961     0.01894      1.5127    -0.27404    0.020888
-0.081426  -0.0031473    0.054993   -0.059664    -0.35556    -0.76027   -0.031406
-0.10026   0.0088706    0.045249    -0.11975      -1.369     -1.2247   -0.092794
-0.11293    0.034206    0.042651    -0.15516     -2.3928     -1.5921    -0.15093
-0.11066     0.06831    0.044599    -0.17367     -4.3562     -1.8305    -0.19543
-0.090845    0.099167      0.0433    -0.18894     -4.9682     -1.9504    -0.22661
-0.063237     0.11248    0.030957    -0.21947     -4.9682     -1.9997     -0.2565
-0.0405     0.10047   0.0078962    -0.27241     -4.9682      -2.026    -0.30197
-0.038227    0.061165   -0.028807    -0.35459     -4.9682     -2.0498    -0.37473
-0.062587  0.00075039   -0.086298    -0.47055     -4.9678     -2.0472    -0.47055
-0.10481   -0.069733      -0.161    -0.60112     -4.9685     -1.9543    -0.56864
-0.14931    -0.13697    -0.23961    -0.71025     -4.9685     -1.7048    -0.64107
-0.17692    -0.19024    -0.29872    -0.76255      -1.023     -1.2969    -0.67193
-0.17919    -0.21914    -0.32243    -0.74566      2.9721    -0.80347    -0.65374
-0.16035    -0.22272    -0.30717     -0.6729      4.7209    -0.32633    -0.59625
-0.12625    -0.20745    -0.26397    -0.56636      4.4834    0.070584    -0.51537
-0.082725    -0.18471    -0.21265    -0.44943        3.14      0.3876     -0.4267
-0.044723    -0.16653     -0.1675    -0.33932      1.7875     0.66368    -0.33965
-0.037252    -0.15905    -0.13469    -0.24578      1.1606     0.93132    -0.25942
-0.081101     -0.1597    -0.11326     -0.1662      1.4565      1.1899    -0.18861
-0.1727    -0.15808   -0.095068   -0.094743      2.4849       1.401     -0.1282
-0.288    -0.14574   -0.071682   -0.027508      3.8962      1.5238   -0.080451
-0.38934    -0.11878   -0.039201    0.036154      4.9583      1.5533   -0.038876
-0.43124   -0.076229 -0.00022403    0.098193      4.9583      1.5277   0.0052977
-0.38739   -0.019063    0.038428     0.16315      4.9583      1.4971    0.057267
-0.26657     0.04395    0.075781     0.23006       4.958      1.4825     0.11573
-0.10968    0.097218     0.10664     0.28593      3.4629      1.4653      0.1677
0.029983     0.12678      0.1271     0.31614      1.2578      1.4029     0.19986
0.11118     0.12678     0.13132     0.30542    -0.93372        1.26     0.20213
0.12515    0.099817     0.11801     0.24825     -2.4412      1.0216     0.17615
0.089423    0.057917    0.091047     0.15406     -2.8848     0.69162      0.1336
0.036154    0.016016    0.055318    0.047523     -2.1235     0.30542     0.08585
-0.011592    -0.01614     0.01894   -0.045697    -0.33997   -0.063237    0.038753
-0.046671   -0.034978  -0.0093186    -0.11066      1.8418    -0.34484  -0.0057458
-0.072006   -0.046671   -0.027833    -0.14899      3.6142    -0.52057   -0.051219
-0.092145   -0.054792   -0.035628    -0.16328      4.5315    -0.60014   -0.096042
-0.10026   -0.058689    -0.03303    -0.14639      4.5708    -0.59852    -0.12138
-0.088896   -0.056416   -0.020362   -0.097991      4.0449     -0.4962    -0.10449
-0.061937   -0.047646   0.0017248   -0.029782      3.3323    -0.28313   -0.039201
-0.02426   -0.035303    0.022837    0.040377      2.6619   -0.011917    0.048172
0.014392    -0.02426     0.03453    0.087149      2.1536     0.22324     0.11736
0.054668   -0.019388    0.037454     0.10371       1.922     0.35252     0.14919
0.10112   -0.017114    0.038103     0.10047      2.0305     0.37233     0.14886
0.15666   -0.008669    0.042001    0.093321      2.3923     0.33855      0.1336
0.21155    0.011144    0.051096    0.090397      2.7678     0.31354      0.1232
0.24858    0.042651    0.061165    0.093645      2.8779     0.32004     0.12288
0.24858    0.081952    0.067661     0.10014      2.5749     0.34407     0.13262
0.21252     0.11671    0.073182     0.11054      1.9249      0.3759     0.15244
0.15666     0.14432    0.080653     0.12483      1.1278     0.41878     0.18264
0.10534     0.16673    0.094945     0.14139     0.35674     0.47822     0.22552
0.078704     0.19304     0.11313     0.15536    -0.34387      0.5422     0.27976
0.083251     0.22324     0.13262     0.16315    -0.99641     0.56819     0.33465
0.11021     0.24923     0.14919     0.16608     -1.5509     0.52726     0.37688
0.14464     0.25767     0.16348     0.17095     -1.8906     0.43177     0.39637
0.17777      0.2476     0.17939     0.19141     -1.9176     0.33725     0.39994
0.207     0.22617     0.19823     0.23104     -1.6499     0.30022     0.40254
0.23851     0.20051     0.21512     0.28366     -1.1968     0.33011     0.41261
0.28463     0.17777     0.22844     0.33043     -0.6362     0.38857     0.42852
0.34635      0.1625     0.23559     0.35414    0.016016     0.43242     0.44184
0.4191     0.15601     0.23234     0.35576     0.72832     0.44671     0.43794
0.48666     0.15471     0.21675     0.34602      1.3468     0.45158     0.41033
0.52856     0.15471     0.19596     0.33335      1.6024     0.48049     0.37136
0.53668     0.15341     0.17874     0.32263      1.3211     0.53766      0.3405
0.51427     0.14691     0.16673     0.31257     0.66596     0.58995     0.32491
0.4649     0.13035     0.15731     0.29308   -0.019063     0.58833     0.31224
0.39084    0.097218     0.14074     0.25215    -0.55564      0.5159     0.28333
0.29568    0.053694     0.10924     0.18199     -1.1747     0.39767     0.23104
0.18654    0.009845    0.061489    0.089098     -2.3021     0.27132     0.15828
0.074482   -0.023935   0.0062721   -0.014191     -3.9804     0.14529    0.077405
-0.029457   -0.042774   -0.045697    -0.11586     -4.9685   0.0085458   0.0036737
-0.11586   -0.046671   -0.085973    -0.19901     -4.9685    -0.15223   -0.055116
-0.17919   -0.043748    -0.11196     -0.2513     -4.9685     -0.3351    -0.10579
-0.22499   -0.048945    -0.12982    -0.27891     -3.8323    -0.50822     -0.1623
-0.26169   -0.069733    -0.15158    -0.30619     -1.3014    -0.63425    -0.23051
-0.2919    -0.10709    -0.18277    -0.34744      1.1226    -0.70765    -0.30457
-0.30554    -0.15321    -0.21979    -0.39681      2.9253    -0.75703     -0.3757
-0.29158    -0.18959    -0.24773    -0.43384      3.8377    -0.80867    -0.42572
-0.24578    -0.20355     -0.2539    -0.44294      3.4905    -0.85089    -0.43644
-0.17465    -0.19348    -0.23668    -0.42897      1.6391    -0.86226    -0.40136
-0.097341    -0.16912     -0.2042    -0.41858     -1.3511      -0.847    -0.33413
-0.039526    -0.14249     -0.1714    -0.42929     -4.2633    -0.83725    -0.25585
-0.026533     -0.1269    -0.14704    -0.46178     -4.9685    -0.87331    -0.19251
-0.064211    -0.12268    -0.13404    -0.49328     -4.9685    -0.97919    -0.16523
-0.13307    -0.12333    -0.12657    -0.50205     -4.4517     -1.1403    -0.17919
-0.19868    -0.12365    -0.12365    -0.48256     -1.9237     -1.3167    -0.22889
-0.23701     -0.1243    -0.13047    -0.45203     0.43047     -1.4658    -0.29775
-0.24643    -0.13275    -0.14996    -0.42897      1.7508     -1.5437    -0.36758
-0.23409    -0.14899    -0.17952    -0.41825      1.8314     -1.5148     -0.4189
-0.21785    -0.16912    -0.20908    -0.41695     0.83031     -1.3826    -0.43612
-0.21849    -0.18699    -0.23279    -0.42085    -0.82199     -1.2108    -0.41858
-0.24026    -0.19738    -0.24935    -0.42052     -2.4106     -1.0838     -0.3822
-0.27469    -0.19251    -0.25292    -0.39681     -3.3691     -1.0526     -0.3442
-0.30457    -0.16653    -0.23636     -0.3325     -3.4932     -1.0958    -0.31236
-0.31918    -0.12008    -0.19738    -0.22629     -2.8995     -1.1348    -0.28346
-0.30327   -0.056091    -0.14216   -0.092145     -1.8545     -1.0831    -0.24675
-0.2474    0.014068   -0.079802    0.041027    -0.64724    -0.89702    -0.19511
-0.15776     0.07708   -0.022636     0.15276     0.46587    -0.59105     -0.1308
-0.055766     0.12515    0.027385     0.23266      1.3068    -0.22272   -0.055116
0.033231     0.15601    0.066686     0.28008      1.8437     0.13555    0.027709
0.10014     0.17192    0.096893     0.30737      2.1247     0.42885     0.11671
0.14951     0.17647     0.11898     0.32198      2.2208     0.63607     0.20376
0.20051      0.1781     0.13912      0.3314      2.1779     0.76762     0.27879
0.26157     0.18329     0.16315     0.34829      2.0353      0.8459     0.33498
0.32621     0.19174     0.19369      0.3772       1.846     0.88845     0.37201
0.38175     0.20311     0.22747     0.41748      1.6595     0.90047     0.39247
0.4191      0.2161      0.2593     0.46328      1.4725     0.87773     0.39994
0.4308     0.22974     0.28756      0.5029      1.2149     0.81147     0.39344
0.41033     0.24143     0.30867     0.52272     0.80173     0.70104     0.37038
0.35576     0.24533     0.31711     0.51882     0.18784     0.57241      0.3327
0.27229     0.23494     0.31094     0.48764    -0.56084     0.46035     0.28821
0.16608     0.20895     0.28593     0.43242     -1.2355     0.38013     0.24306
0.038103     0.17225     0.24403     0.35966     -1.5882     0.31744     0.20376
-0.10286     0.12743     0.19076     0.28463     -1.4774     0.25085     0.17452
-0.23474    0.076755     0.13555     0.22194    -0.98731     0.18557     0.15244
-0.32633    0.024137    0.090397     0.18362    -0.36433     0.14821     0.13262
-0.35167   -0.025559    0.061489     0.16998     0.14107     0.15861     0.11151
-0.30587   -0.067134    0.050446     0.17712     0.39929     0.22194    0.095269
-0.21037   -0.095393    0.054344     0.19628     0.43502     0.32686    0.093321
-0.094418    -0.10644    0.067011     0.21577     0.38825     0.44704     0.10144
0.015692    -0.09929    0.082927     0.23169     0.43794     0.55065     0.10469
0.095269   -0.089871    0.089098     0.23721     0.69194     0.61431    0.083251
0.13295   -0.094418     0.07708     0.22682      1.1269      0.6299    0.037454
0.13944    -0.10936    0.048497     0.20116      1.6569     0.60879   -0.016789
0.13749    -0.11228    0.018615      0.1703      2.1877     0.58053   -0.051868
0.13879   -0.080127   0.0043233     0.15276      2.5966     0.57144   -0.045372
0.14139   -0.013541     0.01017     0.15893      2.7805     0.58183    0.010495
0.1297    0.065062    0.029983     0.18881      2.7321      0.5984     0.10891
0.096244     0.12937    0.053694     0.23786      2.5849     0.62536     0.22259
0.041351     0.16218    0.069934      0.2973      2.5284     0.69162     0.32004
-0.015165     0.17225    0.080003     0.36356       2.685     0.82349     0.38337
-0.051544     0.18102    0.094945     0.44216      3.1286      1.0314     0.41715
-0.048296     0.21188     0.12678     0.54155       3.879      1.3107     0.43762
0.010495     0.27619     0.18167     0.66043      4.7326      1.6092     0.46523
0.13035     0.36941     0.25865     0.78386      4.9583      1.8395      0.5081
0.30802     0.47952     0.34797      0.8878      4.9583      1.9249     0.56657
0.53084     0.58475     0.43307     0.95146       4.284      1.8518     0.63055
0.78191     0.66076     0.49673     0.97128      2.3705      1.6829     0.69129
1.0151     0.69259     0.52791     0.94172   -0.057065       1.501     0.73969
1.1701     0.67408     0.51719     0.83973     -2.5941       1.312     0.76048
1.1889     0.60522     0.45743     0.63088     -4.9682      1.0177      0.7228
1.0427     0.49543     0.34407     0.30542     -4.9688     0.52304     0.59645
0.74651     0.35609     0.19304   -0.095717     -4.9682     -0.1662     0.37753
0.36486      0.2096    0.031282    -0.49685     -4.9682    -0.94022     0.10144
0.00010078    0.084551    -0.11618    -0.81906     -4.9678     -1.6597    -0.16782
-0.25682  -0.0028225    -0.23376     -1.0175     -4.9678     -2.2219    -0.37927
-0.35589    -0.04992    -0.31464     -1.0906     -4.9675     -2.5873    -0.51667
-0.30944   -0.068434    -0.36076     -1.0653     -4.9682     -2.7754     -0.5969
-0.17562   -0.080127    -0.37765    -0.98536     -4.9682     -2.8222    -0.64886
-0.042449    -0.10416    -0.37473    -0.89539     -4.9685     -2.7578    -0.69109
0.0046481    -0.15061     -0.3705    -0.83336     -0.5472     -2.6104    -0.73656
-0.073306    -0.22044    -0.38285    -0.81809      3.6211      -2.409    -0.78301
-0.25227    -0.30262    -0.41403     -0.8418       4.958     -2.1859    -0.81744
-0.46243     -0.3744    -0.44943    -0.87103      4.9583     -1.9617    -0.82231
-0.6297    -0.41533     -0.4673    -0.86811      4.9583     -1.7301    -0.79308
-0.71253    -0.41825    -0.45301    -0.81549      4.9586     -1.4606    -0.73721
-0.70636    -0.39519    -0.40948    -0.72325      4.9586     -1.1172      -0.669
-0.64367    -0.36498    -0.35686     -0.6232       4.958    -0.68199    -0.59852
-0.56247    -0.34095    -0.31626    -0.54752      4.9583    -0.19738    -0.53096
-0.49458    -0.33023    -0.30035    -0.51504       4.958     0.23559    -0.46827
-0.45366    -0.33348    -0.30782    -0.51797       4.958     0.53116    -0.40948
-0.44131    -0.34062    -0.32406    -0.53096      4.9583     0.68577    -0.35459
-0.44651    -0.34225     -0.3299    -0.52479      4.1177     0.75203    -0.30619
-0.45106     -0.3299    -0.31561    -0.47704      2.2988     0.80075    -0.27209
-0.43806    -0.30067    -0.28086    -0.38512     0.93067      0.8852    -0.25065
-0.40623    -0.25715    -0.22954     -0.2591     0.26125      1.0369    -0.23409
-0.36044     -0.2068     -0.1688    -0.11845     0.22357       1.248    -0.21362
-0.31431    -0.15386    -0.10838    0.012443     0.57663      1.4695    -0.18991
-0.27371    -0.10579   -0.056741     0.11573      1.0317      1.6433    -0.16133
-0.23766   -0.062587   -0.017439     0.18492       1.351      1.7252    -0.13307
-0.19381   -0.026209    0.014717     0.22812      1.3913      1.6985    -0.10351
-0.1334   0.0043233    0.046223     0.25345      1.1499       1.577   -0.071682
-0.048945    0.028684    0.084226     0.26807     0.74781      1.4042   -0.035628
0.050121    0.048172     0.12385     0.27619     0.35934      1.2305   0.0052977
0.14659    0.064413     0.15536     0.28236     0.10404      1.0707    0.050446
0.22552    0.077405     0.16998     0.28853  -0.0083442     0.90501    0.094945
0.28073    0.082602     0.16835     0.29827   -0.056741     0.69584      0.1362
0.30834    0.080978     0.16088     0.30704    -0.14541     0.40611     0.16965
0.3051    0.070259     0.15926     0.31289    -0.35102    0.025761     0.19239
0.27489    0.059865     0.16933     0.31127    -0.70213    -0.40201     0.20083
0.23234    0.061489     0.19141     0.30542     -1.1552    -0.80477     0.20635
0.19401    0.081303     0.22389     0.30704     -1.6109     -1.1059     0.21837
0.17647     0.11931      0.2619     0.34017     -1.9536      -1.254     0.24923
0.18849     0.17257     0.30445      0.4269     -2.0783     -1.2449     0.30217
0.23656     0.23104     0.35024     0.56949     -1.9299     -1.1098      0.3746
0.32101     0.28333     0.39604     0.73839     -1.5044    -0.87948     0.46198
0.4269     0.31906     0.43177     0.88975    -0.80737    -0.56376      0.5539
0.53019     0.33725     0.45158     0.99174     0.14496    -0.16912     0.63997
0.60554     0.34082     0.45483      1.0372      1.2376     0.27359     0.70851
0.64062      0.3379     0.44541      1.0385      2.2975     0.70006     0.74748
0.63932      0.3353     0.42852      1.0154      3.1985      1.0486     0.75528
0.61464     0.33693     0.41228     0.98264      3.8088      1.2893     0.73709
0.57501     0.33823     0.40189     0.94204      3.8932      1.4176     0.70461
0.51427     0.33205     0.39442     0.89007      3.2287      1.4465     0.66758
0.42365     0.31159     0.38825     0.82414      1.7372      1.3789      0.6338
0.29827     0.27586     0.37558     0.73936    -0.55045      1.1798      0.5971
0.15893     0.22844     0.34635     0.63315     -3.3535     0.81439      0.5461
0.041027     0.18232     0.29892     0.51525     -4.9682     0.31354     0.47237
-0.035628     0.14432     0.24176     0.39507     -4.9678    -0.22986     0.37558
-0.07493     0.11151     0.17874     0.26677     -4.9682      -0.707     0.25767
-0.10189    0.072858     0.10891      0.1219     -4.9685     -1.0571      0.1258
-0.14054    0.018615    0.033556   -0.029782     -4.9682     -1.2559  -0.0067202
-0.19738   -0.045372   -0.042774    -0.16718     -4.9682     -1.3154     -0.1269
-0.26624    -0.10709    -0.11586    -0.28183     -4.9682     -1.2751    -0.23051
-0.33348    -0.15776    -0.17692     -0.3822     -4.9688     -1.1738    -0.31561
-0.38155    -0.19348    -0.22629    -0.47607     -1.7607     -1.0273     -0.3822
-0.39714     -0.2146    -0.26429    -0.56182      1.7982    -0.83465    -0.42215
-0.37635    -0.21947      -0.288    -0.63035       4.308    -0.59819    -0.42929
-0.32666    -0.21232     -0.2932    -0.67615       4.958    -0.33737    -0.40721
-0.26007    -0.19738    -0.27793    -0.69953      4.9586   -0.079152    -0.36173
-0.19478    -0.18407    -0.25487    -0.70765      4.9274     0.15601    -0.30424
-0.14769    -0.17627    -0.23961      -0.707      3.7588     0.34245    -0.25033
-0.1256    -0.17594    -0.24156    -0.70636      2.5122      0.4571    -0.21817
-0.1282    -0.18277    -0.25975    -0.71188      1.3513     0.48536    -0.21687
-0.14899    -0.19478    -0.28508    -0.72292     0.19953     0.43242    -0.24156
-0.17594    -0.20745    -0.30457    -0.72682    -0.83823     0.32263    -0.27858
-0.20128    -0.21297    -0.30782    -0.70863     -1.3972     0.18881    -0.31236
-0.22207    -0.20518    -0.29417    -0.65796     -1.1078    0.038103    -0.33737
-0.23993    -0.18504    -0.26916    -0.57968    0.095269    -0.14152    -0.35686
-0.25357     -0.1597    -0.23766    -0.48094       1.745    -0.34387    -0.37798
-0.25065    -0.13177     -0.2055    -0.36888      3.1338    -0.53226    -0.39746
-0.21655    -0.10254    -0.17205    -0.25357      3.8208    -0.64594    -0.40299
-0.15711    -0.07493    -0.13567    -0.14249      3.7533    -0.65666    -0.38674
-0.089871   -0.055116   -0.098965   -0.044398      3.0721    -0.59819    -0.35037
-0.034329   -0.049595   -0.065835    0.026735      1.9844    -0.52966    -0.30554
-0.0041217   -0.051868   -0.040825    0.069285     0.77964     -0.4962    -0.26559
-0.0060706   -0.054792   -0.022636    0.087474    -0.24578     -0.5118    -0.23993
-0.032705    -0.04992   -0.007045    0.092021    -0.87168    -0.55532    -0.23181
-0.066485   -0.033354    0.010819    0.088773     -1.0292    -0.57383    -0.23149
-0.093444  -0.0067202    0.031607    0.084551     -0.7947    -0.53193    -0.22564
-0.10514    0.023487    0.050771    0.080653    -0.32016    -0.44521     -0.2029
-0.0824    0.049472    0.061165    0.084226     0.21837    -0.33478    -0.15808
-0.0096434    0.063438    0.063438     0.10047     0.65654    -0.19186   -0.090845
0.10501    0.062464     0.06084     0.13262     0.89137    0.011794  -0.0041217
0.23396    0.056942    0.066362     0.18654     0.90144     0.28691    0.097868
0.33887    0.058566    0.086175     0.26255     0.74813     0.60197     0.20668
0.39474    0.075781     0.12223     0.35089      0.5513     0.88618     0.30964
0.39994     0.11118      0.1703     0.43762     0.38662      1.0716     0.39182
0.36389     0.15861     0.22584     0.51265     0.25637      1.1278     0.44476
0.30574     0.20505     0.28528     0.57274     0.14432      1.0681     0.46945
0.24858     0.23331     0.34082     0.61431    0.038753      0.9258     0.47984
0.21935     0.23429      0.3837     0.62763    -0.03173     0.73709     0.48634
0.23786     0.21317     0.40871     0.60229    0.016341     0.55357     0.49868
0.31094     0.18492     0.41391     0.53343     0.24143     0.42365     0.52044
0.4308     0.16283     0.40189      0.4295      0.5906     0.35479      0.5526
0.56689     0.15536     0.38013     0.30704     0.89787     0.31419     0.58443
0.6692     0.16348     0.35349     0.18232     0.94562     0.25637     0.58865
0.69519     0.17874     0.32296    0.074482     0.58216     0.15731     0.54058
0.626     0.19596     0.28366   0.0078962    -0.11651    0.027385     0.44249
0.47887     0.20993     0.23071   0.0043233     -0.8038   -0.075579     0.33498
0.3038     0.22454     0.16121    0.067986    -0.99024   -0.089871     0.27261
0.15114     0.24371    0.088448     0.18881      -0.301    0.020888     0.28691
0.053694     0.27294    0.029009      0.3314      1.3344     0.24728     0.36843
0.020888     0.31549  -0.0034721     0.44963      3.5818     0.52824     0.47172
0.047198     0.36486  -0.0096434     0.50842       4.958     0.77184     0.55032
0.11248     0.41001    0.008221     0.52369      4.9583     0.89202     0.57598
0.19499     0.43729    0.045899     0.54415      4.9586     0.86376     0.55292
0.27521     0.44281    0.097543     0.61464      4.9583     0.75171      0.5107
0.34732     0.43599     0.15438     0.73839      4.7845     0.66466     0.48082
0.41098     0.41975     0.20213     0.86961     0.67505     0.70298     0.47627
0.45581      0.3889     0.22292     0.92255      -3.909      0.8904     0.48601
0.45905     0.33205     0.19823     0.81699     -4.9685      1.1437     0.48017
0.39539     0.24501     0.12158     0.52921     -4.9682      1.3159      0.4217
0.25443     0.13132      0.0014     0.10956     -4.9682      1.2737     0.28756
0.046873   0.0023744    -0.13567    -0.33672     -4.9682     0.94691    0.080003
-0.19998    -0.12463    -0.26267    -0.71155     -4.9685       0.347    -0.18082
-0.45268    -0.23409    -0.35979     -0.9701     -4.9682    -0.42572    -0.44586
-0.68264    -0.31431     -0.4241     -1.1202     -4.9682     -1.1991    -0.66413
-0.87785    -0.36758    -0.46892     -1.2079     -4.9682      -1.824    -0.81387
-1.038    -0.40558    -0.50725     -1.2741     -4.9682     -2.2053    -0.89637
-1.1663    -0.43352    -0.53908      -1.317     -4.3497     -2.3125    -0.92885
-1.2413    -0.44878     -0.5537     -1.3085     0.01829     -2.1927    -0.93502
-1.2459    -0.44943    -0.54752     -1.2364      4.0839     -1.9474    -0.93924
-1.1799    -0.43839    -0.52349     -1.1091      4.9583     -1.6856    -0.95678
-1.0682    -0.42052    -0.48159    -0.94054      4.9583     -1.4557    -0.97627
-0.93989    -0.40201     -0.4254    -0.74566      4.9586     -1.2426    -0.96783
-0.81939    -0.38252    -0.36076    -0.54525      4.9583     -1.0227    -0.91618
-0.70538    -0.36271    -0.29515    -0.36173      4.9583    -0.78658    -0.81419
