0.031607    0.021863   0.0010752   0.0017248     0.31971    0.022188   -0.013866
0.031932    0.015042   0.0062721    0.011144     0.25475    0.017965   -0.012242
0.026085   0.0088706    0.014392    0.018615     0.17874    0.019589  -0.0067202
0.016991   0.0039985    0.024786    0.021538     0.10664    0.022512   0.0023744
0.010495   0.0020496    0.030308    0.021863    0.050121    0.022512    0.016016
0.011794   0.0020496    0.030308    0.019264    0.013743    0.020239    0.029333
0.01894   0.0043233    0.027709     0.01829 -0.00087364    0.019264    0.038753
0.028684   0.0085458    0.026085    0.019914 -0.00087364     0.01829    0.042651
0.03453    0.013743     0.02641    0.022512    0.011144    0.013093    0.041676
0.033231    0.016341    0.027385    0.022512    0.034855   0.0065969    0.033881
0.024461    0.017316    0.030633    0.021538    0.065712   0.0023744    0.023162
0.011794    0.019264    0.034855    0.022512     0.10177  0.00075039    0.014392
0.0023744    0.024137    0.036479    0.030308     0.13944   0.0010752   0.0095202
0.00042559    0.029983    0.035505    0.044599      0.1742   0.0069217   0.0088706
0.0062721    0.032257    0.031607    0.059216     0.20311    0.014392   0.0088706
0.013743    0.029009    0.023487    0.070584     0.22324    0.020564   0.0072465
0.019264    0.021538    0.013093    0.076431     0.23396    0.023487   0.0036737
0.021538    0.014068   0.0062721    0.078379     0.23818    0.022188  0.00075039
0.021538    0.010819   0.0052977     0.07708     0.23981    0.016666   0.0023744
0.019914   0.0085458    0.008221    0.076106     0.23786    0.010495   0.0046481
0.019589   0.0043233    0.011144    0.079029     0.23266   0.0046481   0.0010752
0.019914  -0.0018481    0.013743    0.080653     0.22259 -0.00087364   -0.012892
0.014717   -0.007045    0.012443    0.075456     0.20733  -0.0083442   -0.033354
0.0046481   -0.010943   0.0049729    0.059865     0.19369   -0.019388   -0.054467
-0.0093186   -0.015165  -0.0073698    0.037129     0.18687    -0.03303   -0.065835
-0.018088   -0.018088   -0.018088    0.016991     0.19044   -0.044723   -0.063237
-0.018738   -0.019712   -0.019712   0.0069217      0.2044   -0.047321   -0.051219
-0.012892    -0.01614   -0.014191   0.0072465     0.21902   -0.036927   -0.036278
-0.0031473  -0.0018481  -0.0050961    0.014717     0.23136   -0.018088   -0.022636
0.0062721    0.019589   0.0069217    0.023487     0.24143   0.0036737   -0.010943
0.015042    0.039727     0.01894    0.029658     0.24728    0.020888  -0.0034721
0.019589     0.05142    0.028684    0.033556     0.24793    0.032906  0.00075039
0.023812    0.054668    0.032257    0.033556     0.24273    0.041351   0.0043233
0.02641    0.053694    0.032906    0.031607     0.23494    0.045899   0.0091954
0.022188    0.055968    0.032582    0.029658     0.22422    0.049472    0.019914
0.013418    0.059216    0.031932    0.029658     0.21252    0.049472    0.035505
0.0072465    0.061165    0.025436    0.034855     0.20635    0.046873    0.049147
0.0088706    0.059541    0.015692    0.044599      0.2096    0.045574     0.05207
0.012443    0.052395   0.0062721    0.051745     0.22259    0.044275    0.046548
0.012443    0.040377   0.0023744    0.051745     0.24143    0.042001    0.038753
0.0046481    0.024786   0.0039985    0.048172     0.25767    0.038753    0.033881
-0.0054209    0.012443   0.0078962    0.042326     0.26092    0.032906    0.033231
-0.012242   0.0049729    0.011144     0.03583      0.2476    0.023162    0.036479
-0.013216   0.0052977    0.012443    0.028034     0.22032    0.014392    0.036804
-0.008669   0.0088706    0.011144    0.018615     0.18492   0.0091954    0.033556
-0.0011985    0.013418   0.0062721    0.011469     0.14821   0.0065969    0.028684
0.010819    0.016666  0.00075039   0.0078962     0.11671   0.0062721    0.025761
0.022188    0.019589  -0.0011985   0.0075714    0.090722   0.0062721    0.025436
0.030308    0.022188  0.00010078    0.012443    0.075781   0.0088706    0.026085
0.032257    0.024786   0.0039985    0.021538     0.06961    0.016016    0.023162
0.029009     0.02641    0.008221    0.030308    0.067986    0.022512    0.015692
0.01894    0.026735    0.011469    0.033231    0.067336     0.02641   0.0062721
0.0043233    0.024786    0.016666    0.030633    0.066686    0.029983  0.00042559
-0.0089938    0.019914     0.01894    0.022512    0.065062    0.030957  -0.0018481
-0.015815    0.011469    0.019264    0.014717    0.062464    0.028359  -0.0021729
-0.014191   0.0043233    0.015692    0.012768    0.055968    0.021538  -0.0011985
-0.0050961   0.0033489     0.01017    0.017965    0.044275    0.013093   0.0020496
0.0059473   0.0072465   0.0033489    0.026735    0.029009   0.0075714   0.0020496
0.016666    0.012119  -0.0024977    0.032582    0.016016   0.0059473  -0.0015233
0.024786    0.015042  -0.0028225    0.030957   0.0088706   0.0033489  -0.0080194
0.028359    0.013743   0.0017248    0.023487   0.0043233  -0.0060706   -0.012892
0.024461   0.0056225   0.0039985    0.012119  -0.0021729   -0.022961   -0.017439
0.015367  -0.0076946  -0.0021729 -0.00087364   -0.014516   -0.043423   -0.021337
0.0026992   -0.021012   -0.013541    -0.01549   -0.029782   -0.059339   -0.024585
-0.0099683   -0.030756    -0.02361   -0.026858   -0.045372    -0.06616   -0.027833
-0.016464   -0.034329   -0.028482   -0.033354   -0.056091   -0.060638   -0.029782
-0.01549   -0.031081   -0.032055    -0.03173   -0.060638   -0.045047   -0.026209
-0.007045   -0.023285   -0.035303   -0.018413   -0.060313   -0.029132   -0.016789
0.0056225   -0.010618   -0.034004   0.0036737    -0.05804   -0.021337 -0.00054884
0.024137   0.0043233   -0.027183    0.027709   -0.051868   -0.018088    0.015692
0.045574    0.019589   -0.016464    0.049147   -0.046671   -0.015815    0.028034
0.063113    0.032257  -0.0089938    0.062464   -0.048945   -0.011267     0.03453
0.069285    0.042326  -0.0076946    0.062789   -0.055766  -0.0067202    0.037454
0.064413    0.048497   -0.011917    0.053044   -0.065835  -0.0041217    0.037129
0.053694    0.051745   -0.018413    0.041351   -0.072006  -0.0031473    0.031607
0.040702     0.05142    -0.02361    0.030633   -0.071357  -0.0031473    0.021213
0.031607    0.050121   -0.022636    0.024461   -0.063237  -0.0044465   0.0075714
0.029333    0.046548   -0.013541    0.023812   -0.051544  -0.0067202   -0.007045
0.029333    0.042326 -0.00087364    0.029333   -0.041799  -0.0080194   -0.012567
0.031607    0.038103   0.0059473     0.03518   -0.036927  -0.0050961  -0.0099683
0.031932     0.03518   0.0078962    0.036804   -0.040175   0.0049729  0.00075039
0.029658    0.034206    0.008221    0.035505   -0.050569    0.019264    0.012768
0.02706    0.035505    0.010819    0.030308   -0.067784    0.032906    0.026735
0.021538    0.038103    0.015692    0.030957   -0.084674    0.040702    0.037778
0.014392    0.041676    0.020564    0.039402    -0.09994    0.040702    0.044599
0.0069217    0.045574    0.021863    0.049472    -0.11131     0.03518    0.044924
0.0010752    0.048822    0.020564    0.055968    -0.12138    0.029009    0.042001
-0.0011985    0.046873    0.017965    0.055643    -0.12722    0.022837    0.037454
-0.0024977    0.041351    0.016016    0.050771      -0.123    0.014392    0.033231
0.0014    0.031282    0.016016    0.046873    -0.11423   0.0062721    0.033231
0.0059473    0.020888    0.016991    0.047847    -0.10936  0.00042559    0.038753
0.013093    0.013418    0.016666     0.05272    -0.11228  0.00075039    0.048822
0.019589   0.0088706    0.012443    0.057592    -0.11845   0.0062721    0.053694
0.025436    0.008221   0.0049729    0.059541    -0.12138    0.011144    0.049147
0.02641    0.011794  -0.0028225    0.055643    -0.12138    0.013093    0.038103
0.022837    0.016991  -0.0089938    0.048822    -0.12008    0.012119    0.028359
0.017316    0.017965   -0.013216    0.044275     -0.1204   0.0095202    0.024137
0.014717    0.011794    -0.01549     0.04395    -0.12073   0.0091954    0.024461
0.015692 -0.00054884   -0.016789     0.04395    -0.11845   0.0078962    0.023812
0.016991  -0.0096434   -0.019388    0.042001    -0.11196   0.0085458     0.01894
0.016341   -0.012567    -0.02361    0.036479    -0.10319    0.009845   0.0095202
0.011794   -0.013541   -0.027508    0.021538    -0.09929    0.009845  -0.0024977
-0.0021729    -0.01614   -0.029132  0.00075039   -0.098316   0.0033489   -0.018413
-0.018738   -0.022636   -0.024909   -0.021661   -0.097341  -0.0057458   -0.034329
-0.03238   -0.027183   -0.017764   -0.038227   -0.097017   -0.013866   -0.045372
-0.035953   -0.024585  -0.0080194   -0.047321    -0.09994   -0.017114   -0.044723
-0.031081   -0.018413  -0.0034721   -0.050569    -0.10709    -0.01614   -0.039201
-0.020362   -0.010618  -0.0047713   -0.050569    -0.11228   -0.013866   -0.035303
-0.0073698  -0.0044465   -0.007045   -0.046996    -0.10774  -0.0080194   -0.031406
0.0091954   0.0026992  -0.0083442   -0.034329   -0.091495 -0.00054884   -0.028807
0.027709    0.011794   -0.010293   -0.012892   -0.072331   0.0088706   -0.026209
0.0433    0.022188   -0.010293   0.0091954   -0.062912    0.020564   -0.021337
0.05142    0.029983  -0.0067202    0.024137    -0.06681    0.033556   -0.013866
0.053044    0.032582  -0.0015233    0.029333   -0.076554    0.041027  -0.0054209
0.049796    0.030633   0.0017248    0.023812   -0.087597    0.037778   0.0023744
0.044924    0.023812   0.0052977    0.013418   -0.093444    0.025761   0.0085458
0.036154    0.017965   0.0075714   0.0017248   -0.084674    0.010819    0.012443
0.028684    0.014392    0.010495  -0.0063954   -0.061613  -0.0034721    0.016016
0.023812    0.016341    0.012119  -0.0096434    -0.03173   -0.011917    0.022512
0.023487    0.019914    0.011469   -0.010943  -0.0080194    -0.01484    0.033556
0.025761    0.025761   0.0075714   -0.011592   0.0026992   -0.016789    0.042651
0.028684    0.030957   0.0056225   -0.014516    0.003024   -0.020362    0.045249
0.031282    0.033231   0.0072465   -0.019712  -0.0044465   -0.021337    0.042975
0.031282    0.031282    0.011794    -0.02361    -0.01484   -0.018738    0.039402
0.02706    0.026735    0.015692    -0.02361   -0.024585   -0.011917     0.03583
0.019589    0.023162    0.019914   -0.018088   -0.029782  -0.0015233    0.032906
0.013418    0.023162    0.026085   -0.010618   -0.030106     0.01017    0.027385
0.011144    0.028359    0.029333  -0.0031473   -0.030431    0.015692    0.018615
0.010819    0.036804    0.028684 -0.00087364   -0.033354    0.014392   0.0091954
0.015367    0.044924    0.022188  0.00075039   -0.035628   0.0095202   0.0039985
0.019264    0.045899    0.013743   0.0039985   -0.034004   0.0052977   0.0065969
0.022837    0.040052   0.0059473    0.009845   -0.027833   0.0043233    0.014717
0.024137    0.029983   0.0020496    0.016666   -0.025559   0.0069217    0.022188
0.023812    0.022512   0.0049729    0.024461   -0.029457    0.012119     0.02706
0.017965    0.019264    0.013743    0.030957   -0.034654     0.01829    0.027385
0.0046481     0.01764    0.025761     0.03583   -0.038551    0.022837    0.024786
-0.012242    0.017965    0.039078    0.038103   -0.038227    0.024137    0.022512
-0.026209    0.019914    0.050121    0.037129   -0.034978    0.022512    0.020888
-0.036602    0.022512    0.056292    0.031932   -0.030756    0.015692    0.020564
-0.037577    0.024786    0.058891    0.024461   -0.023285   0.0075714    0.022512
-0.033679    0.025111    0.056292    0.018615   -0.019388 -0.00054884    0.024786
-0.032705    0.019589    0.045249    0.010819   -0.021012   -0.013216    0.023487
-0.035303     0.01017    0.027385  -0.0031473   -0.023935   -0.030106    0.016341
-0.040825  -0.0015233    0.010819   -0.021012   -0.025884   -0.042774   0.0033489
-0.048945   -0.013541      0.0014   -0.034978   -0.026533   -0.047646   -0.007045
-0.055766   -0.022636  -0.0031473   -0.038227   -0.025559   -0.042449   -0.010618
-0.059989    -0.02426  -0.0067202   -0.029457   -0.020687   -0.030431  -0.0080194
-0.059339   -0.021337  -0.0080194   -0.012242  -0.0089938   -0.017114  -0.0015233
-0.049595    -0.01484  -0.0041217   0.0056225   0.0095202  -0.0024977   0.0088706
-0.028807  -0.0037969   0.0062721    0.020564    0.030308    0.011144     0.01894
-0.0021729    0.010819    0.020564    0.034206    0.049796    0.020239    0.028034
0.020888    0.021538    0.036154    0.047198    0.069285    0.023812    0.035505
0.032906    0.029009    0.047523    0.054993    0.083251    0.025111    0.038428
0.030633     0.03453     0.05142    0.055318    0.092996     0.02706    0.036479
0.021538    0.038103    0.045574    0.047198     0.10144    0.030633     0.03453
0.014717    0.040702    0.036154    0.032582     0.10826    0.036154    0.035505
0.015042    0.038753    0.027709    0.014717     0.10469    0.042001    0.038428
0.022837    0.031932    0.022188 -0.00022403    0.082602    0.046548     0.04395
0.032582    0.023162     0.01764   -0.011267     0.04395    0.048497    0.046223
0.039078    0.016016    0.015042   -0.012567   0.0020496    0.049147    0.041027
0.039727    0.010819    0.014068  -0.0080194   -0.026209    0.044599    0.028684
0.036479    0.008221    0.016016  -0.0028225   -0.034654    0.038103    0.014392
0.030308   0.0085458    0.021213 -0.00022403   -0.028482    0.034206      0.0014
0.022837   0.0088706    0.025436   0.0039985   -0.016789    0.029983  -0.0080194
0.020239    0.011144    0.028359    0.011794  -0.0044465    0.022512   -0.011917
0.022837    0.016666    0.027385    0.022512   0.0056225    0.012768  -0.0099683
0.024786    0.023162    0.024137    0.030957    0.012119    0.003024  -0.0031473
0.022837    0.028684    0.021538    0.036479    0.020239  -0.0041217   0.0052977
0.01764    0.031932     0.01829    0.041351    0.029009  -0.0099683    0.012443
0.010819    0.032257    0.015692    0.047523    0.034855   -0.010943    0.019914
0.0072465    0.029009    0.013093    0.054668    0.038428  -0.0050961    0.029658
0.0085458    0.025111    0.012119    0.058566    0.037454      0.0014    0.039402
0.013743    0.022837    0.013743    0.053369    0.030957   0.0023744    0.045249
0.01829    0.024137    0.016016    0.038753    0.026735  -0.0037969    0.044924
0.018615    0.025761    0.015042    0.025761    0.029009   -0.013541    0.037454
0.009845    0.025111    0.013743    0.019264    0.036804   -0.021661    0.023812
-0.0034721    0.022188    0.013418    0.021213    0.045249   -0.025234   0.0085458
-0.01484    0.016341    0.016991    0.025111    0.051096   -0.024585 -0.00054884
-0.019388    0.011144    0.022512    0.029009    0.050121   -0.022961  -0.0018481
-0.017114   0.0085458     0.02706    0.030308    0.041027   -0.020037   0.0026992
-0.013216   0.0069217    0.027709    0.028359    0.027709   -0.017439    0.008221
-0.011592      0.0014    0.021863    0.019589    0.013743   -0.018413     0.01017
-0.016789  -0.0073698    0.009845   0.0039985   0.0010752   -0.022636   0.0069217
-0.028482   -0.015165  -0.0041217   -0.013216   -0.008669    -0.02426  0.00010078
-0.039526   -0.017764   -0.013216   -0.028807   -0.012892   -0.024585   -0.008669
-0.045047   -0.016789   -0.016789   -0.040825  -0.0099683   -0.026533   -0.017764
-0.04115   -0.014191   -0.017764   -0.043423    0.003024   -0.033354   -0.020037
-0.029782   -0.014516   -0.019712   -0.034004    0.021213   -0.044073   -0.011592
-0.013216   -0.014191   -0.018738    -0.01614    0.038753   -0.050894   0.0078962
0.0043233   -0.010293   -0.012242   0.0033489    0.055968    -0.04992     0.03518
0.016991 -0.00087364  -0.0021729     0.01894    0.067661   -0.040175    0.064737
0.022512    0.009845   0.0069217    0.028034    0.069285   -0.026209    0.089098
0.024786    0.019589    0.013093    0.033231    0.059541   -0.016464     0.10209
0.025761    0.026735     0.01764    0.037129    0.045899   -0.012567    0.095919
0.029983    0.032257    0.016666    0.039402    0.034206  -0.0096434    0.073832
0.035505     0.03453    0.011469    0.040702    0.029333  -0.0041217    0.048822
0.035505    0.030957   0.0056225     0.04395    0.030308      0.0014    0.032582
0.029658    0.023487   0.0026992     0.05272    0.033556    0.003024    0.026735
0.024137    0.013093   0.0033489    0.063763    0.036804 -0.00054884    0.028684
0.026735   0.0020496   0.0052977    0.070584    0.038103  -0.0041217    0.030957
0.033881   -0.007045   0.0075714     0.06961    0.038753  -0.0018481    0.033231
0.042326   -0.012567   0.0088706    0.061489    0.039402   0.0062721    0.038428
0.050121    -0.01614   0.0095202     0.05142    0.042975    0.016666    0.044275
0.055318   -0.017764   0.0065969    0.040702    0.050446    0.022837    0.046223
0.054344   -0.018088   0.0026992    0.030308    0.062464    0.019914    0.041676
0.043625   -0.014191  -0.0034721    0.021213    0.076106    0.013093    0.031282
0.027385  -0.0054209   -0.011917    0.012768      0.0852    0.008221    0.021213
0.010819   0.0052977   -0.018088   0.0056225    0.082602   0.0075714    0.016991
-0.0011985    0.013093   -0.017439   0.0052977    0.067336   0.0095202    0.019264
-0.0034721    0.015692  -0.0073698     0.01017    0.050446     0.01017    0.021538
0.0010752    0.015042   0.0069217    0.016016    0.043625   0.0091954    0.019589
0.0072465    0.012768     0.01764    0.020239    0.049147   0.0052977    0.012443
0.011794    0.011794    0.024137    0.024786    0.058241   0.0043233  0.00042559
0.012768    0.015692    0.022837    0.027385     0.06084    0.008221   -0.012892
0.0078962    0.021863    0.016991    0.026085    0.055643    0.015042   -0.018413
0.00010078    0.028684    0.009845    0.023487    0.044275    0.021538   -0.013866
-0.0034721    0.032906   0.0023744    0.021538     0.03518    0.020888  -0.0031473
-0.0015233     0.03453  -0.0073698    0.017316    0.027385    0.017965   0.0069217
0.0043233    0.034855   -0.017114    0.011469    0.019264    0.016341    0.012119
0.011144    0.035505   -0.025234   0.0052977   0.0065969    0.016016    0.012768
0.015042    0.036479   -0.029782   -0.007045  -0.0093186    0.013743    0.009845
0.013418    0.033881   -0.030431   -0.022961   -0.023935   0.0088706   0.0020496
0.0078962    0.024137   -0.029782   -0.038876    -0.03238   0.0023744  -0.0093186
0.0020496   0.0078962   -0.030756   -0.045372   -0.034004  -0.0044465   -0.019063
-0.0021729   -0.011267   -0.037252   -0.039526   -0.028157   -0.011267   -0.025559
-0.0044465   -0.024585   -0.047646   -0.022961   -0.018738    -0.01614   -0.027183
-0.0060706   -0.028807   -0.051219  -0.0024977  -0.0060706   -0.016789   -0.025884
-0.008669   -0.024585   -0.045697    0.012768   0.0033489   -0.012892   -0.022961
-0.0067202   -0.014191    -0.03303    0.018615     0.01017  -0.0021729    -0.01614
0.0049729  0.00042559   -0.018413    0.024137    0.016666    0.016016  -0.0044465
0.025436    0.013743  -0.0060706    0.029333    0.024786    0.037454   0.0072465
0.04395    0.025111   0.0033489     0.03583    0.033881    0.056942    0.013743
0.051096    0.033556    0.011469     0.04395    0.042326    0.070909    0.013743
0.046548    0.038103    0.023812    0.053044    0.044275    0.076431    0.011469
0.036804    0.036804    0.036479    0.061489    0.039078    0.069934    0.009845
0.029983    0.034206    0.043625    0.067011    0.029658    0.055318    0.011794
0.029658    0.029333    0.043625    0.067336    0.017316    0.040052    0.015042
0.032582    0.023812    0.040052     0.06084   0.0026992     0.02706     0.01829
0.03583    0.021863    0.036479    0.048822  -0.0093186    0.014717    0.019589
0.039078    0.022512     0.03453    0.033556   -0.018088 -0.00022403    0.015692
0.041676    0.025436    0.033231    0.022837   -0.020687   -0.015165   0.0059473
0.042651    0.029009    0.028684     0.01829   -0.018413   -0.023285  -0.0054209
0.042975    0.031607    0.020239    0.016991   -0.011267   -0.021337   -0.011917
0.042651    0.034206    0.010819    0.016341  -0.0067202   -0.013541   -0.013541
0.040377    0.036154   0.0039985    0.012768   -0.008669  -0.0031473   -0.010293
0.038103     0.03518   0.0033489   0.0091954   -0.018413   0.0049729  -0.0057458
0.036804    0.032582   0.0095202   0.0085458   -0.032705   0.0069217  -0.0024977
0.037129    0.031607    0.015692    0.010819   -0.042124   0.0052977  -0.0015233
0.032906    0.032582     0.01764    0.014068   -0.042774   0.0046481  -0.0018481
0.02641    0.035505    0.013743    0.016991   -0.037252   0.0039985  -0.0021729
0.019589    0.039078    0.008221    0.018615   -0.031081   0.0039985  -0.0021729
0.017965    0.042651    0.003024    0.018615   -0.026533   0.0033489  -0.0011985
0.019914      0.0433   0.0026992    0.020239    -0.02426  0.00075039 -0.00022403
0.025111    0.042975   0.0062721    0.022188    -0.02361  -0.0044465 -0.00087364
0.031282      0.0433    0.011144    0.022188   -0.025234  -0.0063954  -0.0024977
0.03518    0.045249    0.016991    0.020888   -0.025234  -0.0031473  -0.0067202
0.034855    0.046223     0.01764    0.022512   -0.024909  -0.0011985   -0.012567
0.027709    0.045574    0.010819    0.028359   -0.025234 -0.00054884    -0.01614
0.016341      0.0433  -0.0031473    0.039402   -0.029782  0.00010078    -0.01484
0.0062721    0.041351    -0.01484    0.048172   -0.038227   0.0026992   -0.011592
0.0017248    0.038753   -0.020037    0.045249   -0.044073   0.0052977   -0.013541
0.00010078    0.032257   -0.020037    0.030633   -0.047321   0.0046481   -0.021661
-0.0063954    0.019914   -0.016789   0.0059473   -0.050569  -0.0018481   -0.030431
-0.017439   0.0052977   -0.013216    -0.01614   -0.055116  -0.0093186   -0.034329
-0.029782   -0.007045  -0.0093186   -0.027833   -0.060313   -0.016464   -0.033354
-0.035628   -0.013866  -0.0089938   -0.027833   -0.059989   -0.022961   -0.029782
-0.035628   -0.013541  -0.0096434   -0.021337   -0.051868   -0.028157   -0.025559
-0.03303  -0.0067202  -0.0093186  -0.0089938   -0.038876   -0.030106   -0.021986
-0.028482   0.0043233  -0.0057458   0.0069217   -0.023935   -0.024909   -0.017439
-0.018738    0.017316    0.003024     0.02706   -0.011592   -0.013541   -0.013216
-0.0041217    0.029333    0.014717      0.0433  -0.0063954   0.0020496   -0.010618
0.012119    0.037129    0.024137    0.054019   -0.012567    0.018615  -0.0093186
0.023812    0.038103     0.02706    0.059216   -0.027508    0.032257   -0.007045
0.026085    0.033231    0.016341    0.058891   -0.039526    0.039727  -0.0015233
0.021863    0.028034 -0.00022403    0.053044   -0.038227    0.042001   0.0056225
0.01764    0.023162   -0.013866     0.04395   -0.023935    0.042975   0.0091954
0.018615    0.019914   -0.018738    0.036804  -0.0057458    0.042326    0.012119
0.021863    0.019264   -0.013541    0.031932   0.0095202    0.037129    0.014068
0.021538    0.024137  -0.0037969    0.029009     0.01894     0.02641     0.01829
0.021213    0.029983   0.0049729    0.025111    0.024786    0.015042    0.025111
0.022837    0.031932    0.009845    0.023162    0.026735   0.0075714    0.030633
0.024137    0.031282    0.012768    0.020564    0.025111    0.003024    0.031932
0.022188    0.029333    0.015367     0.01829    0.022188 -0.00087364    0.026735
0.017316    0.029009    0.019914    0.013418    0.016666  -0.0028225     0.01764
0.012119    0.027709    0.027385   0.0043233   0.0072465  0.00042559    0.011469
0.0078962    0.025111    0.032582  -0.0037969 -0.00087364   0.0069217    0.010495
0.0059473    0.022837    0.033556  -0.0060706  -0.0067202    0.011469    0.014392
0.0036737    0.020564    0.032582  -0.0024977   -0.008669    0.012119    0.019589
0.00010078    0.019589    0.032257   0.0036737  -0.0083442    0.010819    0.025436
-0.0047713    0.020564    0.033881   0.0052977  -0.0080194    0.011144    0.031932
-0.0063954    0.020888    0.034855  0.00042559   -0.007045    0.011794     0.03583
-0.0060706     0.01764    0.032582  -0.0057458  -0.0080194    0.010495    0.038103
0.0023744    0.014717    0.025436  -0.0057458  -0.0080194   0.0085458    0.039078
0.011144    0.011144    0.015042  -0.0024977  -0.0067202   0.0056225    0.038103
0.016341     0.01017   0.0072465  0.00010078  -0.0050961  -0.0021729    0.038428
0.015692    0.010495   0.0052977   0.0039985  -0.0037969   -0.013216    0.040052
0.014392    0.011469   0.0059473     0.01017   -0.007045   -0.023935    0.040377
0.015692    0.011469   0.0033489    0.015692   -0.015165   -0.030431    0.038103
0.023162    0.011469  -0.0031473    0.017965   -0.021661   -0.034004    0.038103
0.033231   0.0095202  -0.0083442    0.019264   -0.025559   -0.035953    0.042001
0.038428   0.0017248   -0.008669    0.020239   -0.027508   -0.036927    0.044924
0.033556   -0.011267  -0.0028225    0.016016    -0.03173     -0.0405    0.045249
0.01764   -0.029457   0.0069217   0.0043233   -0.039851   -0.045047    0.041351
-0.0024977   -0.046671    0.015367  -0.0096434   -0.047321   -0.046671    0.030957
-0.018413   -0.057715    0.015692    -0.02426   -0.051219   -0.046022    0.014717
-0.026858   -0.060963    0.010819   -0.035953   -0.052843   -0.040825  0.00075039
-0.028157   -0.057065   0.0017248   -0.039201   -0.051544    -0.03173  -0.0037969
-0.023285   -0.050244  -0.0050961   -0.031406    -0.04862   -0.019712  0.00042559
-0.015815   -0.036927  -0.0050961    -0.01484   -0.041475  -0.0073698    0.012768
-0.0044465   -0.014516    0.003024   0.0072465   -0.027508   0.0056225    0.028684
0.0085458    0.015367    0.014717    0.029658  -0.0096434     0.01894    0.044599
0.016991    0.041676    0.024137    0.045249   0.0046481    0.030633    0.054019
0.015367    0.057592    0.028034    0.050446    0.011794    0.039078    0.054668
0.0078962     0.06019    0.026735    0.048172    0.013743    0.042001    0.046873
-0.00022403    0.050771    0.024137    0.045574    0.017316    0.039727    0.035505
-0.0057458     0.03583    0.024461    0.043625    0.021538    0.036479    0.024137
-0.010293    0.021213     0.02706    0.042975    0.021863    0.031282    0.013093
-0.015815    0.015042    0.029983    0.040702    0.015692    0.025436   0.0052977
-0.020362    0.017965    0.031932    0.039078   0.0062721     0.01829   0.0026992
-0.019063    0.025761    0.033881    0.037778  -0.0011985    0.012443   0.0043233
-0.019063    0.031932     0.03518    0.039402  -0.0054209   0.0072465    0.009845
-0.022636    0.037454    0.037454    0.041351   -0.008669   0.0049729     0.01894
-0.024909    0.041351    0.041676    0.042326   -0.012567   0.0062721    0.026735
-0.026209    0.044275    0.045899    0.041027    -0.01614   0.0062721    0.028034
-0.027508    0.046548    0.049147     0.03518   -0.013866   0.0026992    0.024137
-0.028482    0.044924    0.051745    0.026735 -0.00054884  -0.0024977    0.020239
-0.028482    0.042975     0.05142    0.020888     0.01764  -0.0057458    0.017965
-0.027833    0.040377    0.047198    0.020564    0.030957  -0.0050961    0.015042
-0.022636    0.039078    0.041027    0.026085    0.034855  -0.0034721   0.0088706
-0.013866    0.040052     0.03518    0.034206    0.027709  -0.0044465   0.0020496
-0.0054209    0.041351    0.029009    0.038428    0.012119  -0.0089938  -0.0041217
0.00010078    0.038428    0.022188    0.038753  -0.0031473   -0.013541  -0.0093186
0.0046481    0.033231    0.011794    0.036154   -0.011592    -0.01549   -0.008669
0.010819    0.024461  -0.0011985    0.031932  -0.0073698    -0.01549  0.00042559
0.019264     0.01829   -0.010618    0.031932   0.0043233   -0.012892    0.014068
0.031282    0.013418   -0.015815    0.034206    0.017965  -0.0096434    0.026735
0.0433    0.011469   -0.018088    0.036479    0.025111  -0.0073698    0.036804
0.053369    0.012443   -0.017764    0.035505    0.025436  -0.0050961    0.042326
0.054993    0.014068   -0.017439    0.031932    0.021538  -0.0050961    0.045574
0.047523    0.012768   -0.023285    0.024786     0.01894   -0.010943    0.045574
0.034206   0.0075714   -0.034004    0.015042    0.021213   -0.018413    0.039402
0.020888  -0.0024977   -0.045047  0.00042559    0.024786   -0.026533    0.024461
0.016341   -0.014516   -0.050244   -0.020687    0.027385   -0.034004   0.0046481
0.019914   -0.026533    -0.04862   -0.040825    0.026085   -0.038876  -0.0099683
0.029009   -0.032055    -0.04115   -0.052518     0.01764   -0.040175   -0.013866
0.036479    -0.03238   -0.030106   -0.053168   0.0036737   -0.037252  -0.0076946
0.041676   -0.028807   -0.018088   -0.044723   -0.010293   -0.029132  0.00075039
0.044275   -0.023285   -0.010943   -0.033354   -0.019063   -0.019712      0.0014
0.045574   -0.015815  -0.0099683   -0.022311   -0.017764   -0.012242 -0.00087364
0.051745  -0.0060706   -0.013541   -0.010618  -0.0076946   -0.007045   0.0017248
0.062464   0.0043233   -0.012892  0.00010078   0.0043233  -0.0024977   0.0091954
0.073832    0.016016  -0.0063954   0.0085458     0.01764   0.0026992    0.021213
0.080328    0.025111   0.0036737    0.014392    0.029009   0.0078962    0.031607
0.07773    0.029983    0.014717    0.020239    0.036154    0.013743    0.038103
0.066686    0.030957    0.022837    0.027709    0.036804    0.014717    0.040052
0.05272    0.032906     0.02641    0.031932    0.030633    0.012443    0.038103
0.040052     0.03583    0.024137    0.032906    0.020239   0.0043233    0.033881
0.030633    0.038428     0.01894    0.033231    0.012443  -0.0076946    0.029658
0.024786     0.03583    0.012443    0.033881   0.0072465   -0.018088    0.022512
0.022512    0.028684   0.0078962    0.033556   0.0049729   -0.020687    0.017316
0.026085    0.020239   0.0072465    0.032906   0.0072465  -0.0096434    0.014068
0.029009    0.015367    0.010495    0.031607    0.014392    0.010495    0.013093
0.027385    0.016016    0.017316    0.029658    0.022837    0.026085    0.016341
0.019589    0.020564    0.023487    0.027709    0.029658    0.029658    0.020888
0.0062721     0.02641    0.023487    0.024461    0.031932    0.020239    0.023812
-0.011917    0.030633    0.016991    0.021863    0.027709   0.0065969    0.019264
-0.026858    0.031932   0.0065969     0.01829    0.016991  -0.0054209    0.011469
-0.029132    0.029333  -0.0037969    0.015367   0.0046481   -0.013866   0.0065969
-0.018413    0.024461   -0.010618    0.016341  -0.0028225   -0.019063   0.0036737
0.00075039    0.018615   -0.012567    0.017965  -0.0050961   -0.019388   0.0023744
0.019589    0.013093   -0.012242    0.017965  -0.0060706    -0.01549   0.0017248
0.034206   0.0091954   -0.008669    0.015367  -0.0060706  -0.0054209   0.0010752
0.039078   0.0056225  -0.0015233    0.015042  -0.0044465   0.0095202    0.003024
0.034206   0.0039985   0.0078962    0.017316   0.0036737    0.020888   0.0088706
0.023487   0.0026992    0.014717    0.020888    0.013418    0.019264    0.016341
0.011794   0.0010752    0.018615    0.028034    0.020239   0.0072465    0.021863
-0.0011985 -0.00087364    0.018615     0.03583    0.024786  -0.0099683    0.021538
-0.011267 -0.00054884    0.013418    0.036804    0.026085   -0.021337    0.014068
-0.01549   0.0062721   0.0049729    0.030957    0.021863   -0.021012  0.00042559
-0.016789    0.016016  -0.0041217    0.020239    0.012768   -0.012892   -0.010618
-0.020362    0.023487   -0.013216   0.0088706   0.0033489  -0.0024977   -0.015165
-0.027183    0.020888   -0.023285  -0.0028225  -0.0037969    0.003024   -0.016464
-0.038876   0.0069217   -0.028157   -0.013216   -0.011917   0.0036737   -0.018413
-0.053168  -0.0096434   -0.026533   -0.019388   -0.019712  0.00075039   -0.017114
-0.06551   -0.022636   -0.020687   -0.022961    -0.02426 -0.00087364   -0.011592
-0.070707   -0.028157   -0.011592   -0.022311    -0.02361  -0.0018481  -0.0047713
-0.067459   -0.025234   0.0010752   -0.020362   -0.021337  -0.0073698      0.0014
-0.052843   -0.017764    0.014068   -0.019063   -0.019712    -0.01549   0.0062721
-0.030431  -0.0073698    0.023162   -0.015815   -0.019712   -0.017764    0.012119
-0.0054209   0.0072465    0.027709   -0.012892   -0.010618   -0.010293     0.01894
0.015692    0.023162    0.029009  -0.0096434   0.0078962   0.0069217    0.023162
0.027385    0.034855    0.029983  -0.0037969    0.028684     0.02641    0.023487
0.028684    0.040052    0.031607    0.010495    0.042326    0.042326    0.020239
0.026735    0.039402    0.031607    0.031607    0.042975    0.051745    0.014717
0.023487    0.035505    0.028034     0.05142    0.031932    0.054019    0.008221
0.019914    0.031282     0.01764     0.06019    0.015042    0.049147  0.00010078
0.016666     0.02641    0.003024    0.054344 -0.00022403    0.039402   -0.011917
0.01829     0.02706  -0.0096434    0.042001  -0.0076946    0.028684   -0.026209
0.025111    0.030957   -0.017439    0.028684  -0.0063954    0.020888   -0.034978
0.030633    0.036154   -0.019388     0.01894   0.0020496    0.018615   -0.036602
0.028359    0.038103    -0.01484    0.016991     0.01017    0.022188   -0.031081
0.01829     0.03453  -0.0041217    0.021538    0.014392    0.028034   -0.022961
0.0036737    0.025761   0.0069217    0.031282    0.013418    0.030957   -0.015815
-0.0063954    0.013418    0.011794    0.041027    0.011469    0.029009   -0.010618
-0.0057458   0.0033489     0.01017    0.044924    0.012768    0.024461  -0.0080194
0.0039985  -0.0018481   0.0043233    0.041027    0.016016    0.021863   -0.008669
0.014068  -0.0024977 -0.00087364    0.030957     0.01894    0.024137   -0.013541
0.020888      0.0014  -0.0021729    0.019264    0.021538    0.029009   -0.020037
0.023812   0.0075714  0.00042559    0.011144    0.025761    0.036154   -0.026858
0.025761    0.011794   0.0039985   0.0052977    0.028034    0.040702   -0.027833
0.028034    0.012768   0.0072465   0.0023744    0.025436    0.042326   -0.019712
0.025761    0.008221    0.008221      0.0014    0.019589    0.036804  -0.0024977
0.01764 -0.00022403   0.0059473  0.00075039    0.011469    0.028359    0.015367
0.0059473  -0.0089938   0.0039985  0.00075039   0.0033489    0.021213    0.028684
-0.00054884   -0.014516   0.0036737   0.0020496  -0.0015233    0.020888     0.03453
0.00075039   -0.014191   0.0078962   0.0020496 -0.00054884    0.023487    0.029658
0.0069217  -0.0096434    0.017965      0.0014   0.0056225    0.024786    0.022837
0.010495  -0.0067202    0.029333   0.0010752    0.010495    0.026735    0.022188
0.0075714  -0.0047713    0.038753  0.00075039     0.01017    0.029009    0.026085
0.0017248  -0.0034721    0.043625   0.0010752   0.0062721    0.029009    0.032582
0.0017248  -0.0050961    0.041351   0.0039985  0.00010078    0.025111    0.036479
0.0056225   -0.011917    0.026735   0.0085458   -0.007045     0.01764    0.037129
0.0056225   -0.023285   0.0039985    0.012443   -0.013541   0.0059473    0.035505
-0.00087364   -0.033679   -0.016789    0.014392   -0.019063  -0.0076946    0.032906
-0.0093186   -0.037577   -0.025234    0.015692   -0.018413   -0.016789    0.029009
-0.016464   -0.034978   -0.019388    0.015367   -0.017764   -0.017764    0.022512
-0.022311   -0.028157  -0.0047713    0.015367   -0.016464   -0.011917    0.014392
-0.020037   -0.018088     0.01017    0.016016   -0.014191  -0.0050961   0.0075714
-0.0089938  -0.0037969    0.020888    0.015367   -0.012242  -0.0021729   0.0065969
0.0088706    0.014068    0.025436     0.01764   -0.012567  0.00075039    0.011794
0.02706    0.033556     0.02641    0.022188   -0.012892   0.0088706    0.019264
0.042651    0.047198    0.029009     0.02641   -0.011267    0.020564    0.027709
0.05142     0.05142    0.031932    0.029983  -0.0089938    0.030957    0.036804
0.055968    0.049147    0.032582     0.03453  -0.0047713    0.036804    0.044924
0.057917    0.046223    0.029658    0.040377   0.0017248    0.040052    0.051096
0.056292      0.0433    0.024137    0.048822   0.0075714    0.042001     0.05207
0.050121    0.040702    0.019589    0.056292     0.01017    0.039727    0.049472
0.039727    0.036154    0.017965     0.06019     0.01017    0.033556    0.044924
0.027709    0.032582    0.019914     0.06084    0.012443    0.029658    0.040052
0.020888    0.030957    0.025761    0.057267    0.014392    0.030957    0.033556
0.022837    0.033231    0.032257    0.050121    0.011469    0.036804    0.023162
0.029333    0.035505    0.036804    0.045899  0.00010078    0.040377    0.011469
0.03583    0.038753     0.03518    0.047198   -0.013866    0.037454   0.0017248
0.038753    0.042326    0.024461    0.049147   -0.022636    0.028684  -0.0021729
0.037454    0.045899    0.009845    0.047847   -0.021986     0.01829   0.0010752
0.034855    0.049796  -0.0037969    0.045574   -0.013866    0.012443   0.0056225
0.032906    0.056292   -0.010293    0.042651  -0.0021729    0.012443   0.0072465
0.032582    0.063763  -0.0093186    0.040377    0.008221    0.012443   0.0059473
0.033881    0.071883  -0.0050961    0.040052    0.015367    0.012119   0.0036737
0.033231     0.07708  -0.0015233    0.042001    0.014392    0.011469   0.0023744
0.028359     0.07773  -0.0015233     0.04395    0.009845    0.011794   0.0010752
0.023487    0.075131 -0.00054884    0.045574   0.0062721    0.011144   0.0043233
0.01894     0.06896   0.0059473    0.046548   0.0023744   0.0069217    0.011469
0.015692    0.062139    0.017316    0.042326  -0.0018481  -0.0044465    0.020888
0.016341    0.055968    0.027709    0.028684  -0.0067202   -0.018088     0.02706
0.017965    0.050121    0.029009    0.011469  -0.0050961   -0.029457    0.030633
0.01894    0.045574    0.021213 -0.00022403  -0.0028225   -0.035953    0.028684
0.019264    0.042651   0.0046481  -0.0047713  -0.0021729   -0.034978    0.023487
0.019914    0.041351    -0.01549  -0.0021729  -0.0041217   -0.026858    0.020239
0.023162    0.039078   -0.027833   0.0056225  -0.0099683   -0.016464    0.020564
0.029658    0.033881   -0.028482    0.013418   -0.018413  -0.0093186    0.021538
0.03453    0.022512   -0.021986    0.014068   -0.029132  -0.0096434    0.017965
0.033231   0.0043233   -0.015165   0.0026992   -0.042124   -0.018738    0.012443
0.024786   -0.018088  -0.0089938   -0.013866   -0.050244   -0.032055   0.0059473
0.014068   -0.035303  -0.0060706    -0.03238   -0.048945   -0.046671  0.00075039
0.0062721   -0.043748  -0.0041217   -0.052193   -0.037577   -0.056091  -0.0031473
0.0014   -0.043423  -0.0018481   -0.070707   -0.022636   -0.057715  -0.0054209
-0.0024977   -0.037252  -0.0011985   -0.081751  -0.0099683   -0.052193  -0.0067202
-0.0041217   -0.025234  -0.0050961   -0.076554  -0.0031473   -0.043748  -0.0050961
-0.0015233  -0.0060706   -0.011267   -0.052843  -0.0011985   -0.033354   0.0020496
0.0059473    0.016341   -0.012567   -0.017114  0.00042559   -0.026209    0.014068
0.016016     0.03583  -0.0047713    0.017965   0.0056225   -0.020687    0.028034
0.023162    0.046873   0.0065969    0.042651    0.012768   -0.016464    0.039078
0.027385    0.048497    0.014068    0.054019    0.020564    -0.01549    0.045574
0.024137      0.0433    0.015367    0.056292    0.025761   -0.017764    0.047523
0.017965    0.033881    0.010495    0.053369    0.024786   -0.019712    0.044924
0.01017    0.020564   0.0049729    0.041351    0.016991   -0.020687    0.036804
0.0033489    0.008221    0.003024    0.022837   0.0033489   -0.021337    0.025111
-0.0018481      0.0014   0.0062721   0.0056225   -0.011592   -0.022636    0.014717
-0.0037969   0.0026992    0.012443  -0.0021729    -0.02426   -0.025559   0.0085458
-0.0028225   0.0091954    0.016666  0.00010078   -0.029782   -0.030431   0.0072465
-0.0050961    0.015367    0.019589    0.009845   -0.029132    -0.03303   0.0072465
-0.013216    0.015367    0.022188    0.024786   -0.025559   -0.030756   0.0095202
-0.026533    0.013418    0.022837    0.039402   -0.021986   -0.022311    0.011469
-0.039851    0.010495    0.022512    0.048497   -0.014191   -0.012892    0.015367
-0.048296   0.0072465    0.021863    0.046873  -0.0050961   -0.007045    0.017965
-0.047321   0.0056225     0.01764    0.039402   0.0033489  -0.0054209    0.017965
-0.042449   0.0062721    0.010495    0.028034   0.0075714  -0.0099683    0.015367
-0.034978   0.0072465   0.0033489    0.020239   0.0095202   -0.014191    0.012443
-0.026209   0.0072465  -0.0021729    0.019589    0.012443   -0.019063    0.012119
-0.019388    0.008221  -0.0037969    0.021863    0.017965   -0.025234    0.013418
-0.017764     0.01017  -0.0018481     0.01894    0.022837   -0.030756    0.016341
-0.022311    0.013743   0.0020496    0.012768    0.024786    -0.03238    0.023162
-0.030431    0.014068   0.0075714   0.0062721    0.023487    -0.03238    0.030308
-0.044073   0.0085458    0.010495   0.0033489    0.020239   -0.031406    0.031932
-0.058689 -0.00087364    0.014392   0.0046481    0.015367   -0.030756    0.027385
-0.06551   -0.010943    0.021863    0.011794    0.008221   -0.029457    0.020239
-0.061288    -0.01549    0.031932    0.020888      0.0014   -0.028482    0.016666
-0.049595   -0.012892    0.039727     0.02641  -0.0034721   -0.028157    0.015042
-0.039201  -0.0041217     0.04395    0.026735  -0.0093186   -0.029457    0.015692
-0.034004   0.0049729    0.042975    0.019914   -0.015815    -0.03303    0.011794
-0.035628   0.0075714    0.038103   0.0095202   -0.021337   -0.037577   0.0020496
-0.043099    0.003024    0.027385  -0.0034721    -0.02426   -0.041475   -0.008669
-0.051868  -0.0076946    0.013743   -0.014516   -0.024909   -0.041799   -0.019388
-0.055441   -0.023285  0.00010078   -0.018413   -0.021661   -0.038227   -0.028482
-0.04992   -0.039201  -0.0083442    -0.01484   -0.012567   -0.031406   -0.034004
-0.034654   -0.050894   -0.011267  -0.0089938  -0.0024977   -0.022961   -0.035303
-0.01549   -0.054142  -0.0093186  -0.0034721   0.0043233   -0.014191   -0.032055
-0.0018481   -0.045372  -0.0060706   0.0023744   0.0078962  -0.0083442   -0.022961
0.0046481   -0.026533  -0.0015233   0.0088706    0.013418  -0.0028225  -0.0083442
0.0075714  -0.0015233   0.0039985    0.017316    0.022512   0.0036737   0.0078962
0.0091954    0.019914   0.0075714    0.023812    0.031607     0.01017    0.020888
0.011469    0.033231   0.0078962    0.023162    0.036479    0.015367    0.031282
0.012768    0.033556   0.0069217    0.016666     0.03518    0.022837    0.039078
0.013743    0.024137   0.0020496   0.0078962    0.028684     0.03583    0.037454
0.014717    0.013093  -0.0057458   0.0026992    0.019589    0.048497    0.025111
0.014068   0.0056225   -0.013541   0.0059473   0.0072465    0.055643   0.0065969
0.014068   0.0020496   -0.019712    0.016991  -0.0054209    0.055318  -0.0063954
0.015367  -0.0011985   -0.021986    0.031282   -0.013866    0.053044   -0.010618
0.019589  -0.0073698   -0.018413    0.044599   -0.013866    0.050121  -0.0044465
0.027709   -0.015165  -0.0060706     0.05272  -0.0067202    0.047198   0.0062721
0.034206   -0.021012    0.009845    0.054019   0.0056225    0.042001    0.016341
0.038428   -0.023285    0.024137    0.050121    0.021538    0.036154    0.021538
0.038753   -0.023935    0.032906    0.039727    0.033881    0.032257     0.01829
0.036804   -0.021337    0.033231    0.028034    0.035505    0.028359    0.015367
0.028684   -0.016789    0.027709     0.01829    0.030633    0.024137    0.015367
0.013093   -0.010943    0.024786    0.012443    0.023487    0.016666    0.019264
-0.0063954  -0.0047713    0.026735   0.0091954    0.016991     0.01017    0.025111
-0.021986 -0.00054884    0.029333   0.0059473    0.012443      0.0014    0.027709
-0.029457   0.0017248    0.027709   0.0026992   0.0085458   -0.007045    0.025436
-0.027833   0.0039985    0.021213   0.0023744   0.0039985   -0.012892    0.020239
-0.020362   0.0056225    0.013093   0.0052977 -0.00087364  -0.0096434    0.016341
-0.012567   0.0049729   0.0056225   0.0069217  -0.0018481  -0.0011985    0.013418
-0.0050961   0.0046481 -0.00022403   0.0069217  0.00010078    0.009845    0.012119
-0.00054884     0.01017 -0.00087364   0.0065969   0.0023744    0.023487   0.0091954
0.0014     0.01894  -0.0011985   0.0088706   0.0043233    0.038103   0.0062721
0.0046481    0.029009  -0.0034721    0.012443   0.0043233    0.048497   0.0049729
0.0095202    0.034855  -0.0041217    0.016016   0.0046481    0.053694   0.0017248
0.014392    0.038428  -0.0041217    0.017965   0.0023744    0.053694  -0.0044465
0.016341    0.041676  -0.0034721    0.021863  -0.0044465    0.048497   -0.011267
0.011794    0.044924  -0.0060706    0.024786   -0.015815    0.039078   -0.020037
0.0017248    0.044924   -0.013541    0.020239   -0.027183    0.025111   -0.032055
-0.013541    0.042326   -0.026209   0.0069217   -0.035628    0.011144   -0.047321
-0.023935    0.038428   -0.035628  -0.0083442   -0.037902 -0.00022403   -0.060638
-0.025559    0.035505   -0.036927   -0.022311   -0.037252  -0.0057458   -0.063237
-0.021012    0.033231   -0.029457   -0.029457   -0.035953  -0.0057458   -0.052843
-0.013541    0.029983   -0.016789   -0.029132   -0.034654  -0.0011985   -0.034654
-0.0031473    0.029009  -0.0028225   -0.026209    -0.03238   0.0046481   -0.016464
0.0075714    0.032906    0.009845   -0.019388   -0.028807    0.015042  -0.0031473
0.021213     0.04395    0.019914  -0.0076946   -0.021986    0.029009    0.008221
0.032906    0.057592    0.029658    0.008221    -0.01549      0.0433    0.017316
0.039402    0.071883    0.038103    0.025111   -0.010943    0.050771    0.021863
0.042651    0.080328    0.042975    0.042975   -0.010293    0.046223    0.019589
0.042975    0.079354    0.040052    0.056292   -0.013216    0.030957    0.014717
0.042975    0.068635    0.032906    0.063438   -0.021337    0.011469    0.008221
0.044599    0.054019    0.027385    0.062464   -0.034329  -0.0031473   0.0039985
0.044275    0.041027    0.029658    0.056617   -0.047646   -0.008669   0.0010752
0.042651     0.03583     0.03518    0.053369   -0.056091  -0.0063954  -0.0031473
0.044599    0.039402    0.033881    0.056292    -0.05804  -0.0011985  -0.0083442
0.050771    0.044275    0.023812    0.063438   -0.054467   0.0049729  -0.0096434
0.057267      0.0433    0.012119    0.067986   -0.047321    0.009845  -0.0067202
0.065062    0.034855    0.008221    0.063763   -0.040825    0.013093 -0.00022403
0.071558    0.023162    0.010819     0.05272   -0.034654    0.013093   0.0078962
0.072208    0.012768    0.016991    0.041027   -0.027508    0.011794    0.013743
0.068635   0.0088706    0.024137    0.037454   -0.019388    0.012119    0.018615
0.064413    0.009845    0.029983    0.042975   -0.012242    0.015692    0.021213
0.062139    0.012119    0.031282    0.053369   -0.013866    0.020239    0.021213
0.063763    0.013743    0.027385    0.062789    -0.02361    0.022512    0.024461
0.067011    0.016666    0.020564    0.065387   -0.033354     0.01894    0.030957
0.068635     0.01894    0.015042    0.059216   -0.037252    0.011144    0.041027
0.067986    0.017965    0.010495    0.050121   -0.032705    0.003024    0.048822
0.067011    0.016341   0.0065969    0.039727   -0.021986  -0.0047713    0.051096
0.067986    0.016666   0.0026992    0.030957  -0.0099683  -0.0093186     0.05142
0.070909    0.017965   0.0046481    0.024461  -0.0015233  -0.0096434    0.050771
0.075131    0.018615    0.011469    0.016666  0.00042559  -0.0083442    0.049796
0.076755     0.01829    0.017965   0.0059473  -0.0028225  -0.0093186    0.050771
0.072208    0.016991    0.023487  -0.0015233  -0.0099683   -0.013541    0.053694
0.059541    0.017965    0.023162  -0.0034721   -0.013866   -0.014516    0.054344
0.042326    0.022837    0.018615   0.0020496   -0.011592  -0.0089938    0.052395
0.021863    0.031932    0.011144    0.010819  -0.0024977  0.00010078    0.045574
0.0072465    0.040702   0.0033489     0.01764   0.0085458   0.0049729    0.036804
-0.0011985    0.039727  -0.0044465    0.014068    0.013093  -0.0024977    0.023487
-0.0031473    0.029009   -0.014191   0.0046481   0.0075714   -0.019063   0.0078962
-0.0024977    0.013418   -0.023285  -0.0031473  -0.0057458   -0.034329  -0.0041217
-0.0011985  0.00075039   -0.026209  -0.0063954   -0.021012   -0.042449   -0.011592
-0.00054884  -0.0057458   -0.022961  -0.0031473   -0.031406    -0.04115   -0.011592
0.00075039  -0.0050961    -0.01614   0.0017248   -0.028157   -0.030431  -0.0063954
0.0056225  -0.0021729  -0.0083442   0.0036737   -0.012242   -0.015165   0.0010752
0.012443   0.0036737 -0.00022403   0.0052977    0.012119  -0.0024977    0.011469
0.022512    0.011469   0.0062721   0.0088706    0.038103   0.0043233    0.022837
0.034855     0.01894    0.008221    0.012443    0.059216   0.0085458    0.030633
0.0433    0.026085   0.0043233    0.015042    0.069285    0.011469    0.031932
0.0433    0.031282  0.00042559    0.016991    0.068635    0.012443    0.027385
0.038753    0.033231  0.00042559    0.017965    0.067336    0.009845    0.022188
0.036154    0.029983   0.0049729    0.020239    0.065712   0.0033489    0.020239
0.040702    0.023487    0.011144    0.024786    0.058566  -0.0018481    0.024461
0.049796    0.015692    0.013093    0.030308    0.047198  -0.0057458    0.032906
0.055318    0.009845    0.011469     0.03453    0.034855  -0.0076946    0.039402
0.053694   0.0072465   0.0075714    0.039402    0.025436  -0.0073698    0.041676
0.047847   0.0075714   0.0033489    0.044275    0.022188  -0.0080194      0.0433
0.042001     0.01017 -0.00054884    0.050771    0.024786   -0.010943     0.04395
0.038428    0.013093  -0.0024977    0.053369    0.034206   -0.018738    0.045249
0.039402    0.013093  -0.0050961     0.05207    0.043625   -0.026209    0.045899
0.043625    0.011469   -0.008669    0.047523    0.047847   -0.029132      0.0433
0.046873   0.0078962   -0.013541    0.040702    0.045249   -0.028807    0.036479
0.044599   0.0039985   -0.016789    0.031932     0.03518   -0.027508    0.027709
0.038103   0.0020496   -0.016464    0.025761    0.021538   -0.026209    0.020888
0.028684   0.0026992   -0.012892    0.022837   0.0091954    -0.02361    0.014717
0.021213   0.0052977  -0.0063954    0.021538   0.0036737   -0.017439    0.012768
0.015367   0.0078962   0.0020496    0.016016   0.0049729  -0.0063954    0.012443
0.0091954    0.011144     0.01017   0.0072465     0.01017   0.0088706    0.013093
0.0043233    0.012768    0.012768  -0.0015233    0.012768    0.021213    0.012119
-0.00022403    0.013418   0.0088706  -0.0041217   0.0091954    0.025436    0.014068
-0.0041217    0.012119  -0.0024977  0.00010078   0.0026992    0.020564    0.020239
-0.0057458    0.012443    -0.01484    0.008221  -0.0024977    0.013093    0.031607
-0.0083442    0.013743    -0.02426    0.014068  0.00075039   0.0052977    0.042001
-0.0099683    0.017965   -0.024585     0.01017    0.011469 -0.00054884    0.048497
-0.011592    0.021538   -0.017764  -0.0011985    0.021538  -0.0031473    0.049147
-0.014516    0.022188  -0.0063954   -0.015815    0.027709  -0.0031473    0.045574
-0.016464    0.020888 -0.00022403   -0.028157    0.032257  -0.0021729    0.039727
-0.021337    0.020239  0.00075039   -0.036602    0.034855  0.00010078    0.033231
-0.032055     0.01894 -0.00054884   -0.040825    0.032257      0.0014    0.020888
-0.047321    0.015042  -0.0050961   -0.039201    0.019589  -0.0011985   0.0026992
-0.062912   0.0052977   -0.011592   -0.036927   0.0023744   -0.007045   -0.017439
-0.07428   -0.007045   -0.016789   -0.038876   -0.013216   -0.015815   -0.028807
-0.07493   -0.019388   -0.018088   -0.042774   -0.025234   -0.026858   -0.030106
-0.068109   -0.029132   -0.017764   -0.044073   -0.029132   -0.037902   -0.022961
-0.054792   -0.034329   -0.013866   -0.040825   -0.023935   -0.045047   -0.012242
-0.034654   -0.030756  -0.0050961   -0.034978   -0.010943   -0.043099   0.0020496
-0.0076946   -0.016464   0.0075714   -0.021986   0.0026992   -0.031081    0.016341
0.015692   0.0036737    0.022188  -0.0060706    0.014717    -0.01549    0.026085
0.030308    0.023162    0.036479     0.01017    0.021213  -0.0037969    0.033556
0.031932     0.03583    0.047847    0.022837     0.01829   0.0017248    0.037129
0.026085    0.040702    0.051745    0.029983    0.011144   0.0065969    0.035505
0.017965    0.039078    0.047523    0.032582   0.0049729    0.012119    0.030957
0.009845    0.035505    0.041027    0.034855   0.0017248    0.014717    0.026735
0.0033489    0.029009    0.037454    0.041351   0.0017248    0.015367    0.024786
-0.0011985    0.021863    0.038103    0.047523   0.0039985    0.013093    0.025761
-0.0021729    0.014392    0.038428    0.050121   0.0059473   0.0059473    0.029983
-0.0037969     0.01017    0.036154    0.047198   0.0010752   0.0010752     0.03453
-0.0076946    0.012119    0.032582    0.042975   -0.013541  0.00042559    0.039402
-0.015165    0.016991    0.027709    0.039402   -0.030756   0.0026992    0.043625
-0.022311    0.022188    0.023162    0.037129   -0.041475   0.0065969    0.044924
-0.025884    0.025111     0.01894    0.036804   -0.041799    0.010819    0.045249
-0.029457    0.026735    0.015367    0.036804   -0.034978    0.015367    0.044599
-0.034978    0.028034    0.011469     0.03583   -0.025884    0.016341    0.042326
-0.042774    0.030308   0.0072465     0.03453   -0.018738    0.012443    0.038428
-0.050569    0.033556   0.0059473    0.031607   -0.013866   0.0075714    0.033231
-0.055441    0.039078   0.0069217    0.025436   -0.011267    0.003024     0.02641
-0.056741    0.042001   0.0095202    0.016341   -0.012567 -0.00022403     0.01894
-0.053817    0.045249    0.013743   0.0065969   -0.015165 -0.00087364    0.012119
-0.052193    0.045899    0.015692  -0.0018481   -0.017439 -0.00054884   0.0095202
-0.055116    0.044924    0.012443  -0.0076946   -0.019063  -0.0024977    0.010495
-0.057715    0.041676   0.0065969   -0.010943   -0.017439  -0.0063954     0.01017
-0.054792    0.036154 -0.00054884   -0.010943   -0.016789   -0.012892   0.0072465
-0.046996    0.028034  -0.0057458  -0.0024977   -0.018413    -0.01549   0.0023744
-0.03303    0.019914  -0.0083442    0.015042   -0.016789   -0.010943  -0.0031473
-0.01549    0.017316  -0.0080194    0.031282  -0.0083442 -0.00022403  -0.0083442
-0.00087364    0.019264  -0.0060706    0.039078   0.0039985   0.0078962  -0.0099683
0.0059473    0.021538  -0.0031473    0.037778    0.015042   0.0095202   -0.007045
0.0010752    0.022188  0.00075039    0.029983    0.022188  0.00042559  -0.0015233
-0.0093186    0.014717   0.0020496    0.015367    0.019264    -0.01549   0.0020496
-0.019063  0.00010078  0.00010078  -0.0015233   0.0088706   -0.032055  -0.0024977
-0.02361   -0.015165  -0.0021729   -0.017114  -0.0057458   -0.043099   -0.011592
-0.021337   -0.025234  -0.0034721   -0.026533    -0.01549   -0.046022   -0.019388
-0.016789   -0.029132  -0.0021729   -0.026209   -0.016789   -0.039851   -0.023285
-0.012892   -0.026209  -0.0015233   -0.022636  -0.0089938   -0.030106    -0.02361
-0.010943   -0.022311  -0.0015233   -0.015165    0.003024   -0.020687   -0.022636
-0.008669   -0.016789  -0.0024977  -0.0057458     0.01829   -0.010943   -0.021986
-0.00087364  -0.0044465   0.0017248   0.0049729    0.038753 -0.00054884   -0.021337
0.013418    0.011144    0.012768    0.015042    0.061165   0.0088706   -0.022636
0.024786    0.027385    0.027385    0.021213    0.081952    0.011794   -0.023285
0.030633    0.038753    0.038428    0.025111    0.095269    0.010495    -0.02361
0.031282    0.042975    0.042326    0.028034    0.093645   0.0065969   -0.023935
0.026735    0.038103    0.037454    0.027709    0.078704   0.0033489   -0.022636
0.015692    0.030633    0.030308    0.026085    0.059216   0.0033489   -0.018413
0.0049729    0.021863    0.022512     0.02641      0.0433   0.0059473   -0.014191
0.0010752    0.016666     0.01829    0.030308     0.03518   0.0091954   -0.014516
0.0043233    0.014068    0.015042    0.036154    0.032906    0.016016   -0.020362
0.008221    0.012443    0.010819    0.037778    0.034206    0.020888   -0.025559
0.0078962   0.0072465    0.008221     0.03518    0.033556    0.019914   -0.026533
0.0072465  0.00042559   0.0078962    0.029983    0.029658    0.012119   -0.022961
0.011794  -0.0041217   0.0091954    0.024137    0.023162   0.0046481   -0.016789
0.020564  -0.0037969   0.0091954    0.021213    0.016341   0.0036737   -0.013541
0.033231   0.0010752   0.0075714    0.023162    0.013093   0.0078962   -0.015165
0.040377   0.0069217   0.0020496     0.02641    0.015367    0.015042   -0.017439
0.039727   0.0095202  -0.0031473    0.028684    0.023162    0.023162   -0.018413
0.035505   0.0091954  -0.0011985    0.029983    0.028684    0.033231   -0.018413
0.032582    0.008221   0.0091954    0.029658    0.029658    0.043625    -0.01614
0.034855   0.0049729    0.022188    0.030633    0.023487    0.047847   -0.016464
0.039402   0.0010752    0.029658    0.030957    0.013743    0.045899   -0.019712
0.041676  -0.0021729    0.026085    0.031282   0.0078962    0.042326   -0.019712
0.037454   -0.007045    0.013418    0.025761    0.010495    0.038103    -0.01614
0.028359  -0.0096434  -0.0011985    0.015042    0.017965    0.036154  -0.0073698
0.016341  -0.0083442   -0.010293   0.0023744    0.023487    0.033881   0.0010752
0.008221  -0.0054209  -0.0096434  -0.0080194    0.025436    0.028034   0.0043233
0.0072465  -0.0011985  -0.0037969   -0.010293    0.027709    0.019589   0.0023744
0.012119   0.0017248  -0.0021729  -0.0067202    0.030633    0.013093 -0.00054884
0.01764   0.0039985  -0.0050961  0.00010078    0.033556   0.0091954  -0.0034721
0.021538   0.0023744  -0.0057458   0.0052977    0.035505   0.0095202  -0.0054209
0.017316  -0.0037969  -0.0015233   0.0075714    0.033556   0.0095202   -0.008669
0.0056225    -0.01484   0.0046481   0.0052977    0.024786   0.0046481   -0.016464
-0.0099683   -0.027183    0.010495  -0.0028225    0.011469  -0.0057458   -0.027183
-0.020687   -0.040825    0.015367   -0.011267 -0.00087364   -0.021012   -0.037902
-0.024585   -0.046671    0.018615   -0.014516  -0.0067202   -0.034329   -0.043748
-0.026858   -0.042774    0.016991  -0.0099683  -0.0031473   -0.038551   -0.045372
-0.030431    -0.03173    0.011794  -0.0031473   0.0059473   -0.034654   -0.043748
-0.03238   -0.017439   0.0069217   0.0046481    0.013743   -0.027508   -0.039851
-0.025234 -0.00022403   0.0069217    0.016666    0.019264   -0.021661   -0.030756
-0.0067202    0.019264    0.014068    0.031282    0.024137   -0.014516   -0.015165
0.01764    0.038753    0.022837    0.045899    0.029009   -0.007045    0.003024
0.039727    0.054668    0.027709    0.059216    0.025436  0.00075039    0.019589
0.058241    0.061489    0.028034    0.065062   0.0075714   0.0075714    0.027709
0.070259    0.059865    0.022512    0.061489   -0.033354    0.014392    0.025436
0.073832    0.053044    0.012443    0.054344   -0.088896    0.024786    0.019914
0.067661    0.046223  0.00075039    0.047523    -0.14444     0.03583    0.016666
0.055318    0.043625  -0.0073698    0.044275    -0.17984    0.042001    0.019264
0.041351    0.046223   -0.011592    0.043625    -0.18731      0.0433    0.024786
0.037778    0.049472  -0.0080194    0.044275    -0.16782    0.039078    0.030957
0.047198    0.052395 -0.00022403    0.044924    -0.13242    0.028684    0.034206
0.066362    0.050121   0.0046481    0.045574   -0.096692     0.01894    0.032257
0.089098    0.048497   0.0049729    0.049147    -0.07428    0.015367    0.028684
0.10534    0.046548   0.0043233    0.055318   -0.069083    0.020239    0.025761
0.11054     0.04395   0.0043233    0.062139   -0.069408    0.027385     0.02641
0.10209    0.041351   0.0020496    0.066362   -0.064536    0.029333    0.027709
0.08585    0.037778  -0.0031473    0.065712   -0.057065    0.024137    0.029658
0.069285    0.032582  -0.0096434    0.056942   -0.052518    0.012768    0.029658
0.056292     0.02706   -0.013541    0.041027   -0.054142   0.0043233    0.028034
0.049472    0.022837   -0.012567    0.027709   -0.064861      0.0014    0.028684
0.045574    0.019264  -0.0096434    0.022837   -0.083375   0.0020496    0.032906
0.041027    0.017965  -0.0080194    0.022837    -0.10709   0.0052977     0.03583
0.035505    0.019264  -0.0067202    0.022837    -0.13112     0.01017    0.032582
0.031607    0.021538  -0.0024977    0.020888    -0.15029    0.015367    0.022188
0.030633    0.022512   0.0052977    0.012768    -0.15873    0.019914    0.011794
0.028034    0.023487    0.014717   0.0017248     -0.1597    0.023812   0.0075714
0.021538    0.022512    0.023162  -0.0076946    -0.16328    0.022837   0.0072465
0.014717    0.019264    0.028034   -0.010618    -0.17237    0.016666    0.013743
0.012768    0.015042    0.027385  -0.0041217    -0.18114     0.01017    0.025111
0.012768    0.013093    0.019264   0.0072465    -0.18374   0.0069217    0.036479
0.012768    0.014392   0.0095202    0.015692    -0.17627   0.0046481    0.037778
0.014068    0.016016   0.0043233    0.015692    -0.15321  0.00010078    0.028359
0.016016    0.013093   0.0020496   0.0039985     -0.1178  -0.0067202    0.011794
0.016666   0.0023744  -0.0037969   -0.014191   -0.076554   -0.013541  -0.0054209
0.015042   -0.011592   -0.013866   -0.032705   -0.033679   -0.017764   -0.016789
0.011794   -0.022961    -0.02361   -0.045372    0.009845   -0.020037    -0.02426
0.0062721   -0.029457   -0.025559   -0.047646    0.053369   -0.018738   -0.028482
0.00075039   -0.031406   -0.016464   -0.038551    0.093645   -0.016789   -0.030106
-0.0060706   -0.030431  -0.0034721   -0.023285      0.1206    -0.01549   -0.028807
-0.010943   -0.022636   0.0072465  -0.0060706     0.13425   -0.014516   -0.022311
-0.0089938  -0.0080194    0.013418   0.0091954     0.14269   -0.011917   -0.011592
-0.0057458    0.009845    0.019914    0.016991     0.14951  -0.0073698   0.0023744
-0.0057458    0.026085    0.028684     0.01894     0.15309 -0.00087364    0.016016
-0.012242    0.037129    0.033231     0.01894     0.15211   0.0059473    0.027385
-0.021012    0.043625    0.031282     0.01829     0.14334    0.010495    0.033881
-0.025234    0.046873    0.023162    0.020888     0.12385    0.015367    0.037454
-0.02426    0.049472    0.014068    0.028034    0.097868    0.024461    0.041027
-0.019388    0.050771     0.01017     0.03583    0.076431    0.033231    0.046873
-0.011267    0.049472    0.011794    0.039727    0.067661    0.036479    0.053044
-0.0044465     0.04395    0.014068    0.039078    0.067011    0.034855    0.057917
-0.0028225     0.03583    0.015042    0.036154    0.065712    0.028034    0.059216
-0.0037969    0.029333    0.013743    0.033881    0.060515    0.019589     0.05207
-0.0060706    0.028034    0.013093    0.033231    0.054993   0.0088706    0.040377
-0.0047713    0.030633    0.015692     0.03453    0.055318 -0.00087364    0.029658
-0.0037969     0.03518     0.01894    0.034855    0.057267   -0.007045    0.024137
-0.0050961    0.039078    0.021863    0.034206    0.058891  -0.0076946    0.024461
-0.010618    0.042326    0.023162    0.032582    0.062139  -0.0015233    0.026085
-0.019712    0.042651    0.019589    0.026735    0.067336    0.010819    0.024786
-0.03238    0.036804    0.013418    0.022837    0.070909    0.022837    0.023162
-0.046022    0.027709   0.0069217    0.021863    0.072208    0.026735    0.020888
-0.054142     0.01894   0.0026992    0.022188     0.06961    0.022512    0.018615
-0.051544    0.013093  0.00075039    0.019914    0.066037    0.012443     0.01764
-0.037902    0.009845   0.0020496    0.014392    0.061814  -0.0031473    0.016991
-0.020362    0.009845   0.0046481    0.010495    0.057917   -0.020362    0.017316
-0.0063954    0.012768   0.0033489    0.012119    0.054668   -0.034654    0.022837
0.0017248    0.014392  0.00075039    0.017965    0.052395   -0.041475    0.029658
0.0062721    0.013743  0.00075039    0.026085    0.051745   -0.036927     0.03453
0.011144    0.012119   0.0059473    0.030633    0.050121   -0.025884    0.033231
0.014392    0.012443    0.016341    0.029658    0.042651    -0.01549    0.025436
0.015042    0.013093     0.02706    0.025761     0.02706   -0.012242    0.015042
0.016341    0.013418    0.030633    0.015367   0.0078962   -0.012892   0.0046481
0.014392   0.0095202    0.023162   0.0020496  -0.0093186   -0.017439  -0.0050961
0.0091954   0.0017248   0.0085458   -0.012892   -0.023285   -0.028482   -0.011267
0.00042559  -0.0083442  -0.0076946   -0.028807   -0.034654   -0.044398   -0.012892
-0.0093186   -0.016789   -0.019712   -0.043099     -0.0405   -0.061937  -0.0050961
-0.017114   -0.022636   -0.026209   -0.055116   -0.039851   -0.073631    0.009845
-0.022311   -0.022961   -0.024909   -0.059989   -0.033679   -0.078503    0.025436
-0.021012   -0.021986   -0.021337   -0.057065   -0.029132   -0.073306    0.035505
-0.01614   -0.019388   -0.020362   -0.047646   -0.023935   -0.060963     0.03583
-0.0089938   -0.014191    -0.01614   -0.030756   -0.017439   -0.045372    0.032906
0.0023744  -0.0015233  -0.0060706  -0.0076946  -0.0093186   -0.029457    0.031607
0.016666    0.017316   0.0059473    0.016341   0.0020496   -0.014516    0.033881
0.030957    0.035505    0.016016    0.037778    0.014068  -0.0011985    0.038428
0.04395    0.044275    0.020564    0.052395    0.023487   0.0085458      0.0433
0.05207    0.040702     0.01764    0.059541    0.029009    0.015367    0.047523
0.054993    0.029983   0.0095202    0.059216    0.029333    0.016666    0.048497
0.054668    0.018615    0.003024    0.058891    0.025111    0.014392    0.047198
0.05207    0.013093      0.0014    0.062464    0.013743    0.010819    0.045249
0.046873    0.012768   0.0017248    0.064413  -0.0011985    0.008221     0.04395
0.040052    0.014392  0.00075039    0.058891   -0.010293   0.0091954    0.043625
0.036154     0.01764  0.00010078    0.046548  -0.0054209    0.015692    0.039402
0.036804    0.022837   0.0017248    0.034206    0.010495    0.021863    0.030957
0.041676    0.029658   0.0049729     0.02706    0.027385    0.024461    0.019914
0.047523    0.033231    0.008221    0.026735    0.037778    0.024137    0.010495
0.054668    0.030957    0.011469    0.030957    0.040702    0.024137   0.0078962
0.055318    0.021213     0.01894    0.036804    0.037129    0.026085    0.014392
0.048172   0.0091954    0.026735    0.039727    0.029009    0.027709    0.024461
0.037129  -0.0050961    0.036154    0.037778    0.017965    0.024137    0.032906
0.025436   -0.016464      0.0433    0.034206   0.0052977    0.015042    0.036804
0.015367   -0.022311    0.047847    0.029983  -0.0024977   0.0043233    0.037454
0.0091954   -0.019712    0.050446    0.026085  -0.0034721  -0.0018481    0.037129
0.008221  -0.0096434    0.049472    0.021863 -0.00054884 -0.00022403    0.033231
0.012768   0.0059473    0.045899     0.01764   0.0036737   0.0036737    0.020564
0.016991    0.019264    0.040052    0.012443   0.0062721   0.0036737   0.0062721
0.019914    0.027709    0.036479   0.0091954   0.0069217   0.0033489   -0.007045
0.021863    0.030633     0.03453     0.01017   0.0069217   0.0026992    -0.01484
0.022188    0.027709    0.030633    0.016341    0.009845 -0.00054884   -0.014516
0.020564    0.020239    0.023487     0.02706    0.012119  -0.0041217  -0.0083442
0.015042    0.012443    0.012119    0.038428    0.013093  -0.0076946 -0.00054884
0.0075714   0.0078962   0.0010752    0.043625    0.013093   -0.013541   0.0020496
0.003024   0.0088706  -0.0041217    0.040052    0.011794   -0.023935  0.00010078
-0.00054884    0.013743  -0.0015233    0.030633    0.008221   -0.036927  -0.0031473
-0.0034721    0.015042   0.0033489    0.017316      0.0014   -0.046671  -0.0089938
-0.0093186   0.0085458   0.0065969  0.00010078   -0.007045   -0.050569   -0.015815
-0.019388  -0.0054209   0.0059473   -0.015815   -0.014516    -0.04992   -0.023285
-0.032705   -0.023285   0.0010752   -0.026858   -0.016464   -0.050894   -0.029132
-0.045372   -0.039526  -0.0024977   -0.028157   -0.013541   -0.054467   -0.030756
-0.052193   -0.048296 -0.00022403   -0.018738   -0.011592   -0.059664   -0.025884
-0.051544   -0.045697  0.00075039  -0.0050961   -0.010293   -0.059014   -0.016789
-0.039526    -0.03173  -0.0018481   0.0062721  -0.0031473   -0.046347  -0.0044465
-0.017439  -0.0096434  -0.0057458    0.011794    0.014392   -0.025884   0.0078962
0.0049729    0.011469  -0.0073698    0.011794    0.035505   -0.007045     0.01764
0.019914    0.027385  -0.0063954   0.0095202    0.050446   0.0059473    0.024461
0.027385    0.037778  -0.0073698   0.0088706    0.054668    0.014068    0.028034
0.031607    0.044599   -0.008669    0.011794    0.048822    0.019589    0.028359
0.035505    0.048172  -0.0093186    0.020239    0.037778    0.021863    0.022512
0.038103    0.047523  -0.0099683    0.030633    0.025111    0.020564    0.013743
0.041676      0.0433  -0.0099683    0.037129   0.0091954    0.017316   0.0046481
0.042975    0.039402  -0.0076946    0.038103  -0.0067202    0.016016  0.00042559
0.042326     0.03453  -0.0031473    0.033231   -0.018088    0.020564   0.0033489
0.038428    0.031282   0.0010752     0.02641   -0.021012    0.028034    0.010819
0.032582    0.027385  0.00075039    0.021213   -0.017439    0.033556     0.01894
0.025111    0.024137  -0.0037969    0.022837   -0.013216    0.035505    0.026085
0.01829    0.022188   -0.010943    0.029009   -0.012892     0.03583    0.029658
0.012119    0.022512   -0.013216    0.038103   -0.013541     0.03453    0.029983
0.008221    0.023487   -0.010293    0.043625   -0.015165    0.032582    0.028034
0.0056225    0.024786  -0.0050961    0.045899   -0.013541     0.03453     0.02641
0.0039985    0.024461  -0.0011985    0.049472   -0.012242    0.041351    0.025436
0.0078962    0.021213   0.0010752    0.053369   -0.017764    0.048497    0.025436
0.012443    0.015367   0.0017248     0.05272   -0.028482    0.048172    0.024461
0.014392    0.011144  0.00075039    0.041027   -0.038876    0.040377    0.023162
0.015042   0.0088706    0.003024    0.023812   -0.044073    0.032257    0.023812
0.01764   0.0085458    0.010495   0.0072465   -0.045697    0.032257    0.022512
0.023162   0.0078962    0.017316  -0.0021729   -0.043099    0.038428    0.019264
0.029658   0.0072465    0.017316  -0.0015233   -0.037252    0.042975    0.014392
0.032582   0.0059473    0.009845   0.0072465   -0.031081    0.043625     0.01017
0.032906   0.0059473 -0.00054884     0.01764   -0.024585    0.040702   0.0095202
0.030957   0.0026992  -0.0057458    0.022837   -0.014516    0.036479    0.016341
0.024786  -0.0021729  -0.0054209    0.024786  -0.0024977    0.029658    0.028684
0.01894  -0.0083442  0.00010078    0.020564   0.0069217    0.020888    0.039727
0.015042   -0.011592   0.0052977    0.013093    0.009845    0.012768    0.046873
0.016991   -0.012242   0.0069217   0.0046481   0.0056225   0.0069217    0.046873
0.01894   -0.013216   0.0033489  -0.0028225  -0.0054209  0.00042559    0.038753
0.011469   -0.018413  -0.0011985   -0.013216   -0.021661  -0.0057458    0.026085
-0.0076946   -0.027508  -0.0076946   -0.025234   -0.038227   -0.012567    0.014392
-0.028807   -0.036278   -0.013541   -0.034004    -0.04927   -0.020362   0.0062721
-0.042449   -0.039851   -0.017439   -0.038227   -0.053492   -0.027183   0.0023744
-0.044398   -0.037252   -0.016464   -0.038551    -0.04927   -0.029457   0.0033489
-0.035303   -0.029132   -0.007045   -0.039526   -0.040175   -0.026533    0.008221
-0.015165   -0.017439    0.011144   -0.039201   -0.027508   -0.018088    0.015367
0.014392   0.0010752    0.032582    -0.03173  -0.0099683  -0.0041217    0.026735
0.040702    0.025761    0.048497   -0.016464    0.010495    0.012119    0.037454
0.054344    0.050121    0.051096   0.0020496    0.024461    0.024786    0.040052
0.05272    0.066686    0.042651    0.020239    0.029009    0.026085    0.033231
0.042326    0.075456    0.028034    0.033881    0.023812     0.01894    0.023812
0.027709    0.075456    0.014717    0.037778    0.016016    0.008221    0.013743
0.014068    0.073182   0.0062721    0.033881    0.011794  -0.0018481   0.0075714
0.0056225    0.070909   0.0059473    0.025761    0.015367  -0.0073698   0.0039985
0.003024    0.065712    0.010495    0.019264    0.022512  -0.0060706  0.00075039
0.0062721    0.059216    0.017965    0.015042     0.02706  -0.0011985  -0.0018481
0.01017    0.054668    0.024461    0.014392    0.026735   0.0036737  -0.0067202
0.013418     0.05207    0.025436    0.015367    0.023487   0.0088706   -0.012892
0.015042    0.050446    0.019589    0.016666    0.021538    0.013418   -0.019712
0.015367    0.049147     0.01017    0.017965    0.023487    0.015367   -0.025234
0.013093    0.046873 -0.00022403    0.020564     0.02641    0.015042   -0.025884
0.01017    0.043625  -0.0057458    0.025111    0.023162    0.016991   -0.021012
0.0085458    0.041351  -0.0031473    0.032906    0.014392    0.019914   -0.013541
0.0056225    0.041351   0.0023744    0.041351   0.0033489    0.023162   -0.007045
0.0033489    0.039727   0.0039985    0.042975  -0.0057458    0.021538  -0.0024977
0.003024    0.033231   0.0017248    0.033881    -0.01614    0.016341  -0.0018481
0.0043233    0.024786  -0.0018481    0.018615   -0.027183    0.008221  -0.0011985
0.0091954    0.015042  -0.0047713   0.0065969   -0.035628  0.00042559  0.00042559
0.016341    0.009845  -0.0041217   0.0023744   -0.034978  -0.0037969 -0.00054884
0.01894   0.0056225   0.0020496   0.0043233    -0.03303  -0.0073698  -0.0050961
0.015042  0.00010078    0.011144   0.0075714   -0.029782  -0.0099683   -0.010943
0.0036737  -0.0044465     0.01829   0.0085458   -0.023935  -0.0099683   -0.013541
-0.0080194  -0.0073698    0.023487    0.008221   -0.017439   -0.007045   -0.013541
-0.01549  -0.0083442    0.025436   0.0088706    -0.01614 -0.00022403   -0.010943
-0.014191  -0.0073698    0.021538    0.013743   -0.020362   0.0059473  -0.0073698
-0.0073698  -0.0031473    0.015042    0.021213    -0.02426   0.0072465  -0.0021729
-0.0018481  0.00010078   0.0059473    0.030633   -0.026533    0.003024   0.0049729
-0.0031473  0.00042559  -0.0037969    0.035505   -0.024909  -0.0057458    0.011794
-0.012892  -0.0050961   -0.013216     0.03453    -0.02361    -0.01549    0.012768
-0.027508   -0.015815   -0.017439    0.029983   -0.028482   -0.025234    0.008221
-0.040175   -0.027833   -0.015815    0.022512   -0.039526   -0.034004      0.0014
-0.045372   -0.036278   -0.011917    0.011144   -0.052193   -0.040825  -0.0018481
-0.044398   -0.036602  -0.0083442  -0.0050961   -0.057715    -0.04115  -0.0018481
-0.038227   -0.030106  -0.0060706   -0.018413   -0.049595   -0.035953  -0.0031473
-0.029132   -0.018738  -0.0028225   -0.024909    -0.03303   -0.029132  -0.0047713
-0.017764  -0.0047713   0.0046481    -0.01614   -0.015165   -0.020037 -0.00087364
-0.0080194    0.012443    0.016016   0.0039985  -0.0011985  -0.0080194    0.009845
-0.0028225    0.030957     0.02706    0.026735   0.0095202   0.0059473    0.024786
-0.0015233    0.047198    0.033556    0.044924    0.012119    0.020564    0.043625
0.00042559    0.057917    0.037778    0.053044   0.0088706    0.036804    0.058891
0.0059473    0.061814    0.041676    0.055643   0.0043233    0.053044    0.066362
0.012119    0.061814    0.045574     0.05272   0.0033489    0.063438    0.064737
0.016666    0.059216    0.045249    0.044599   0.0043233    0.063113    0.057267
0.016991    0.056942      0.0433     0.03583   0.0091954    0.052395    0.048822
0.015042    0.056942    0.039727    0.031607    0.015367    0.036804    0.045249
0.011469    0.057917     0.03453    0.029983    0.017316    0.024137    0.049472
0.0095202    0.061165    0.027385    0.029658    0.013093    0.016341    0.057592
0.009845    0.062139    0.019264    0.027709   0.0075714    0.012119    0.065712
0.0078962    0.060515   0.0091954     0.02641   0.0020496    0.010819    0.069285
0.0049729    0.055968  0.00010078    0.025111  -0.0034721    0.010495    0.066037
0.0014    0.050121  -0.0067202    0.024461  -0.0096434    0.014068     0.06019
0.00042559    0.045249  -0.0096434    0.023162   -0.010943    0.020239    0.053369
0.00075039    0.036479  -0.0083442    0.015367  -0.0057458    0.024137    0.044924
0.00075039    0.028034  -0.0047713   0.0065969   0.0072465    0.024461    0.041676
0.00010078    0.021538  -0.0031473 -0.00022403    0.019589    0.018615    0.045574
-0.0037969     0.01829  -0.0044465  -0.0034721    0.024137   0.0091954     0.05272
-0.0057458    0.019589  -0.0063954  -0.0057458     0.01829  -0.0015233    0.056292
-0.0054209    0.022512  -0.0057458  -0.0050961   0.0069217  -0.0089938    0.054344
-0.0054209     0.02641  -0.0015233  -0.0031473  -0.0060706  -0.0073698    0.045574
-0.0067202    0.029333   0.0020496  -0.0024977   -0.016464  0.00010078    0.033231
-0.0060706    0.027709   0.0039985 -0.00054884   -0.014191   0.0091954    0.019589
-0.0037969    0.019589   0.0085458   0.0043233  0.00075039    0.015042   0.0091954
-0.0011985    0.009845    0.013418    0.013743    0.020239    0.016666   0.0017248
-0.0011985   0.0023744    0.013743    0.025761    0.032906    0.013743   0.0017248
-0.0044465  0.00042559   0.0023744    0.037778    0.031932   0.0075714   0.0049729
-0.010293   0.0049729   -0.016789    0.042651    0.020888   0.0010752    0.008221
-0.018738    0.010819   -0.036278    0.038103   0.0088706  -0.0054209    0.010495
-0.027508    0.009845   -0.047646    0.027709  -0.0018481   -0.014191   0.0095202
-0.034004  -0.0011985   -0.051544    0.011469   -0.014516   -0.026209   0.0049729
-0.037577   -0.019712   -0.050569  -0.0067202   -0.027508   -0.035953 -0.00087364
-0.039526   -0.038551    -0.04927   -0.022961   -0.035303   -0.043748   -0.007045
-0.043099   -0.051544   -0.046347   -0.029457   -0.037252   -0.050894   -0.011917
-0.045372   -0.056416     -0.0405   -0.026533    -0.03303   -0.055766   -0.013866
-0.045372   -0.051868   -0.031081   -0.017114   -0.025234   -0.059664   -0.010293
-0.041475   -0.040175   -0.021986  -0.0063954   -0.019063    -0.05739  -0.0028225
-0.034654   -0.024909   -0.016789   0.0088706   -0.014516   -0.047321   0.0072465
-0.023285  -0.0096434   -0.013866    0.030633  -0.0076946   -0.028807    0.016666
-0.0037969   0.0043233   -0.012242     0.05207   0.0020496  -0.0089938     0.01829
0.017316    0.017316  -0.0099683    0.066037    0.013093   0.0056225    0.013418
0.03518    0.026735  -0.0047713    0.071234    0.024786    0.012768   0.0033489
0.044599    0.032582   0.0056225    0.067986     0.03453    0.016016  -0.0060706
0.042975    0.033881    0.019264     0.06019    0.040052     0.01894  -0.0093186
0.036154    0.033231    0.030957    0.054019    0.038103    0.019589   -0.008669
0.029983    0.036154    0.033881    0.055643    0.030308    0.017965  -0.0054209
0.029009    0.042651    0.029333    0.063113    0.022188    0.013743 -0.00022403
0.033231    0.051096    0.021213    0.069285    0.016016    0.009845   0.0056225
0.0433    0.056942    0.014717     0.06831    0.012443    0.003024    0.010495
0.055643    0.057267    0.011794    0.056942    0.010819  -0.0034721    0.013093
0.062464     0.05207    0.012768    0.038103   0.0095202   -0.007045    0.013743
0.062139    0.047847    0.015692    0.025436   0.0091954  -0.0041217    0.011469
0.054019    0.044275    0.022188    0.023162    0.012443   0.0023744   0.0075714
0.044275    0.041676    0.031932    0.024786     0.01764   0.0062721  0.00010078
0.03518    0.040702    0.042651    0.028034    0.024786   0.0056225  -0.0096434
0.029658    0.040052    0.050121    0.029658    0.032257   0.0039985   -0.016464
0.028359    0.037129    0.050446    0.031932    0.037129   0.0039985   -0.017439
0.029009    0.031282    0.048497    0.032906    0.036804   0.0065969   -0.018413
0.028684    0.024137    0.045574    0.031282    0.029009    0.011144   -0.020687
0.030308    0.019589    0.042651    0.026085    0.015042    0.013418   -0.021661
0.039727     0.01894    0.034855    0.019264 -0.00054884    0.016016   -0.021986
0.049147    0.020239    0.023812    0.012768  -0.0080194    0.016991   -0.021337
0.049796    0.020888    0.016341    0.008221  -0.0034721    0.016666   -0.021986
0.039727    0.019914    0.019264   0.0091954   0.0039985    0.013093   -0.020362
0.027709    0.014717    0.031607    0.014392     0.01017   0.0085458   -0.018413
0.021538   0.0039985    0.047523    0.019589   0.0095202   0.0023744   -0.018088
0.022188  -0.0083442    0.060515    0.021538   0.0049729  -0.0037969   -0.019388
0.027709   -0.021661    0.062139    0.021863  -0.0021729  -0.0080194   -0.018088
0.03453   -0.030756    0.050121    0.022837   -0.012242   -0.010618   -0.013866
0.039078   -0.033679    0.030957    0.026085   -0.018413   -0.011592   -0.008669
0.03583   -0.030431    0.013743    0.021213   -0.022636   -0.012242   -0.008669
0.023812   -0.028482   0.0017248   0.0020496   -0.025559   -0.017439   -0.013866
0.0069217   -0.030106  -0.0037969   -0.021012   -0.020362   -0.025234   -0.021986
-0.010618   -0.035628  -0.0054209   -0.036602  -0.0096434    -0.03303    -0.03173
-0.021337   -0.038551 -0.00087364   -0.040825  -0.0031473   -0.041475   -0.040175
-0.020687   -0.039851      0.0014   -0.033679  -0.0041217   -0.048945   -0.046022
-0.0063954   -0.039851  0.00075039   -0.019063  -0.0067202   -0.052193   -0.047971
0.019914   -0.035953   0.0017248   0.0026992  -0.0031473   -0.047646   -0.041799
0.047198   -0.026533   0.0088706    0.027385    0.011794   -0.037577   -0.025234
0.066686  -0.0089938     0.01764    0.047198    0.033231   -0.024909  -0.0034721
0.077405    0.012443    0.027385    0.058891    0.052395   -0.012892    0.019264
0.079679    0.030957     0.03453    0.063113    0.063763  -0.0015233    0.033881
0.070259    0.042326     0.03518    0.061814    0.066362    0.003024     0.03518
0.053694    0.045574    0.027709    0.055968    0.063113  -0.0018481     0.02706
0.034855    0.044599    0.014068    0.048172    0.056942   -0.012892    0.018615
0.022512    0.043625   0.0010752    0.039078    0.045899   -0.020687    0.012119
0.017316    0.044599  -0.0041217    0.029658    0.032257   -0.022636   0.0085458
0.019914    0.046873   0.0017248    0.023812    0.021213   -0.020687   0.0059473
0.023812    0.045574    0.010819    0.025761    0.014717    -0.01549   0.0056225
0.02706    0.039078    0.017316    0.032582     0.01017   -0.008669   0.0046481
0.028034    0.029009     0.01894    0.037454   0.0062721  -0.0015233   0.0039985
0.028359    0.021213    0.017965    0.036154   0.0052977   0.0026992   0.0010752
0.027385    0.017316    0.016666    0.025111   0.0072465   0.0052977  -0.0047713
0.025436    0.015367    0.011794    0.012443   0.0095202   0.0072465   -0.012567
0.021213    0.012119   0.0039985   0.0059473    0.011469   0.0046481   -0.020687
0.016991    0.008221  -0.0047713   0.0085458    0.012768  0.00075039   -0.021337
0.016341   0.0065969   -0.011917    0.018615    0.011144  0.00010078   -0.015165
0.021213   0.0078962   -0.019063    0.028034   0.0065969   0.0046481  -0.0047713
0.030633    0.010819   -0.024585    0.028684  0.00010078   0.0091954   0.0088706
0.040702    0.012768   -0.025559    0.022188  -0.0093186    0.009845    0.020888
0.046223    0.014392   -0.020362    0.011794   -0.020687   0.0078962    0.029333
0.045899    0.016016   -0.015165  -0.0011985   -0.030756   0.0046481    0.035505
0.042001    0.016666   -0.012242   -0.012567   -0.037252   0.0020496    0.036804
0.037778     0.01894   -0.011917   -0.018738   -0.040825  0.00042559    0.032257
0.032257    0.021538   -0.013866   -0.020037   -0.040825  0.00075039    0.028034
0.025436     0.02641   -0.015815   -0.017439   -0.039526   0.0046481    0.028684
0.017316    0.032906    -0.01614   -0.014191    -0.03303    0.011794    0.034855
0.011144    0.039402   -0.012567   -0.010293   -0.021986    0.016666    0.041351
0.009845    0.040702  -0.0031473  -0.0067202   -0.013541     0.01894    0.045899
0.0091954    0.036479   0.0069217  -0.0060706   -0.013866     0.01894     0.04395
0.0043233    0.025436    0.012443   -0.010943   -0.023285    0.014068    0.033231
-0.0057458    0.011144    0.010819   -0.020687   -0.038551      0.0014    0.015367
-0.016464 -0.00054884   0.0052977   -0.032055   -0.055116   -0.013216  -0.0015233
-0.025559  -0.0050961  -0.0037969   -0.042774   -0.069733   -0.022311   -0.012892
-0.027508  0.00010078   -0.014191   -0.048945   -0.078178   -0.019712   -0.013541
-0.02426   0.0078962    -0.02426   -0.049595   -0.077853   -0.013866  -0.0073698
-0.019388    0.014717   -0.028157   -0.043423   -0.068758   -0.013541   0.0010752
-0.014191    0.022512   -0.022961   -0.030106    -0.05804   -0.017764   0.0091954
-0.0076946    0.029333  -0.0083442   -0.012242   -0.047971   -0.018088    0.017316
0.0036737    0.037454    0.010819   0.0059473   -0.034654  -0.0089938    0.023487
0.01829    0.046548    0.027709    0.021538   -0.019388   0.0046481    0.022837
0.027385    0.053369    0.039078    0.031932  -0.0073698     0.01764    0.015692
0.028034    0.054344    0.041351    0.037454  -0.0031473    0.025436     0.01017
0.016666    0.048497     0.03583    0.038428  -0.0037969    0.030308    0.012443
0.0010752    0.037129    0.028359    0.038103  -0.0041217    0.032582     0.01894
-0.008669    0.024461    0.022188    0.038103  -0.0031473    0.031932     0.02706
-0.0089938    0.010495    0.014717    0.040377 -0.00054884    0.027709    0.031932
-0.0018481 -0.00022403   0.0049729      0.0433 -0.00054884    0.023162    0.028684
0.0059473  -0.0054209  -0.0041217    0.043625  -0.0041217    0.019264     0.01764
0.011144  -0.0041217  -0.0093186    0.041027   -0.012242    0.017316      0.0014
0.012768   0.0010752  -0.0076946    0.038103   -0.020362    0.021213   -0.012892
0.011469   0.0059473   0.0036737    0.036804   -0.023285    0.028684   -0.019712
0.0062721    0.008221    0.016991    0.036479   -0.019712    0.036479   -0.017439
0.0023744   0.0056225     0.02706    0.032906   -0.013216    0.042001  -0.0099683
0.0049729   0.0017248    0.030633    0.028684  -0.0073698      0.0433  -0.0015233
0.012443  0.00010078    0.026735     0.02641  -0.0044465     0.03453   0.0056225
0.018615      0.0014    0.018615    0.027709  -0.0067202    0.018615   0.0069217
0.021213   0.0052977    0.011469     0.02641   -0.014191   0.0039985   0.0052977
0.019264    0.010495   0.0085458    0.020564   -0.020687  -0.0018481   0.0023744
0.012768    0.013093   0.0072465    0.011794   -0.020362    0.003024      0.0014
0.0026992    0.011144   0.0069217   0.0026992   -0.012242    0.013093   0.0023744
-0.0063954   0.0052977   0.0095202   0.0017248  0.00010078    0.024137    0.003024
-0.010618  -0.0015233    0.012443   0.0078962    0.014068    0.031607      0.0014
-0.0073698  -0.0067202    0.014068    0.016666    0.024137    0.031607   0.0023744
0.00010078  -0.0093186    0.011469    0.022837    0.029333    0.024786    0.010495
0.0036737  -0.0089938   0.0095202    0.027385    0.030308    0.014717    0.027385
0.0026992  -0.0063954    0.010819    0.028684    0.029983    0.008221    0.050121
-0.0021729 -0.00054884    0.016016    0.028359    0.028359    0.008221    0.070259
-0.0093186    0.003024     0.01894    0.025111    0.024786    0.013743    0.077405
-0.016464  -0.0021729     0.01764    0.015692    0.021213    0.019264    0.067011
-0.021012   -0.014516    0.011794  0.00010078    0.015042     0.01829    0.042001
-0.025884   -0.031406 -0.00054884   -0.014191   0.0062721    0.015042    0.012768
-0.027833   -0.047321   -0.012892   -0.026209  -0.0031473    0.011469  -0.0089938
-0.027183   -0.059014   -0.019063   -0.034329   -0.010293    0.010819   -0.015815
-0.024585   -0.061288   -0.016464   -0.035628   -0.013541    0.015692  -0.0083442
-0.022636   -0.057715  -0.0067202   -0.029457   -0.016464    0.022837   0.0065969
-0.021337   -0.048296   0.0039985   -0.017114   -0.017439    0.025761    0.021538
-0.015815   -0.034004    0.015367 -0.00022403   -0.013866    0.026735    0.032582
-0.0031473    -0.01614    0.024461     0.01764  -0.0057458    0.027385    0.038753
0.014717  0.00075039    0.028684    0.029009   0.0065969    0.027385    0.045574
0.031932    0.013418    0.028684    0.030957    0.020564     0.02641    0.054019
0.043625    0.019589    0.024137    0.030633    0.032257    0.022837    0.057267
0.046873    0.021863    0.018615    0.031932    0.039078    0.015042    0.053694
0.041676    0.022512    0.015692    0.033881    0.038753   0.0069217    0.050121
0.031932    0.024137    0.015042    0.033881    0.033231   0.0052977     0.05272
0.021863    0.025761    0.017965    0.028684    0.025436    0.008221    0.059216
0.013418    0.026085    0.020564    0.021538    0.020564    0.013418    0.063763
0.0091954    0.026085    0.020564    0.019264    0.024137    0.017316    0.062789
0.012443    0.028359    0.016666    0.025111    0.037454    0.021213     0.05207
0.021538    0.032906   0.0091954    0.033881    0.053369    0.026735    0.033231
0.028034    0.039402      0.0014    0.039078    0.063763    0.031932     0.01764
0.029658    0.044275  -0.0060706    0.038103    0.063438    0.030957    0.013093
0.025761    0.048172   -0.011267    0.033556    0.053369    0.024137    0.013743
0.017965    0.051745    -0.01484    0.025436     0.03518     0.01764    0.014068
0.0075714    0.055318   -0.014191     0.01764    0.014717    0.012443    0.016016
-0.0031473    0.057267  -0.0083442    0.015367   0.0020496   0.0095202    0.022837
-0.012567    0.057267 -0.00087364    0.019589      0.0014   0.0062721    0.031607
-0.017439    0.055968   0.0065969    0.026085    0.009845  0.00075039    0.040702
-0.018088    0.054344    0.013743    0.034206    0.020888  -0.0073698    0.047847
-0.017764    0.053044    0.022188     0.04395    0.024786   -0.016789    0.050771
-0.014516    0.052395     0.02641    0.053044    0.017965   -0.020037    0.049472
-0.0063954    0.053044    0.024786    0.056292    0.008221   -0.014516    0.042326
0.0046481    0.056292    0.018615    0.055318   0.0039985  -0.0044465    0.032906
0.0091954    0.058891    0.011144    0.048497   0.0056225   0.0049729    0.027709
0.0039985    0.058891   0.0046481     0.03453    0.013743   0.0085458    0.029333
-0.0063954    0.057592    0.003024     0.01764     0.02706   0.0065969    0.033556
-0.012242    0.056942   0.0052977   0.0059473    0.041027  -0.0034721     0.03518
-0.011267    0.057267   0.0062721   0.0036737     0.05272   -0.012892     0.02706
-0.0024977    0.057592   0.0026992   0.0062721    0.061165   -0.018738    0.013093
0.0078962     0.05272  -0.0093186   0.0075714    0.063763   -0.020362   0.0043233
0.014392    0.040702   -0.027183 -0.00054884    0.058241   -0.024585 -0.00022403
0.014068    0.023487   -0.044398   -0.014191    0.042326   -0.033354  -0.0031473
0.0085458   0.0085458   -0.053168   -0.029457    0.020564   -0.045372  -0.0021729
0.0026992  -0.0015233   -0.049595   -0.037252  0.00075039   -0.054467   0.0020496
-0.0015233  -0.0031473   -0.038876   -0.034329    -0.01484   -0.052843   0.0049729
-0.0031473   0.0036737   -0.028157   -0.020362   -0.026533   -0.042774   0.0059473
-0.0015233    0.016991   -0.022311 -0.00054884   -0.034004   -0.029782     0.01017
0.0026992    0.029658   -0.021012    0.018615   -0.035953    -0.01549    0.023162
0.010819    0.040377   -0.019388    0.036804   -0.029782  0.00010078    0.041351
0.021863    0.048497   -0.015815     0.05272   -0.016789    0.014068    0.054019
0.033881    0.054344  -0.0073698    0.064088  -0.0015233    0.023812    0.055968
0.046548    0.056617   0.0049729    0.070259    0.010495    0.028684    0.051096
0.059216    0.054668    0.018615     0.06961    0.020239    0.029983    0.044924
0.066686    0.048822    0.029983    0.065712    0.027385    0.029333    0.041351
0.066686    0.041027    0.034206    0.066362    0.029009    0.026085    0.038103
0.063438     0.03453    0.029983    0.069934    0.024461    0.016341    0.032582
0.058891    0.028684    0.023162    0.072533    0.014717  0.00075039    0.023487
0.05207    0.023162    0.021538     0.06831  0.00075039   -0.017114    0.014068
0.040052    0.015042    0.026085    0.054668   -0.011917   -0.028807    0.011469
0.023812   0.0059473    0.029658    0.034855   -0.019063   -0.029457    0.014717
0.0088706  0.00010078    0.029658     0.01764   -0.014191   -0.018088    0.019589
-0.00022403   0.0020496    0.030957   0.0095202 -0.00022403  -0.0024977    0.020888
-0.00087364   0.0095202    0.034206     0.01017    0.016341    0.013743    0.017965
0.0043233    0.020239    0.034855    0.015692    0.025761     0.02706    0.012119
0.013418    0.028684    0.033881    0.023487    0.024461    0.033881   0.0049729
0.017316    0.032582    0.031932    0.029333    0.016666    0.030633  -0.0037969
0.014392    0.031607    0.030308    0.029333    0.008221    0.023487   -0.010943
0.011469    0.026735    0.032257    0.025761   0.0046481    0.016341   -0.016464
0.0078962     0.01894    0.034206    0.022512   0.0065969    0.013418   -0.016789
0.0043233    0.013418    0.033881    0.021538    0.013093    0.014392   -0.011917
0.0072465    0.013093    0.032257    0.025436    0.022837    0.015042 -0.00087364
0.013093    0.016341    0.032906    0.031282    0.031282    0.011144    0.013743
0.018615     0.01829    0.036804    0.037778    0.038753 -0.00054884    0.025436
0.01829    0.017316    0.039402    0.042651    0.042326   -0.013866    0.031932
0.013093    0.016016     0.03453    0.041027    0.041027    -0.02361    0.030633
0.0091954    0.015367    0.025111    0.030308    0.035505   -0.028482    0.028684
0.014068    0.016991    0.018615    0.013418    0.025761   -0.026858    0.028359
0.023162    0.020239    0.016991 -0.00054884    0.016016   -0.020687    0.028359
0.033231    0.024786    0.022188  -0.0063954   0.0075714   -0.012567    0.027385
0.038753    0.029983    0.028684  -0.0093186   0.0010752  -0.0073698    0.022512
0.03518    0.028684    0.029333    -0.01549  -0.0083442  -0.0060706    0.013743
0.021538    0.019264    0.021863   -0.027833   -0.020687  -0.0047713   0.0052977
0.0039985   0.0052977    0.009845    -0.04115   -0.033679  -0.0057458  -0.0015233
-0.011267   -0.010943  -0.0041217    -0.04992   -0.042774   -0.010943  -0.0044465
-0.020687   -0.025884   -0.016789   -0.048945    -0.04927   -0.021986  -0.0063954
-0.022311   -0.037902   -0.023935   -0.038551   -0.051868   -0.035303  -0.0093186
-0.017764    -0.04115   -0.023935   -0.020687   -0.048296   -0.042774   -0.010618
-0.011592   -0.034329   -0.020362      0.0014   -0.037902   -0.039851  -0.0060706
-0.0037969   -0.020687    -0.01614    0.023162   -0.025884   -0.025234   0.0020496
0.0065969  -0.0034721   -0.012892    0.037129   -0.019712  -0.0063954   0.0085458
0.017316    0.010495   -0.011917     0.04395   -0.021337    0.010819   0.0091954
0.026085     0.01829   -0.012567    0.044275   -0.030106    0.021863   0.0039985
0.027709    0.020564   -0.013541    0.039727   -0.040825    0.025111  -0.0028225
0.022837    0.020564   -0.011592     0.03518   -0.050569    0.023162   -0.007045
0.016991    0.021863  -0.0093186    0.033881   -0.058689    0.020239  -0.0063954
0.0091954    0.021213   -0.010293    0.033881   -0.063561    0.020888  -0.0024977
0.0049729    0.019589   -0.013866    0.033881    -0.06551    0.021538   0.0046481
0.0072465    0.016666   -0.018088     0.03518   -0.064536    0.021213    0.010495
0.014068    0.013743   -0.019388    0.035505   -0.061937     0.01829    0.009845
0.017965    0.012768   -0.017114    0.031932   -0.051868   0.0091954  0.00042559
0.016341    0.012119   -0.013541    0.026085   -0.038551 -0.00087364   -0.012567
0.011469    0.012768   -0.008669    0.020239   -0.028157  -0.0089938   -0.021986
0.0069217    0.015042  -0.0041217     0.01764   -0.021661   -0.017439   -0.023935
0.0023744    0.019264  -0.0011985    0.016666   -0.017439    -0.02426   -0.021986
-0.0034721    0.025111  0.00075039    0.017965   -0.015815   -0.029132   -0.020037
-0.010943    0.030633   0.0056225     0.01829   -0.019063   -0.029782   -0.017764
-0.018088    0.033881    0.012768    0.018615   -0.028157   -0.025559   -0.014191
-0.019712    0.030957    0.018615    0.015692   -0.035303   -0.015815   -0.013541
-0.01484    0.023162    0.024461     0.01017   -0.034654  -0.0060706   -0.012567
-0.0073698    0.013418    0.029333   0.0046481   -0.026209      0.0014  -0.0073698
-0.0050961   0.0036737    0.033231    0.003024   -0.011917   0.0036737  -0.0015233
-0.0076946  -0.0057458    0.036479   0.0020496  -0.0021729   0.0017248   0.0010752
-0.013866   -0.011917    0.034206   0.0023744  -0.0028225  -0.0028225 -0.00022403
-0.019712    -0.01484    0.022512  0.00075039  -0.0093186  -0.0063954  -0.0021729
-0.021012   -0.010943   0.0059473  -0.0024977  -0.0099683  -0.0099683  -0.0011985
-0.016464  -0.0057458   -0.008669  -0.0041217  -0.0021729   -0.013866   0.0023744
-0.0089938  -0.0037969   -0.017114  -0.0041217    0.012119    -0.01614   0.0023744
0.00075039  -0.0041217   -0.017114  -0.0028225    0.023487   -0.015165  -0.0011985
0.011469  -0.0057458   -0.010618      0.0014    0.025111   -0.012242  -0.0057458
0.019264  -0.0096434  -0.0021729   0.0046481    0.013093   -0.011917  -0.0060706
0.020239   -0.018088   0.0043233   0.0033489   -0.008669   -0.021012  -0.0044465
0.012119   -0.028482   0.0046481  -0.0031473   -0.029132   -0.033679  -0.0057458
0.00075039   -0.040825    0.003024   -0.013541   -0.043423   -0.041799   -0.011267
-0.0089938   -0.052518  0.00042559   -0.026209   -0.047971   -0.042774   -0.016464
-0.013541   -0.062912  -0.0041217   -0.038227   -0.046347   -0.039851   -0.017439
-0.0096434    -0.06681   -0.010618   -0.045047   -0.042449   -0.035303    -0.01484
-0.00054884   -0.061613   -0.019712   -0.042449   -0.032705   -0.030106  -0.0093186
0.012443   -0.045372   -0.025234   -0.029132   -0.017764   -0.021986  -0.0037969
0.027709   -0.022311   -0.026533  -0.0083442  0.00075039   -0.010293   0.0043233
0.042326   0.0033489   -0.020037    0.014717    0.017316   0.0026992    0.011794
0.05207    0.025761   -0.008669    0.031282    0.022837    0.014068    0.015042
0.054019    0.039078   0.0010752    0.038103    0.020239    0.023162    0.014392
0.049147    0.043625   0.0069217    0.036479    0.015042    0.032582    0.011144
0.0433    0.044275    0.010819    0.028359    0.012119    0.040052   0.0091954
0.039078    0.042975   0.0088706    0.019589    0.012443     0.04395    0.011469
0.034206    0.043625   0.0065969    0.010819    0.014392      0.0433    0.015042
0.028684    0.045899   0.0085458   0.0023744    0.019264    0.037778    0.019914
0.024786    0.045574    0.014068  -0.0028225    0.028359     0.02706    0.021538
0.023812    0.039402    0.018615  -0.0018481    0.038103    0.016991    0.023812
0.025436    0.029333    0.019914   0.0059473    0.045249    0.013093     0.02706
0.02706    0.021213    0.023812    0.019914    0.045574    0.015367    0.030633
0.024137    0.019264    0.025761    0.035505    0.037129    0.019589    0.031932
0.017965    0.022512     0.02706    0.047523    0.022512    0.020564    0.030308
0.010819    0.025761    0.026085    0.054019   0.0085458    0.016016    0.026085
0.0039985    0.024786    0.021213    0.052395  0.00075039   0.0091954    0.020239
0.0014    0.020239    0.013743    0.045249  -0.0018481   0.0020496    0.014717
0.00042559    0.015042   0.0075714    0.036154 -0.00087364  -0.0034721    0.010495
0.0023744    0.013418   0.0017248    0.025436   0.0052977  -0.0018481   0.0072465
0.0036737     0.01829  -0.0018481    0.016341    0.014392   0.0095202   0.0033489
0.0049729    0.026085  -0.0018481    0.012768    0.020888    0.024786  -0.0011985
0.0059473    0.030957   0.0017248    0.018615    0.019914    0.033231  -0.0044465
0.0069217    0.031607   0.0091954    0.030633    0.013093    0.031932  -0.0031473
0.009845    0.028034    0.020564    0.041027   0.0046481    0.019589 -0.00054884
0.015367    0.024137    0.036154    0.044599  0.00042559   0.0046481   0.0033489
0.022188    0.021213    0.048497    0.039727 -0.00022403  -0.0080194    0.009845
0.025436    0.018615     0.05272    0.030308   0.0026992   -0.011917    0.017965
0.019589    0.017965    0.046548    0.022188   0.0059473   -0.011267     0.02641
0.0069217    0.021213    0.037778    0.019589   0.0069217  -0.0080194    0.033231
-0.0080194    0.026735    0.029983    0.024137   0.0078962  -0.0050961    0.038753
-0.018413    0.029009    0.024786    0.031282    0.009845  -0.0044465    0.043625
-0.025559    0.025111     0.01894    0.032582     0.01017  -0.0073698    0.041351
-0.029457    0.016991   0.0088706    0.023812   0.0043233   -0.012892    0.029333
-0.035953   0.0085458  -0.0057458     0.01017  -0.0083442   -0.018088    0.014717
-0.042774   0.0026992   -0.018088  -0.0041217   -0.023935   -0.021986   0.0036737
-0.048945 -0.00087364   -0.022961    -0.01614   -0.034654   -0.024909  -0.0028225
-0.053168 -0.00022403   -0.018413   -0.021986   -0.037252   -0.027833  -0.0083442
-0.053492   0.0046481   -0.010618   -0.018088   -0.028157   -0.026858   -0.015165
-0.046022    0.009845  -0.0018481  -0.0080194  -0.0067202    -0.01614   -0.024585
-0.03238    0.015042   0.0036737   0.0036737    0.019914   0.0033489   -0.026533
-0.017114    0.020564   0.0072465    0.013743    0.041351    0.024786   -0.017439
-0.0060706    0.027385   0.0091954    0.021213    0.050771    0.038753  -0.0011985
-0.0024977    0.034855    0.012443    0.025761     0.05142    0.040377    0.016666
-0.0057458    0.041027     0.01764    0.027385    0.048822    0.031282    0.029658
-0.010618    0.042326     0.02641    0.027709    0.046548    0.019264    0.033881
-0.01484    0.042326    0.032582    0.024786    0.039402    0.011144    0.031932
-0.018738    0.039402    0.033231    0.021538    0.028684     0.01017    0.027385
-0.018738    0.032906    0.029333    0.017965    0.019589    0.012443    0.022837
-0.01484    0.023487    0.025436    0.015367    0.014068    0.013093     0.01764
-0.0063954    0.015042    0.018615    0.014392    0.012768    0.013418    0.011794
0.0049729    0.010819   0.0072465     0.01829    0.011794    0.015367   0.0026992
0.015042    0.013418  -0.0028225    0.020564   0.0075714     0.01764  -0.0063954
0.023812     0.01894  -0.0041217    0.017316   0.0036737    0.018615   -0.013541
0.030957    0.025761   0.0020496   0.0075714   0.0017248     0.01829   -0.017439
0.037454    0.028684    0.012768  -0.0050961    0.003024    0.019914    -0.01614
0.042326    0.028684    0.022512   -0.013866   0.0056225    0.023487   -0.010943
0.045574    0.029333     0.02641   -0.015165   0.0036737    0.027385  -0.0093186
0.045574    0.031607    0.021863  -0.0099683  -0.0054209    0.030308   -0.012567
0.040702    0.034855    0.013093 -0.00087364   -0.016789    0.029009   -0.016464
0.032582     0.03583   0.0033489   0.0095202   -0.026209    0.021863   -0.017439
0.025761    0.033881  -0.0047713    0.020888   -0.033354    0.010495   -0.012242
0.023487    0.028359   -0.008669    0.031932   -0.036927 -0.00054884  -0.0028225
0.024786    0.021863  -0.0083442    0.042975   -0.034978  -0.0096434   0.0075714
0.024461    0.015692  -0.0044465    0.051096   -0.022636   -0.013541    0.016666
0.022188    0.014068  0.00010078    0.054993  -0.0060706   -0.010943    0.019914
0.019264    0.018615   0.0036737    0.053369   0.0062721  -0.0031473    0.019264
0.016991    0.029009   0.0043233    0.050771    0.011144   0.0059473    0.021863
0.017316    0.039402   0.0033489    0.048822    0.009845     0.01017    0.028034
0.01829    0.045899   0.0039985    0.049147   0.0062721   0.0085458    0.037778
0.01829    0.045249   0.0069217    0.050771   0.0023744    0.003024    0.046873
0.012443     0.03583    0.012443    0.046548   0.0020496  -0.0057458    0.046873
0.0046481    0.017965    0.016991    0.031607   0.0049729    -0.01549    0.033881
-0.00054884 -0.00087364     0.01894     0.01017   0.0049729   -0.022311    0.014392
-0.00022403   -0.013541    0.017316  -0.0096434  -0.0011985   -0.023935  -0.0021729
0.0039985   -0.018413   0.0059473   -0.020687  -0.0099683   -0.019712   -0.011592
0.0088706   -0.013541   -0.012892   -0.020037   -0.018088   -0.014191   -0.017439
0.0065969  -0.0060706   -0.031406   -0.013216   -0.021986  -0.0083442   -0.019063
-0.00087364  -0.0015233   -0.042774  -0.0018481    -0.02361  -0.0034721   -0.017114
-0.0050961   0.0023744   -0.044073    0.012443   -0.021337   0.0023744   -0.010943
0.0026992   0.0062721   -0.034978     0.02641   -0.016789    0.013743  -0.0011985
0.023487   0.0088706   -0.016464    0.036804   -0.008669    0.029658    0.013418
0.048172    0.008221   0.0033489      0.0433      0.0014    0.044599    0.029983
0.069934   0.0062721    0.019589     0.04395   0.0095202    0.051096     0.04395
0.078704    0.003024    0.028359    0.039727    0.013743    0.047523    0.049147
0.075131   0.0026992    0.029658    0.031932    0.014068      0.0433    0.041676
0.062789   0.0039985    0.026735    0.024786    0.011469    0.044275    0.027709
0.046548   0.0056225    0.027709    0.021213   0.0095202    0.050446    0.015692
0.032906   0.0039985    0.036804    0.022188   0.0075714    0.055968    0.011144
0.024137  0.00042559    0.048172    0.027709   0.0049729    0.054993    0.014717
0.018615  -0.0037969     0.05142    0.034206   0.0036737    0.044599    0.024137
0.015042   -0.007045    0.044924    0.039402   0.0046481    0.028684    0.033231
0.013743  -0.0073698    0.038103     0.04395   0.0065969    0.015042    0.037454
0.011469  -0.0057458    0.033231    0.045899   0.0062721   0.0095202    0.036479
0.011794  -0.0024977    0.031282     0.04395   0.0039985   0.0075714    0.032906
0.016666   0.0023744    0.025436    0.040052   0.0010752   0.0085458    0.033231
0.024137   0.0085458    0.016666    0.034855  -0.0015233    0.011469     0.03583
0.033556    0.015367   0.0085458    0.032257  -0.0024977    0.014392    0.041351
0.041027     0.01829   0.0017248    0.031607  -0.0024977    0.015042    0.045899
0.047198    0.015692  -0.0034721    0.030957   0.0010752    0.013093    0.050121
0.049796    0.009845  -0.0080194    0.027385    0.008221    0.011144    0.047198
0.051745   0.0046481   -0.007045    0.019914    0.017316    0.010819     0.03453
0.055318   0.0039985   0.0017248    0.013743    0.024786    0.012119    0.016016
0.062789   0.0075714    0.013418    0.013093     0.02706    0.015692 -0.00054884
0.073182    0.014717    0.024137    0.019914    0.027385    0.022512  -0.0054209
0.07773    0.021863    0.025761    0.030957     0.02641    0.028359  -0.0031473
0.070909     0.02706    0.021213    0.038428    0.023487    0.029658   0.0059473
0.05207    0.026735    0.014717    0.037778    0.019264    0.026085    0.015692
0.028684    0.024461   0.0075714    0.027385    0.015042    0.017965    0.021538
0.0095202    0.023812    0.003024    0.011794    0.013093    0.012119    0.020888
0.0010752    0.021863      0.0014      0.0014    0.010819   0.0085458    0.014068
0.0023744    0.016991  0.00075039  -0.0011985   0.0046481   0.0072465   0.0043233
0.008221   0.0088706 -0.00087364 -0.00087364  -0.0099683   0.0059473  -0.0028225
0.011144 -0.00087364  -0.0047713  -0.0060706   -0.030431  0.00010078  -0.0057458
0.0095202  -0.0099683   -0.012892   -0.014191   -0.050569  -0.0089938  -0.0050961
0.003024    -0.01484   -0.024909   -0.022961   -0.061613   -0.017439  -0.0041217
-0.0093186   -0.013541   -0.036278   -0.031081   -0.060638   -0.022311  -0.0057458
-0.021661   -0.010618   -0.042449   -0.039526   -0.050894   -0.022961  -0.0076946
-0.023935   -0.007045   -0.039851     -0.0405   -0.037252   -0.021986  -0.0093186
-0.01549  0.00010078    -0.03173   -0.027508   -0.022636   -0.020037  -0.0034721
-0.0034721    0.015042   -0.018413  -0.0031473   -0.007045   -0.020362   0.0091954
0.0062721     0.03583  -0.0028225    0.025436   0.0095202   -0.024909    0.025111
0.012119    0.054019    0.012768    0.046223    0.025111   -0.031406    0.038428
0.016666    0.065712    0.023487    0.054668    0.031932   -0.033354    0.045574
0.020239    0.067661    0.025111    0.057267    0.028359   -0.030756    0.047523
0.022188    0.062789    0.019264    0.059865    0.018615   -0.024585    0.046873
0.023162    0.053369    0.012443     0.06084   0.0052977   -0.016464    0.042975
0.022512    0.043625   0.0085458     0.06084  -0.0076946  -0.0060706    0.040702
0.022512    0.036479   0.0065969    0.056617    -0.01484   0.0026992    0.040052
0.02641    0.033231   0.0046481    0.050446   -0.013866    0.003024    0.042326
0.031932    0.034206   0.0033489    0.042651  -0.0050961  -0.0047713    0.042001
0.032906    0.039402    0.003024    0.036479   0.0062721   -0.015815    0.037129
0.029658    0.044924   0.0043233    0.031607    0.014392   -0.026858    0.029658
0.021213    0.048172   0.0046481    0.029983    0.016991   -0.034004    0.026085
0.0059473    0.049147   0.0052977    0.030957     0.01764   -0.032705    0.027385
-0.0096434    0.045574   0.0052977    0.032257    0.019914   -0.023935    0.027385
-0.020362    0.040052   0.0039985    0.031607    0.020564   -0.016789    0.023487
-0.021661    0.035505  -0.0015233    0.027709    0.016016   -0.016464    0.017316
-0.014516    0.034206  -0.0067202    0.022188   0.0059473   -0.021986   0.0091954
-0.0015233    0.037129  -0.0099683    0.016341  -0.0050961   -0.028807   0.0039985
0.011794    0.040702   -0.010618   0.0091954    -0.01549   -0.035303   0.0020496
0.021863    0.041351  -0.0093186   0.0020496   -0.022636   -0.038876   0.0026992
0.023162    0.038428  -0.0083442  -0.0044465   -0.025884   -0.037252   0.0043233
0.015692    0.032582  -0.0089938   -0.007045   -0.023285   -0.034004   0.0072465
0.0010752    0.023162   -0.010618  -0.0054209   -0.013541   -0.033354   0.0095202
-0.012242    0.015042  -0.0089938  -0.0011985  -0.0057458   -0.037902    0.009845
-0.020362    0.010819  -0.0037969   0.0036737  -0.0018481   -0.045372     0.01017
-0.021337   0.0091954  0.00075039   0.0085458  -0.0011985   -0.050569    0.012119
-0.021661   0.0085458  0.00075039    0.012768  -0.0024977   -0.050569    0.015042
-0.024909   0.0078962  -0.0015233    0.014717  -0.0031473   -0.047646     0.01829
-0.030756   0.0088706  -0.0044465    0.013743  -0.0018481   -0.044398    0.016991
-0.040825     0.01017   -0.011267    0.011469 -0.00087364   -0.040825   0.0095202
-0.053817    0.012119   -0.020687   0.0046481  -0.0018481   -0.038227  -0.0031473
-0.070058    0.011794   -0.026209  -0.0073698  -0.0034721   -0.042449   -0.014191
-0.082076    0.012119   -0.025234   -0.020037  -0.0080194   -0.051219   -0.020037
-0.086623    0.010819   -0.020362   -0.028807   -0.010293    -0.05804   -0.021012
-0.0824   0.0075714   -0.013866   -0.028807  -0.0089938   -0.056741   -0.024585
-0.071682   0.0039985  -0.0050961   -0.022636  -0.0034721    -0.04992   -0.028807
-0.05739   0.0010752   0.0069217   -0.012892   0.0043233   -0.039526   -0.028482
-0.042124   0.0026992    0.021213 -0.00022403    0.016341   -0.025884   -0.017439
-0.029457   0.0091954    0.037778    0.016341    0.028359  -0.0089938   0.0023744
-0.019388    0.015692    0.048822    0.029009     0.03583    0.010495    0.021213
-0.010943     0.01894    0.052395     0.03583    0.038753    0.029333    0.033231
-0.0060706    0.019914    0.049796     0.03583    0.038753    0.044924    0.036154
-0.0057458     0.01764    0.045574    0.030633    0.039727    0.055318    0.028359
-0.0060706    0.011794    0.042001    0.022188    0.042326    0.057917     0.01894
-0.0054209   0.0020496    0.041676    0.015042    0.044924    0.055318    0.013418
-0.0021729  -0.0060706    0.043625    0.011794    0.046873    0.050121    0.012443
0.0010752  -0.0083442    0.046873    0.016016    0.046548     0.04395    0.010819
0.0039985  -0.0060706    0.049796    0.023487    0.042326    0.037129   0.0078962
0.0036737  -0.0018481    0.049472    0.028359     0.03518    0.027385   0.0046481
0.00075039   0.0020496    0.048172    0.027709    0.028034    0.017316 -0.00054884
-0.0050961    0.008221    0.044924    0.023487    0.019914    0.011469  -0.0054209
-0.010293    0.015692    0.039078    0.021863    0.012768    0.015042  -0.0093186
-0.012567    0.022512    0.029333     0.02641   0.0052977    0.029333  -0.0096434
-0.0093186    0.025436    0.019264    0.031282  -0.0021729    0.046873  -0.0067202
0.0017248    0.023487    0.013418    0.031282   -0.011267    0.055643  0.00042559
0.014068    0.018615    0.014392    0.024786   -0.023935    0.053369   0.0075714
0.022512    0.014717    0.016991    0.015042   -0.037902    0.041027   0.0091954
0.024786    0.010495    0.018615   0.0023744   -0.056091    0.028034   0.0078962
0.021213   0.0095202    0.017316  -0.0093186   -0.081426    0.016991   0.0075714
0.013418    0.011144    0.015042   -0.013541    -0.11163   0.0078962   0.0078962
0.0069217    0.016666    0.012443  -0.0080194    -0.14249   0.0017248   0.0075714
0.0020496    0.023812   0.0091954   0.0049729    -0.16523  -0.0031473   0.0069217
-0.0011985    0.027709   0.0069217    0.019914    -0.17789  -0.0063954   0.0039985
-0.0024977    0.027385   0.0039985    0.029658    -0.18114   -0.007045  -0.0018481
0.00042559    0.023162   0.0023744    0.030957    -0.17887  -0.0054209   -0.008669
0.00075039    0.015367   0.0020496    0.028359    -0.17205  -0.0057458   -0.013541
-0.0034721   0.0078962   0.0026992    0.024137    -0.16003  -0.0099683   -0.013216
-0.008669   0.0023744   0.0043233    0.019589    -0.14119   -0.016789  -0.0089938
-0.0099683  -0.0011985   0.0069217    0.015692     -0.1191    -0.02361  -0.0024977
-0.0063954  -0.0063954    0.012119    0.011144   -0.097666   -0.031406   0.0023744
-0.0047713   -0.015815    0.013093   0.0023744   -0.080127   -0.043748   0.0023744
-0.0093186   -0.031081   0.0065969   -0.010618   -0.060638   -0.055766   0.0010752
-0.020687   -0.043748  -0.0060706    -0.02361   -0.030431   -0.059014   0.0017248
-0.035628    -0.04992   -0.021012   -0.031406   0.0095202    -0.04927    0.003024
-0.048296   -0.050894   -0.030431   -0.035303    0.049147   -0.030106   0.0043233
-0.053168   -0.048945   -0.034004   -0.038227     0.07708   -0.011592   0.0052977
-0.047646   -0.045047   -0.032055   -0.038876    0.089423   0.0010752   0.0056225
-0.033354   -0.034654   -0.026858    -0.03173    0.089748    0.003024    0.009845
-0.011592   -0.017439   -0.019388   -0.018413    0.089423   0.0036737     0.01894
0.0095202   0.0017248  -0.0089938 -0.00054884    0.091372    0.008221    0.032906
0.024786    0.014717   0.0039985    0.015692    0.093645    0.015042    0.049472
0.038428    0.021863    0.015367    0.026735    0.091696     0.01764    0.065387
0.05272    0.022188    0.019914    0.033881    0.083576     0.01764    0.074806
0.065712    0.021863     0.01894    0.036154    0.072208    0.015042    0.072858
0.07708    0.021538    0.014392    0.033556    0.059541    0.013743     0.06084
0.083576    0.023162     0.01017    0.029333    0.049147    0.016666    0.042975
0.083576    0.024786    0.010819    0.025761    0.041027    0.022188    0.025761
0.079354     0.02706    0.014392    0.026735    0.036479    0.028034    0.016666
0.069934    0.029333    0.017965    0.028684    0.033881    0.029658    0.016991
0.055968    0.030308    0.020239    0.033881    0.029983    0.029009     0.02706
0.042975    0.029333     0.01894    0.037454    0.027709    0.028684     0.03583
0.034855    0.028684    0.014392    0.040377    0.027709    0.029333    0.037778
0.033556    0.028359   0.0088706    0.042326    0.034206    0.029658    0.033881
0.036479    0.028359   0.0062721    0.042651    0.042651    0.028034    0.027709
0.039078    0.023812   0.0052977    0.041351     0.04395    0.028034    0.025111
0.0433    0.020888    0.010819    0.041351    0.039402    0.027385    0.023812
0.045574    0.021213     0.01829    0.041027    0.030957    0.025436    0.021213
0.048497    0.022512    0.022837    0.040052    0.026085    0.024137    0.016666
0.049472    0.026735    0.022837    0.038428    0.026085    0.027385   0.0088706
0.049472    0.032906    0.020239    0.036154    0.030633    0.031607   0.0026992
0.048497     0.03583     0.01894    0.034206    0.036479    0.033556  -0.0031473
0.045249     0.03453    0.020888    0.033881    0.039402    0.032582  -0.0050961
0.035505    0.026735    0.025436     0.03453    0.040377    0.029658  -0.0047713
0.024137    0.014717    0.030633     0.03583    0.044275    0.028684 -0.00087364
0.016341   0.0023744    0.031607    0.037454    0.051745    0.025761   0.0069217
0.013743  -0.0037969    0.028359    0.036804    0.054668    0.019914    0.016666
0.015692 -0.00022403    0.023487    0.031282    0.049472    0.012443    0.024461
0.023162    0.008221    0.021538    0.021538    0.041027   0.0023744    0.027385
0.031932    0.016341    0.022512    0.011144    0.036804   -0.008669    0.025761
0.03583    0.021213    0.022837   0.0010752    0.037778   -0.019388    0.020888
0.028684    0.015692    0.016991  -0.0096434    0.035505   -0.031081    0.014392
0.014392   0.0017248   0.0043233   -0.019388    0.023487   -0.042774   0.0059473
0.003024   -0.018088  -0.0099683   -0.025234   0.0056225   -0.050894  -0.0031473
-0.00022403   -0.035628   -0.019712    -0.02361  -0.0099683   -0.052518   -0.013541
0.0023744   -0.042774   -0.020362   -0.013541   -0.016789   -0.045697   -0.021661
0.0020496   -0.038876   -0.015165  -0.0018481   -0.019388   -0.035303   -0.023935
-0.00087364   -0.028157  -0.0076946     0.01017   -0.016789   -0.024585   -0.021012
-0.0024977   -0.013216  0.00042559    0.022837  -0.0063954   -0.014191   -0.015165
0.003024   0.0056225    0.011469    0.034855   0.0072465  -0.0018481   -0.010943
0.016666    0.023487    0.024461      0.0433    0.020239    0.013418  -0.0096434
0.031932    0.038103    0.034855    0.049472    0.031607    0.023812   -0.010943
0.042326    0.045899    0.039402     0.05272    0.041676    0.030308   -0.011592
0.045899    0.047198    0.039078    0.052395    0.052395     0.03453  -0.0063954
0.0433    0.046223    0.044924    0.050446    0.061489    0.038103   0.0036737
0.039402    0.045899    0.065387    0.047847    0.063113    0.037454    0.017965
0.039402    0.048822    0.096244    0.046873    0.058891    0.031607    0.032582
0.042001    0.050771     0.13067    0.044924    0.053369    0.022837     0.04395
0.043625     0.05272     0.16023      0.0433    0.049147    0.014392    0.046873
0.042326    0.053369     0.18589    0.041027    0.048822   0.0039985    0.043625
0.036804    0.054668     0.20993    0.037778    0.050121  -0.0034721    0.033881
0.031932    0.055643     0.24078    0.032906    0.051096  -0.0073698    0.023162
0.028034    0.057592     0.28041    0.028359    0.047198  -0.0060706    0.014068
0.025436    0.057917     0.32751    0.025111    0.037454   0.0033489    0.009845
0.024461    0.056942     0.38435    0.023812    0.029983    0.019264    0.010495
0.024137     0.05142     0.44996    0.022512    0.029333    0.037129    0.012443
0.024137    0.042001     0.52109    0.019589    0.030633    0.050446    0.014068
0.025761    0.033556      0.5867    0.020888    0.025111    0.055968    0.012768
0.024786    0.029333     0.62763    0.027385    0.015042    0.055318   0.0069217
0.026085     0.02706      0.5945     0.03583   0.0059473    0.051096  -0.0028225
0.032257    0.016016     0.40351    0.036804  -0.0021729    0.042975   -0.011592
0.039402   -0.010293   0.0026992    0.025111   -0.012567    0.032906    -0.01549
0.042651   -0.046996    -0.53518    0.003024   -0.023935    0.020564   -0.011917
0.044924     -0.0824     -1.0429   -0.018413   -0.030431   0.0088706  -0.0037969
