0.057267    0.029658   0.0072465   -0.026858     0.20278    0.075456     0.01894
0.054019    0.040377   0.0085458  -0.0057458     0.16803    0.080328    0.027385
0.048172    0.046873    0.011144   0.0056225     0.13587    0.085525    0.035505
0.046873    0.049472    0.015042   0.0085458     0.11638    0.092346    0.039727
0.053044    0.051096    0.023812   0.0095202     0.11573    0.094945    0.040052
0.062464    0.054019    0.036479    0.010495     0.14139    0.091696    0.039402
0.070584    0.058891    0.046223    0.012119     0.19044    0.087799    0.040377
0.074482    0.062789    0.050771    0.012768     0.25053     0.08585    0.043625
0.073507    0.061814    0.054019    0.013418      0.3025    0.082277    0.044924
0.068635    0.057267    0.054668    0.013093     0.32946    0.075456    0.042975
0.066037    0.053369    0.055318    0.015692     0.32816    0.065062    0.036804
0.066362    0.050771    0.050121    0.016016     0.30282    0.048497    0.027385
0.066037    0.046548    0.042326    0.011144     0.26157    0.026735    0.019589
0.059865    0.039078    0.033881  -0.0018481     0.22065  0.00075039    0.016341
0.045574    0.029658    0.027385   -0.014516     0.20083   -0.026209    0.017316
0.031282    0.023812    0.021538   -0.019712     0.21805   -0.051544     0.01829
0.026735    0.021538    0.016666   -0.016464     0.27716   -0.072331    0.016341
0.028684    0.021863    0.012119   -0.007045     0.36194   -0.087597    0.012119
0.030633    0.023812   0.0062721   0.0026992     0.45028   -0.097341   0.0078962
0.031282    0.027709  0.00010078   0.0088706     0.51882    -0.10156   0.0036737
0.033881    0.033231  -0.0028225   0.0069217     0.55097   -0.099615   0.0023744
0.040052    0.038428  -0.0018481    0.003024     0.54091    -0.09117   0.0062721
0.048822    0.038753   0.0043233 -0.00054884     0.49543   -0.078827    0.016991
0.054344    0.030957    0.013093  -0.0034721     0.43112   -0.067784    0.029333
0.056292    0.015692    0.022512  -0.0057458     0.36486   -0.060313     0.03518
0.054668 -0.00087364    0.030633  -0.0080194     0.31289   -0.060638    0.034206
0.05207   -0.011592     0.03518  -0.0096434     0.27554   -0.068109    0.025436
0.053044   -0.012567     0.03518  -0.0083442     0.24728   -0.075904   0.0075714
0.059216  -0.0057458    0.029658  -0.0050961     0.22259   -0.078503   -0.013866
0.06896   0.0059473    0.024137 -0.00022403     0.19401   -0.069733   -0.031081
0.075456    0.015692    0.019914   0.0049729     0.15568   -0.048945   -0.039201
0.070259    0.018615    0.015692   0.0062721     0.10534   -0.026858   -0.040175
0.049472    0.015367    0.012119   0.0017248    0.049472  -0.0080194   -0.036927
0.020239   0.0085458   0.0078962  -0.0034721  -0.0021729   0.0052977   -0.030756
-0.0034721  0.00075039   0.0023744  -0.0050961   -0.042449    0.014717   -0.021986
-0.013541  -0.0024977   -0.007045  -0.0044465   -0.067784    0.018615   -0.011917
-0.0047713 -0.00054884   -0.017439  -0.0031473   -0.081101    0.017965  -0.0037969
0.015367   0.0072465   -0.021986 -0.00087364   -0.081751    0.017316    0.003024
0.042001    0.017965   -0.020687   0.0043233   -0.076554    0.019264    0.010495
0.066686    0.031932   -0.010293    0.011794   -0.072006     0.02641    0.016666
0.083251    0.046223   0.0056225    0.021213   -0.070382     0.03583    0.019914
0.090072    0.059541    0.023162    0.029983   -0.068109    0.042651    0.019914
0.091047    0.067986    0.035505    0.038753   -0.063561    0.042651    0.018615
0.091372    0.069285    0.042975    0.049796   -0.055766    0.041351    0.018615
0.092021    0.063438    0.049147    0.057917   -0.047646    0.040702    0.021213
0.091696    0.054668     0.05142    0.065062   -0.047646    0.039078    0.026085
0.089748    0.046223    0.046873    0.070259   -0.061288     0.03583    0.034206
0.084226    0.040052    0.035505    0.072533   -0.088572    0.029333    0.040052
0.072208    0.032257    0.024137    0.071558     -0.1256    0.025761    0.038753
0.056292    0.020239    0.016016    0.066686    -0.16393    0.026735    0.029983
0.036154   0.0033489    0.012443    0.060515    -0.19446    0.032257    0.020888
0.013093   -0.012567    0.011794    0.055968      -0.212    0.035505    0.015042
-0.007045   -0.022311    0.012443    0.052395    -0.22109    0.038753    0.012443
-0.017764   -0.028157    0.012119    0.051096    -0.22856    0.041351    0.011469
-0.018738    -0.03173   0.0095202    0.050771    -0.24286    0.043625     0.01017
-0.012892   -0.034004   0.0072465    0.048172    -0.26916      0.0433    0.010819
-0.0037969   -0.035953   0.0062721    0.042326    -0.31431    0.041027    0.014717
0.0065969   -0.035303   0.0049729    0.033881    -0.38122    0.038428    0.021863
0.012768   -0.028157  0.00042559    0.024137    -0.46405     0.03518    0.030633
0.014068   -0.010293  -0.0063954    0.016666    -0.54882    0.029009    0.037129
0.010495    0.017965   -0.012892    0.013418    -0.61606    0.019914    0.037129
0.0085458     0.05207   -0.016464    0.013093    -0.63977   0.0095202    0.032906
0.011144    0.083251    -0.01484    0.016991    -0.59787  0.00075039    0.024461
0.014717     0.10696  -0.0093186    0.023812    -0.48126  -0.0060706    0.015042
0.015367     0.11736  -0.0024977    0.032906    -0.30587   -0.013866   0.0062721
0.01017     0.11183   0.0052977    0.039078    -0.11521   -0.022961 -0.00087364
0.0017248    0.097868   0.0095202    0.041351     0.03453   -0.030756  -0.0028225
-0.0080194    0.085525    0.012119    0.041351    0.095919   -0.039201  0.00042559
-0.010618    0.079354    0.015692    0.042326     0.05272   -0.040825    0.010819
0.0017248    0.080328    0.022512    0.044275    -0.06551    -0.03303    0.026085
0.02641    0.083251    0.029009    0.046873    -0.20323   -0.022636    0.040377
0.057592    0.080978     0.03583     0.04395    -0.31042   -0.020037    0.045249
0.089098    0.071234    0.041676     0.03453    -0.36011   -0.022636    0.037129
0.11573    0.053694    0.039727    0.021213    -0.35134   -0.026858    0.021538
0.13165    0.029333    0.024461   0.0075714    -0.29288   -0.031081   0.0052977
0.1297  0.00010078  0.00010078  -0.0041217     -0.2029   -0.033354   -0.007045
0.11021   -0.027833   -0.021337   -0.007045   -0.098641   -0.034654   -0.012892
0.080653   -0.046347   -0.027833 -0.00054884  -0.0024977   -0.034654   -0.013541
0.048172   -0.053168   -0.019063    0.013418    0.072533   -0.032705   -0.010943
0.014717   -0.048945  -0.0028225    0.032582     0.12645   -0.024585  -0.0037969
-0.023935   -0.035628    0.015042    0.051745     0.16575  -0.0067202   0.0072465
-0.069408   -0.022311    0.026735     0.06961     0.19693    0.019589    0.020239
-0.11228   -0.016464    0.026735    0.082927     0.22779    0.050771    0.032906
-0.13827   -0.020362    0.012768    0.088448     0.26125    0.078055    0.044599
-0.13404    -0.03173  -0.0050961    0.087799      0.2934     0.09462    0.054993
-0.098641   -0.043423   -0.017764    0.080978     0.31094     0.10014    0.063113
-0.043099   -0.046022   -0.018088    0.070584     0.30315    0.095594    0.067336
0.016991   -0.033354   -0.012567    0.062139     0.26872    0.083901    0.067011
0.069934  -0.0057458  -0.0047713    0.056617     0.21447    0.066037    0.063763
0.10242     0.02706   0.0036737    0.054019     0.15536    0.046873    0.060515
0.10566    0.056292    0.014392    0.053369    0.097218    0.028684    0.058891
0.081303     0.07773    0.025436     0.05142    0.024461   0.0091954    0.055968
0.042326    0.089748    0.033231    0.048497   -0.075579   -0.010618    0.046548
0.00075039    0.090722    0.033881    0.044599    -0.19219   -0.029457    0.026085
-0.037577    0.078704    0.029983    0.042001     -0.2932   -0.044073  0.00042559
-0.063237    0.056617    0.025436    0.036479    -0.34842   -0.050244   -0.019063
-0.070058    0.028684    0.021538    0.024137    -0.34257   -0.050569   -0.027833
-0.059339    0.003024    0.016666   0.0065969    -0.28378   -0.052518   -0.021986
-0.038876    -0.01614   0.0095202   -0.011267    -0.19641   -0.059014   -0.007045
-0.022961   -0.029782   0.0020496   -0.024585   -0.095068   -0.067459   0.0088706
-0.018738   -0.039526 -0.00022403   -0.030431   0.0095202   -0.072981    0.017965
-0.02426   -0.046347   0.0043233   -0.031081     0.10501    -0.07428    0.016341
-0.029132   -0.052843    0.008221   -0.028807     0.16738    -0.07428   0.0043233
-0.029457   -0.060963   0.0059473   -0.022961     0.16283   -0.078503   -0.013216
-0.027833   -0.072331  -0.0063954   -0.017439    0.067011   -0.090196   -0.029782
-0.03173   -0.080776   -0.024585  -0.0093186    -0.11228    -0.11001   -0.037902
-0.045047   -0.079477   -0.039201  -0.0041217    -0.33445     -0.1295   -0.037577
-0.06551   -0.066485   -0.045697  -0.0083442    -0.54135    -0.13794   -0.034329
-0.084024   -0.043748   -0.045697   -0.018738    -0.68232    -0.12755   -0.029457
-0.093119   -0.016789   -0.039526   -0.031081    -0.73299    -0.09929   -0.022311
-0.093119   0.0078962   -0.027833   -0.038227    -0.70148   -0.067459    -0.01549
-0.089221    0.025436   -0.011592   -0.038551    -0.61249   -0.043099   -0.008669
-0.08305     0.03583   0.0046481   -0.032055     -0.4988   -0.028482  -0.0050961
-0.072656    0.038753    0.017316   -0.022961    -0.38837   -0.021012  -0.0041217
-0.054467    0.036479    0.023487   -0.017114     -0.2932   -0.016789  -0.0060706
-0.030431    0.029009    0.021538   -0.016789    -0.21395   -0.012242  -0.0083442
-0.0047713     0.01829    0.015692   -0.019712    -0.14346  -0.0050961   -0.010943
0.018615    0.011144     0.01017   -0.022961   -0.072981   0.0049729   -0.015165
0.038103    0.011144   0.0078962    -0.02361  0.00075039     0.01764   -0.018088
0.049472    0.016991   0.0091954   -0.018738    0.079679    0.033231   -0.016789
0.047198    0.025436    0.012119  -0.0080194     0.15536    0.050446   -0.011592
0.02706    0.033231    0.019264    0.008221     0.21805    0.063438  -0.0063954
-0.0060706    0.036154    0.027709    0.027385     0.25767    0.071558  -0.0024977
-0.037902    0.034206     0.03453    0.040052     0.27684    0.076431  -0.0011985
-0.059989     0.02641    0.035505      0.0433     0.28885    0.082277  0.00075039
-0.071357    0.013743     0.03518      0.0433     0.30639    0.089098   0.0069217
-0.070382  -0.0034721     0.03453    0.047523      0.3405    0.095594     0.01894
-0.059989   -0.019712    0.034206    0.054993     0.38597     0.10339    0.030957
-0.041475   -0.027508    0.036479    0.064088      0.4308     0.11054    0.036804
-0.018088   -0.019388    0.039727    0.067986     0.45938     0.11378     0.03453
0.0088706   0.0017248    0.047523    0.066686      0.4636     0.11378    0.027385
0.037129    0.031607    0.058241    0.062139     0.44834     0.11054    0.021538
0.061814    0.061489    0.071234    0.058891      0.4191     0.10631    0.019914
0.080003    0.085525    0.082602    0.058891     0.38532     0.10209    0.022837
0.089423    0.098842     0.08585    0.061165     0.35544    0.096569    0.023812
0.087474    0.099167    0.074482    0.059216     0.33335    0.087799    0.022837
0.076431    0.086824    0.046223    0.046873     0.32166     0.07773    0.019264
0.061814    0.065712   0.0033489    0.017965     0.32361    0.071234    0.016991
0.046873      0.0433   -0.042774   -0.023285     0.33985    0.075456    0.019914
0.038428    0.025761   -0.080776   -0.064861     0.36453    0.087474     0.02641
0.038103    0.016341    -0.10384   -0.085973     0.39214     0.10177     0.03583
0.042651    0.014392    -0.10741   -0.077853     0.41358     0.10729    0.045574
0.049796    0.021863   -0.093769   -0.045697     0.42495     0.10501    0.054019
0.054344    0.034206   -0.071357  -0.0015233      0.4295    0.094295    0.054344
0.055968    0.045574   -0.045047    0.041351     0.42917    0.080653    0.044599
0.054993    0.053694    -0.02426    0.075131     0.42235    0.068635    0.032906
0.050771    0.053369   -0.011592    0.094945     0.41423    0.062139    0.027709
0.045899    0.044924  -0.0054209     0.10209     0.41813    0.064088    0.029983
0.037778    0.031932  -0.0011985    0.099817     0.43827    0.070909    0.036804
0.027709    0.020888   0.0059473    0.087799     0.46717    0.078704    0.048172
0.019264    0.016341    0.015367    0.070584     0.48731    0.083251     0.06084
0.012119    0.014392    0.028359     0.05207     0.48341    0.080328    0.067011
0.0059473    0.012768    0.038753    0.037129     0.45256     0.06831    0.064737
-0.00022403   0.0095202    0.039078    0.031282     0.39864    0.054668    0.053694
-0.0018481   0.0039985    0.028034    0.032582     0.32328    0.045899    0.040377
0.0043233 -0.00087364    0.014068    0.033231     0.22259    0.040052     0.02641
0.015042  -0.0034721   0.0043233     0.02706     0.11833    0.033231    0.015042
0.029333  0.00010078      0.0014    0.012443    0.045249     0.02706   0.0075714
0.043625   0.0095202   0.0043233   -0.015165    0.015692    0.017965   0.0046481
0.054344    0.022837   0.0059473   -0.062912     0.01017   0.0059473   0.0062721
0.058566    0.034206      0.0014    -0.13372   -0.040825   -0.007045    0.012443
0.054344    0.039402   -0.011592    -0.20063    -0.23506   -0.019712    0.024461
0.046548    0.042001   -0.024585    -0.22337    -0.61086   -0.029457    0.038428
0.039727    0.045574   -0.025559    -0.18082     -1.0987   -0.036602     0.05142
0.036479    0.050771   -0.010618     -0.0837      -1.547   -0.044398    0.057917
0.03518    0.052395    0.012119    0.034855     -1.8052   -0.052518    0.058891
0.038428    0.051745    0.036479     0.14074     -1.7967   -0.057065    0.050771
0.049796    0.053369    0.054668     0.20213     -1.5489   -0.056416     0.03583
0.065387    0.057917    0.066686     0.20765     -1.1611   -0.053492    0.019914
0.074157     0.06019    0.070259     0.17127    -0.73884   -0.050244    0.008221
0.075456    0.059216    0.064737     0.11801    -0.35134   -0.047646  0.00075039
0.06896     0.05272    0.054344    0.067661   -0.026858   -0.046996  -0.0024977
0.058566    0.042975    0.042651    0.031932     0.22389   -0.045697  -0.0031473
0.05272    0.033556    0.032582    0.014068     0.39214   -0.042449  0.00042559
0.052395    0.028359    0.024786     0.01017     0.47432   -0.037252   0.0043233
0.049796    0.026085    0.018615    0.013743     0.47237   -0.032055    0.008221
0.039727    0.024137    0.014068    0.022188     0.40708   -0.027833    0.014068
0.017316    0.023487    0.014068    0.033881     0.30932   -0.025234    0.022188
-0.011267    0.022837     0.01894    0.046223     0.21382    -0.02361    0.030957
-0.040825    0.019264    0.026735    0.057592     0.14789   -0.018088    0.040052
-0.059664    0.014068    0.033881    0.064737     0.12483  -0.0083442    0.047847
-0.060963    0.011794    0.038428    0.065062     0.13295   0.0039985     0.05142
-0.04115    0.015042    0.040377    0.059216     0.15698    0.014068    0.050446
-0.0096434    0.021538    0.039727    0.051096     0.18102    0.016991    0.045249
0.021863    0.028034    0.035505    0.046223     0.19531    0.011144    0.037454
0.048497    0.032582    0.025761    0.045899     0.20116  -0.0021729    0.028684
0.072533    0.035505   0.0088706    0.047523     0.20051   -0.016464    0.023487
0.091696    0.037454   -0.007045    0.049796     0.19304   -0.029132    0.022512
0.10436    0.037454   -0.020037    0.049147     0.17939   -0.040175    0.019264
0.10989    0.036479   -0.028157    0.045574      0.1638   -0.048296    0.013093
0.10729    0.034206    -0.03238    0.037454     0.14432   -0.056416   0.0046481
0.098193    0.030633   -0.035303    0.023812     0.11866   -0.064211   -0.008669
0.080003    0.029658   -0.034978    0.009845    0.091047   -0.067784   -0.023285
0.047523    0.032582    -0.03303  0.00010078    0.070909   -0.061937   -0.034004
-0.0063954     0.03518   -0.030106  -0.0041217    0.074157   -0.042449   -0.036927
-0.077203    0.032906    -0.02426  -0.0034721      0.1284   -0.014516   -0.033354
-0.14671    0.025111   -0.013541   0.0043233     0.24566    0.017965   -0.026209
-0.19283    0.016341   0.0023744    0.016666     0.40903    0.049147   -0.019388
-0.2016    0.012768    0.016341    0.030308     0.57404    0.070259   -0.014191
-0.16653    0.015692    0.024786      0.0433     0.68707    0.079679   -0.010293
-0.092469    0.023487    0.027709    0.054344       0.715    0.079679  -0.0060706
0.0036737    0.030308    0.029983    0.063113     0.65199    0.073182   0.0023744
0.097868    0.031932    0.031282     0.06961     0.51719    0.063113    0.010819
0.16608    0.029983    0.032257    0.074157     0.33758    0.051745    0.020888
0.19726    0.022837     0.03518    0.074806     0.14107    0.044924    0.031932
0.19336    0.013418    0.040052    0.071558    -0.04927    0.045574    0.042326
0.16478   0.0046481    0.046223     0.06896    -0.21882     0.05272     0.05207
0.12613 -0.00054884     0.05142    0.069285    -0.35881    0.057267    0.056942
0.090397  -0.0021729    0.054344    0.069934    -0.46925    0.053044    0.056942
0.067011   0.0010752    0.054993    0.066362     -0.5537    0.046223    0.051096
0.058891   0.0075714    0.054019    0.059865    -0.60631    0.039402    0.042651
0.06084    0.013418    0.047847    0.054668    -0.60956    0.033881    0.036804
0.06019    0.014068    0.034206    0.049796    -0.54525    0.030957    0.038103
0.048497     0.01017    0.013743    0.039402    -0.40363    0.029658    0.044599
0.024786   0.0049729  -0.0073698    0.014068    -0.20355    0.028359    0.048497
-0.0028225   0.0017248   -0.020362   -0.029132    0.015042    0.022837    0.045249
-0.025884  -0.0011985    -0.02426   -0.085648     0.18719    0.015692    0.036804
-0.037902   -0.010293    -0.02426    -0.14281     0.23656   0.0065969    0.029658
-0.039201   -0.022311   -0.021986    -0.19446     0.14691  -0.0044465    0.024786
-0.033679    -0.03238   -0.018738    -0.23214   -0.026209   -0.016789    0.024461
-0.02361   -0.033679   -0.012567    -0.24773    -0.19511   -0.025884     0.02706
-0.0083442   -0.023285  -0.0054209     -0.2461    -0.29807   -0.034978    0.030308
0.0078962   -0.008669  -0.0024977    -0.24545    -0.31951   -0.046671    0.026735
0.022188   0.0017248  -0.0067202    -0.25098    -0.28248    -0.05804    0.013093
0.029983   0.0056225   -0.013541    -0.24221    -0.22889    -0.06551  -0.0089938
0.029658   0.0056225   -0.016464    -0.18082    -0.18536   -0.069408   -0.028807
0.021863   0.0059473  -0.0093186   -0.042449    -0.14411   -0.070058   -0.038227
0.0078962   0.0085458   0.0075714     0.15698   -0.080127   -0.063561   -0.034978
-0.0080194    0.014392    0.030633     0.36291    0.023162   -0.050244    -0.02361
-0.023935    0.020888    0.050446     0.51135     0.15016   -0.038876   -0.012567
-0.038876    0.025761    0.062139     0.55812     0.25767   -0.038551   -0.008669
-0.053168    0.023487    0.064413     0.50095     0.30152   -0.055766   -0.016464
-0.06551    0.014717    0.056942     0.37395     0.25962   -0.089221   -0.034329
-0.07493   0.0043233    0.042651     0.22584     0.14659    -0.13145    -0.05804
-0.079477  -0.0018481    0.026085     0.10014   0.0036737    -0.17724   -0.076229
-0.076554  -0.0028225    0.014717    0.017965    -0.13404    -0.22077     -0.0837
-0.060963 -0.00087364    0.009845   -0.025884    -0.25877    -0.25747   -0.084349
-0.03238 -0.00022403   0.0059473   -0.046347     -0.3718    -0.27826   -0.080776
0.0056225  -0.0011985      0.0014   -0.052193    -0.46665    -0.27469   -0.073955
0.049472  -0.0024977  -0.0031473   -0.047321    -0.52284    -0.24708   -0.064536
0.091696  -0.0021729  -0.0067202   -0.037577    -0.52544    -0.20258   -0.053492
0.11931 -0.00054884  -0.0089938   -0.025884    -0.47444    -0.15093   -0.043099
0.1219   0.0043233  -0.0047713   -0.017439    -0.38707    -0.10351   -0.037902
0.098517    0.013418   0.0036737   -0.012242    -0.28053    -0.06551   -0.036927
0.058891    0.024786    0.016991   -0.011917     -0.1727   -0.035628   -0.037252
0.020239    0.033556    0.028034    -0.01484   -0.073306   -0.012892   -0.033354
-0.0054209     0.03518    0.033231   -0.017439   0.0088706   0.0059473   -0.027183
-0.016789    0.027385    0.032582   -0.020687    0.070584    0.021538   -0.017439
-0.021337    0.017965    0.027385   -0.025884     0.11151     0.03518  -0.0057458
-0.034654    0.011794    0.020888   -0.030106     0.13652    0.047198   0.0036737
-0.067784   0.0095202    0.015692   -0.033679     0.15016    0.059541   0.0072465
-0.11813    0.010495    0.016016   -0.034978     0.15438     0.06961    0.008221
-0.17302    0.013418    0.023487   -0.035303     0.15244    0.074806     0.01017
-0.21102    0.015367     0.03583   -0.041475     0.14269    0.076106    0.017316
-0.22174     0.01829      0.0433   -0.065835      0.1271    0.074157    0.030308
-0.20355    0.023162    0.039727    -0.11878     0.10664    0.069285    0.042975
-0.16263    0.025111    0.028359    -0.19543     0.08585    0.062139    0.053044
-0.10611    0.027385    0.012443    -0.28378     0.06961    0.057267    0.057592
-0.040175    0.029333  -0.0015233    -0.36173    0.063438    0.051745    0.055643
0.030957    0.033881   -0.010943    -0.40851    0.071883    0.045249    0.050121
0.095594    0.039078   -0.017439    -0.41533    0.093321     0.03583    0.041027
0.13652    0.041676    -0.02426    -0.37895      0.1232    0.024461    0.027709
0.14886    0.040052   -0.028157     -0.2945     0.15211     0.01829    0.017965
0.13295    0.037454    -0.02361    -0.15548     0.17647    0.021213    0.016016
0.097218     0.03453  -0.0089938    0.031932     0.19239    0.037454    0.021538
0.053369    0.031932    0.011469     0.23559     0.20311    0.062789    0.034855
0.010819    0.028034    0.030308     0.41163     0.21447    0.090722    0.050446
-0.025559    0.021213      0.0433     0.52337     0.22194     0.10989    0.064088
-0.053168    0.011144    0.050121     0.55747     0.22259     0.11833    0.071883
-0.070707   0.0023744    0.051096     0.52369     0.22032     0.11801    0.078055
-0.084024  -0.0037969    0.049472     0.44476      0.2187     0.10826    0.081627
-0.095717   -0.011917      0.0433      0.3444     0.21675    0.089423    0.081303
-0.11001   -0.027508     0.03583     0.24501      0.2096    0.065387    0.075781
-0.12235   -0.051219    0.029983     0.16478     0.19271    0.040052    0.067661
-0.13047   -0.075579    0.024786     0.10794       0.169    0.020888    0.057267
-0.1282    -0.09117    0.015692     0.06961     0.14464   0.0095202    0.047523
-0.11293   -0.088896   0.0026992      0.0433      0.1271    0.003024    0.037454
-0.084674   -0.072656  -0.0096434    0.023812     0.12937    0.003024    0.028684
-0.046022   -0.045697   -0.018088    0.009845     0.17615    0.014068    0.024786
-0.0011985   -0.015165   -0.017764   0.0046481     0.28268    0.032906    0.028034
0.048172    0.015692   -0.010293    0.010819     0.43242     0.05272    0.037454
0.092996    0.044599   0.0010752    0.024786     0.59093    0.068635    0.050446
0.1232    0.065712    0.012119    0.039078      0.7189    0.080653    0.062139
0.1362    0.080653    0.021213    0.048497     0.78678    0.087149    0.070909
0.13392    0.089748    0.026085    0.048172     0.77964    0.091047    0.076755
0.1258    0.090397    0.029983    0.038103     0.69324    0.093645    0.078704
0.11736      0.0852     0.03453    0.024461     0.52596    0.096244    0.079029
0.11054     0.07708    0.037778    0.013093     0.28106    0.096244    0.075781
0.10599    0.071883    0.038103   0.0052977   -0.021337    0.091372    0.068635
0.10696    0.070584    0.033881  0.00010078    -0.33607    0.081627    0.054993
0.11378    0.071234    0.025436  -0.0050961    -0.61606    0.070909    0.037778
0.1219    0.070259    0.015692   -0.013216    -0.82556    0.064737    0.024461
0.13132    0.067661   0.0059473   -0.027833    -0.94022    0.070259    0.017965
0.13684    0.063113  -0.0028225   -0.048296    -0.94931    0.082277    0.016991
0.13327    0.059216   -0.010618   -0.065186    -0.86454    0.092671    0.017965
0.11346    0.056292   -0.013216   -0.067784    -0.74176    0.095269    0.017316
0.075131    0.052395  -0.0096434   -0.055441    -0.67875    0.083901    0.014717
0.030957    0.046873  -0.0018481   -0.039201    -0.75378    0.059541    0.011144
-0.0050961    0.039078   0.0072465   -0.031081    -0.95646    0.026735   0.0075714
-0.021661    0.028684     0.01017   -0.034329     -1.1802 -0.00087364   0.0065969
-0.01549    0.020888   0.0043233   -0.046022      -1.293   -0.018413   0.0072465
0.013743    0.013743  -0.0060706   -0.056741     -1.2189   -0.025559   0.0078962
0.064413   0.0059473   -0.015815   -0.061288    -0.97335   -0.025234   0.0095202
0.11963  -0.0037969   -0.022636   -0.053492    -0.63295   -0.019712    0.011794
0.15796   -0.014191   -0.024585   -0.039201    -0.28313   -0.015165    0.014392
0.16835   -0.019388    -0.02426    -0.02361    0.026085   -0.014191    0.017965
0.15244   -0.020362   -0.024585   -0.017114     0.26677   -0.019063     0.01894
0.11963   -0.016789   -0.026533   -0.019388     0.40351   -0.030106    0.014717
0.084226   -0.013541   -0.027183   -0.029782      0.4152   -0.044723 -0.00022403
0.05142   -0.011267   -0.026533   -0.039201     0.33173   -0.063886   -0.026209
0.029009  -0.0073698   -0.027508   -0.044073     0.21317     -0.0824   -0.053168
0.013743  -0.0021729   -0.033679   -0.044398     0.11151   -0.096367   -0.073306
0.0020496   0.0033489   -0.042774   -0.043423    0.058566   -0.098965   -0.080776
-0.01549   0.0095202    -0.04862   -0.044398    0.058241   -0.086623   -0.075255
-0.043099    0.016016   -0.046671   -0.046996    0.094295   -0.062587   -0.062262
-0.073955    0.023812   -0.035303   -0.046996     0.13912   -0.034329   -0.046347
-0.097017    0.032257   -0.017439   -0.039201     0.17257  -0.0089938   -0.030106
-0.10156    0.037778   0.0017248   -0.027508     0.19109   0.0091954   -0.017764
-0.083375    0.040702    0.019914   -0.010618     0.20018     0.01829   -0.011592
-0.051868    0.041351    0.033231   0.0075714     0.20603    0.019914  -0.0089938
-0.016464      0.0433    0.038753    0.028034     0.20733    0.016341  -0.0054209
0.014717    0.045574    0.037129    0.046223     0.19856    0.014068  0.00010078
0.040052    0.047198    0.030633    0.062139     0.17972    0.012443   0.0023744
0.057592    0.047198    0.023487    0.074806     0.15601    0.012768   0.0020496
0.067661    0.047198    0.021538    0.082602     0.13457    0.014717   0.0036737
0.071558    0.046223    0.024461    0.083576     0.12223    0.016666    0.011144
0.070259    0.043625    0.029983     0.07773     0.12223    0.015042    0.020239
0.065712    0.042975    0.040377    0.067336     0.13652    0.011794    0.027709
0.065062    0.042975    0.055318    0.057267     0.16738     0.01017    0.029009
0.069285    0.046873    0.068635     0.05207     0.21382   0.0091954    0.026735
0.076431    0.050121    0.073832    0.053044     0.26709   0.0075714    0.025761
0.07708    0.051096     0.06831    0.058891     0.31094   0.0072465    0.026735
0.066686    0.048497    0.053694     0.06896     0.33985    0.008221    0.026735
0.040052     0.04395     0.03583    0.077405     0.35576   0.0088706    0.029983
0.0014     0.03518    0.020564    0.076431     0.36096   0.0078962    0.031932
-0.042124    0.025111    0.011469    0.056292     0.35869   0.0059473     0.02706
-0.080776     0.01829   0.0036737    0.015692     0.35089  0.00010078    0.016991
-0.10481    0.016341  -0.0047713   -0.035628     0.34472  -0.0080194   0.0088706
-0.11098    0.015692   -0.013216   -0.082725     0.34505   -0.013866     0.01017
-0.10091    0.016341   -0.015815    -0.11391     0.36064  -0.0093186    0.020239
-0.081426    0.019589  -0.0099683     -0.1295     0.39864   0.0049729    0.036154
-0.059339    0.026735      0.0014    -0.12917     0.45775    0.024137    0.053694
-0.037252     0.03453    0.014392    -0.10838     0.52272    0.036479     0.06961
-0.020362    0.041676    0.024137   -0.067459     0.56949    0.039727    0.078704
-0.0099683    0.047847    0.028684   -0.015165     0.58151    0.032582    0.081303
-0.0096434    0.052395    0.025761    0.038753     0.55617    0.016016    0.076431
-0.013866    0.052395    0.020564    0.090072     0.49771  -0.0054209    0.068635
-0.015165     0.04395    0.019589      0.1349     0.41163   -0.027183    0.055643
-0.0083442    0.024786    0.020564      0.1677     0.30997   -0.048296    0.039078
0.0062721  -0.0034721    0.010819     0.18102     0.19791   -0.065835    0.017965
0.018615   -0.039526   -0.013866     0.17387    0.083901   -0.078827  -0.0050961
0.016016   -0.078503   -0.044073     0.14691   -0.027508   -0.088247    -0.02361
-0.0021729    -0.11066    -0.06616     0.11541     -0.1282    -0.09117    -0.03238
-0.024585    -0.12268   -0.070382    0.091047    -0.21102     -0.0824   -0.030756
-0.034329    -0.11001   -0.056416    0.078055    -0.27111   -0.059014   -0.022636
-0.030106   -0.076554   -0.032705    0.074806    -0.30782   -0.023285   -0.012567
-0.017114   -0.034004   -0.010293    0.073832    -0.32308     0.01764  -0.0031473
-0.0041217   0.0026992   0.0010752    0.074157    -0.32406    0.054668   0.0062721
0.0017248    0.028359   0.0020496    0.075456    -0.31171    0.083576    0.013093
0.0014    0.040702  -0.0015233    0.079029    -0.28476     0.10274     0.01764
-0.0083442    0.038753  -0.0011985    0.081627    -0.24643     0.11476    0.022512
-0.025884    0.026085      0.0014    0.080328     -0.2068     0.12093    0.028359
-0.047971    0.011794   0.0091954    0.076106    -0.17302      0.1206    0.036154
-0.065835   0.0046481    0.021538    0.069285    -0.14379     0.11411    0.044599
-0.070382   0.0085458     0.03518    0.064088    -0.11423     0.10079    0.050121
-0.058365    0.018615    0.044275    0.063438   -0.085324    0.081303    0.050121
-0.034978    0.031607    0.045899    0.064088   -0.054142    0.059865    0.049147
-0.012567    0.042001    0.039727    0.065712   -0.022961    0.042001    0.047847
0.00042559    0.048822    0.030308    0.062464   0.0026992    0.032906    0.046548
0.0052977    0.049796    0.019264    0.054668    0.017316    0.030957    0.042651
0.0085458    0.049796    0.009845    0.043625    0.016991    0.033556     0.03453
0.015367     0.05272    0.003024    0.031607   0.0049729    0.036804    0.022512
0.025436    0.054019   0.0026992    0.020888  -0.0096434    0.037778    0.009845
0.036479    0.052395   0.0072465    0.014392   -0.023285    0.034855   0.0023744
0.049472    0.050446    0.014717    0.012768   -0.044723    0.031607   0.0049729
0.064413     0.05207    0.027385    0.014717   -0.075255    0.027709    0.016016
0.07773    0.056617    0.045249     0.01829    -0.11131    0.026085    0.033231
0.081952    0.063113    0.059865    0.019914    -0.14152    0.025761    0.050771
0.078704    0.068635    0.065712    0.019264    -0.15841    0.025761    0.063113
0.075456    0.073182    0.061814    0.020888    -0.16198    0.028034    0.066037
0.075131    0.076755    0.055318    0.024461    -0.16133    0.031282    0.062789
0.074157    0.076106     0.05207    0.027709    -0.16003    0.034855    0.056617
0.072533    0.070584    0.053044    0.032257    -0.15386    0.037129     0.05142
0.070909    0.062464    0.054019    0.033231    -0.14184    0.036804    0.045899
0.067986    0.053044     0.05272    0.028034    -0.12105    0.033231    0.039078
0.066037    0.042326    0.050121    0.019589   -0.093444    0.027385    0.033231
0.068635    0.032906    0.044275    0.014392   -0.059014    0.014392    0.026735
0.067011    0.027385    0.038103    0.013743   -0.023935  0.00010078    0.020239
0.058891    0.024137    0.031932    0.017316  -0.0015233   -0.011592     0.01764
0.048497    0.019589    0.027709     0.01894  -0.0067202   -0.020687     0.01764
0.045574    0.011794    0.027385    0.016016    -0.04992    -0.03173    0.017965
0.046873    0.003024    0.031282   0.0078962    -0.13177   -0.044723     0.01894
0.048497  -0.0060706    0.033556  0.00075039    -0.24058   -0.058689    0.020564
0.044599   -0.015165    0.033556  -0.0047713    -0.36336   -0.070058    0.021863
0.037129   -0.022961    0.028034   -0.010618    -0.50757   -0.080451    0.021538
0.028684   -0.029457    0.020239   -0.015815    -0.67842    -0.09182     0.01829
0.024137    -0.03303    0.012443   -0.019063    -0.86843    -0.10838    0.016341
0.022837   -0.031406   0.0052977   -0.018738     -1.0578     -0.1256    0.015692
0.021538   -0.024585  -0.0034721   -0.017114     -1.2108    -0.14054    0.016016
0.022188   -0.011592   -0.014191   -0.014516     -1.2728    -0.15126    0.019914
0.024461   0.0010752   -0.022636   -0.012892     -1.1828    -0.15905    0.023812
0.030633     0.01017   -0.025884   -0.011592    -0.90514    -0.16425    0.019264
0.037129    0.013418   -0.024909   -0.013541    -0.46535    -0.16523   0.0046481
0.035505    0.013743   -0.023285   -0.015165    0.047847    -0.16133   -0.011592
0.024137    0.012119    -0.02361   -0.011917     0.51557    -0.15093   -0.023935
0.0059473    0.013093   -0.027833  -0.0031473     0.84493    -0.13567   -0.029457
-0.01484    0.013418   -0.032705   0.0043233     0.99791    -0.11488   -0.030756
-0.029457    0.010819   -0.033354   0.0049729     0.98979   -0.090196   -0.031081
-0.028157   0.0085458   -0.025884  -0.0018481     0.87513   -0.061613   -0.026209
-0.011267    0.010819   -0.012567  -0.0096434     0.71728   -0.031081   -0.013216
0.016016    0.020239   0.0043233   -0.012242     0.56592 -0.00054884   0.0023744
0.042326    0.036804    0.021213   -0.008669     0.45288    0.028359    0.016666
0.063763    0.055968    0.031932 -0.00087364     0.38078    0.053369    0.024137
0.081952    0.072533    0.033556   0.0078962     0.33335    0.070584    0.024137
0.10177    0.079029    0.031282     0.01829     0.28983     0.07773    0.016666
0.12093    0.075131    0.029009    0.025761     0.23006    0.076106   0.0049729
0.13295    0.064737    0.029009    0.029333     0.14984    0.071558  -0.0028225
0.13035    0.052395    0.029009    0.029009    0.064413    0.070584  -0.0028225
0.11281    0.037778    0.027385    0.027709  -0.0076946    0.077405   0.0072465
0.089098    0.023162    0.023162    0.024137   -0.057715    0.082927    0.019914
0.071558   0.0065969    0.016991     0.01829   -0.085648    0.083901    0.031282
0.064737  -0.0073698    0.012443    0.015367   -0.097341    0.080003    0.036479
0.066686   -0.014191   0.0072465    0.017316   -0.098316    0.074806    0.034206
0.075456    -0.01484   0.0020496    0.021213   -0.083375    0.071558    0.026085
0.0865   -0.010293  -0.0041217    0.025436   -0.048296     0.06831    0.011144
0.092346  -0.0044465  -0.0083442    0.028684   0.0059473    0.063113  -0.0063954
0.088448  -0.0018481  -0.0096434    0.030633    0.066362    0.056617   -0.019712
0.075781  -0.0054209  -0.0093186    0.029009     0.11346    0.050446   -0.024909
0.05142   -0.014191  -0.0080194    0.018615      0.1271    0.048497   -0.023285
0.014717   -0.025884  -0.0073698   0.0046481     0.10566    0.049147   -0.019063
-0.026858   -0.040175  -0.0063954  -0.0050961    0.061814    0.052395   -0.015165
-0.070058   -0.054792  -0.0067202  -0.0099683   0.0072465    0.054668   -0.014516
-0.10871   -0.063237  -0.0096434  -0.0093186   -0.043748    0.055318   -0.015165
-0.13404   -0.066485   -0.012242  -0.0073698   -0.088247    0.054344   -0.017439
-0.14541   -0.067134   -0.010293  -0.0044465    -0.13404    0.051745   -0.021986
-0.13957   -0.064861  -0.0028225  -0.0034721    -0.19738    0.049147   -0.026858
-0.11845   -0.060638   0.0065969  -0.0047713    -0.27793    0.049472   -0.028157
-0.089546   -0.052193    0.012443  -0.0031473    -0.34744    0.053369   -0.023935
-0.063561   -0.039851    0.016666   0.0065969    -0.37083    0.060515   -0.018088
-0.051219   -0.027508     0.01764    0.022188    -0.31951    0.067336   -0.013216
-0.056416   -0.018738    0.013418    0.039727    -0.19446    0.067661   -0.013866
-0.07428   -0.010943   0.0059473     0.05207   -0.019712    0.057917   -0.020362
-0.096367  -0.0015233 -0.00054884    0.054344     0.16608    0.041676   -0.028482
-0.11651   0.0095202  -0.0057458    0.046873     0.32198    0.028684   -0.031081
-0.1308    0.020239   -0.013541    0.033881     0.42625    0.023812   -0.028157
-0.1321    0.030308   -0.019063    0.021863     0.48601    0.031932   -0.017114
-0.11748    0.036804   -0.020687     0.01829     0.52824    0.049147   0.0010752
-0.087922    0.038753   -0.016464    0.026085     0.57533    0.070259    0.026085
-0.053168    0.039402   -0.010293    0.036154     0.63835    0.092996    0.047523
-0.021012    0.043625  -0.0028225    0.041676     0.70753     0.10859    0.059541
0.0020496     0.05207   0.0036737    0.039402     0.75983     0.11118    0.062789
0.016341    0.061165   0.0065969    0.030633     0.76892    0.099492     0.06019
0.019589    0.068635   0.0078962    0.020239     0.71663    0.080978    0.051096
0.0056225    0.074157    0.012443     0.01017      0.5997    0.062139     0.03583
-0.020687    0.072533    0.021213   0.0059473     0.43729    0.046223    0.022512
-0.04862    0.058241    0.029009   0.0091954     0.26255     0.03518   0.0091954
-0.062587    0.035505    0.032257    0.019264     0.10469    0.025111  -0.0031473
-0.055766    0.011469    0.032257    0.030633   -0.046022    0.012443   -0.012892
-0.029782  -0.0060706    0.027385    0.038428    -0.24935  -0.0057458   -0.015165
0.0056225   -0.014191    0.020239    0.040052     -0.5524   -0.031406   -0.011917
0.036804   -0.017114    0.013093    0.030633    -0.91456   -0.065835  -0.0096434
0.056617   -0.019712   0.0065969    0.010819      -1.216    -0.10611   -0.013541
0.065712   -0.022636   0.0023744   -0.011917     -1.3241    -0.14574   -0.021661
0.071883   -0.026858 -0.00054884   -0.027183     -1.1854    -0.17594   -0.028807
0.080003   -0.025559 -0.00054884   -0.032705    -0.84732    -0.18309    -0.03303
0.091696   -0.017114      0.0014   -0.031406    -0.43352    -0.16718   -0.028807
0.10404 -0.00087364   0.0036737   -0.028482   -0.076554    -0.13729   -0.018738
0.10859    0.020239   0.0069217   -0.026209     0.14789    -0.10351  -0.0067202
0.10209    0.040702    0.009845    -0.02426     0.23981   -0.074605   0.0026992
0.085525    0.054993    0.012119   -0.022961     0.24793   -0.056091    0.009845
0.062464    0.058891     0.01017   -0.026533     0.23201   -0.051219    0.013093
0.030308    0.050446  0.00075039   -0.037252     0.22649   -0.055441   0.0088706
-0.0076946     0.03583   -0.013866   -0.050894     0.23883   -0.060638   0.0010752
-0.044073    0.023812   -0.030756    -0.05804     0.26125   -0.060963  -0.0050961
-0.06551    0.021538   -0.042774   -0.047971     0.28041   -0.051868  -0.0037969
-0.067134    0.026735   -0.043748   -0.021661     0.28463   -0.032705   0.0043233
-0.055766    0.037454    -0.03238   0.0085458     0.27229  -0.0080194    0.015692
-0.043099    0.050121   -0.015815    0.032257      0.2528    0.016991    0.030308
-0.032705    0.058566  -0.0024977    0.044599     0.23266    0.036804    0.044599
-0.014191     0.06019   0.0049729    0.053369     0.21188    0.049472    0.058891
0.01764    0.054993   0.0085458    0.060515     0.19174    0.054344    0.073507
0.067986    0.046223    0.010495    0.067661     0.17387    0.056292    0.084226
0.12872     0.03583    0.014717    0.073832     0.15536     0.06019    0.090722
0.18784    0.028684    0.021213    0.076431     0.13295    0.063113     0.09462
0.22649     0.02706    0.029009    0.073832     0.11216    0.063763    0.094295
0.23071    0.029009    0.034855    0.063113    0.095269    0.060515    0.089423
0.19693    0.029658    0.036479    0.049147    0.078704    0.053044    0.079029
0.13457    0.029333    0.033881    0.039402    0.059541    0.043625    0.067661
0.061165    0.028034    0.032906    0.042001    0.038428    0.037129    0.058891
-0.0089938     0.02641    0.036804    0.054344    0.018615    0.037778    0.055968
-0.06616    0.022512    0.046223    0.071883   0.0052977    0.048822    0.057917
-0.10514    0.020239    0.057917    0.088124  -0.0018481    0.062789    0.058891
-0.12722    0.021863    0.067011    0.096244  -0.0080194    0.070909    0.054993
-0.13275    0.024137    0.070259    0.095269   -0.014191    0.067011    0.044924
-0.1321     0.02706    0.064088    0.080978   -0.017439    0.057267     0.02641
-0.13794    0.026735    0.049147    0.058891   -0.016789     0.05142   0.0043233
-0.16003    0.024786    0.030957    0.039078   -0.007045    0.049796   -0.011592
-0.19186    0.021538     0.01894    0.028684    0.011144    0.050121   -0.012892
-0.21492    0.020564    0.017316    0.026085    0.032257    0.050121  -0.0044465
-0.21622    0.024461     0.02706    0.024137    0.053369    0.048822    0.010819
-0.19024    0.037129    0.042326    0.021213     0.07773    0.045574     0.02706
-0.14022    0.055318    0.054019    0.017965     0.10112    0.036154    0.039402
-0.075904    0.072858    0.058891    0.019589     0.12158    0.019914    0.040702
-0.0096434    0.083576    0.058566    0.028034     0.12775   0.0017248    0.031607
0.054668    0.086175    0.056942    0.042326     0.11443   -0.011592    0.017965
0.11054    0.082277    0.046873    0.053694    0.084876    -0.01484   0.0023744
0.15568    0.078704    0.024786     0.05142     0.06019  -0.0093186   -0.012892
0.18362    0.079354   0.0010752    0.032257    0.057592    0.003024   -0.022311
0.19109    0.083901   -0.015815   0.0017248    0.068635    0.014392   -0.023285
0.17225    0.091047   -0.019712   -0.027833    0.038428    0.019264    -0.01484
0.13067    0.093321   -0.014191   -0.043748   -0.084999   0.0095202  -0.0015233
0.079679      0.0865   -0.008669   -0.041475    -0.29385   -0.013866   0.0091954
0.032906    0.071558   -0.011267   -0.025559    -0.51212   -0.043099    0.011794
0.0052977    0.051096   -0.019388  -0.0021729    -0.66023   -0.067134   0.0075714
0.0056225    0.032906    -0.02426    0.018615    -0.69141   -0.076554      0.0014
0.02706    0.019914   -0.019063    0.028684    -0.61314   -0.071682  -0.0018481
0.055643    0.015042  -0.0031473    0.031607    -0.46925   -0.056416  -0.0041217
0.080003    0.020888    0.018615    0.033231    -0.31496   -0.040825  -0.0073698
0.093321    0.036154    0.037454    0.038428    -0.18504   -0.029457   -0.008669
0.098517    0.054993    0.048497    0.047523   -0.096367   -0.019712  -0.0034721
0.10014     0.06961    0.054668    0.056292   -0.037902   -0.014191   0.0020496
0.10112    0.073832    0.057592    0.058566    0.025436   -0.013541   0.0056225
0.10047    0.067336    0.057267    0.056292     0.13717   -0.016789   0.0052977
0.096893    0.055643     0.05272    0.055318     0.31127   -0.019063   0.0078962
0.090397    0.045899    0.048497    0.062464     0.52077   -0.020037    0.013093
0.082602    0.039402    0.047847    0.071883     0.71857   -0.018738    0.020564
0.072858    0.037129    0.048497    0.075781     0.87448   -0.010618    0.028359
0.062789    0.038103    0.049796    0.070584      0.9729   0.0072465    0.033881
0.054019    0.039078    0.048822    0.058891     0.99921     0.02706    0.036804
0.045899    0.036804    0.042001    0.048172     0.92645    0.045249    0.033881
0.037454    0.032582    0.030308    0.044599     0.73774    0.056942    0.027385
0.031282    0.028359    0.015692    0.047523     0.43404    0.061489     0.01764
0.025111    0.024137   0.0020496    0.049796     0.05142    0.057267   0.0039985
0.017965    0.019264  -0.0083442    0.041027    -0.35751    0.043625   -0.010943
0.011794    0.014068   -0.011917    0.013418    -0.74501    0.026735   -0.019388
0.0049729   0.0078962   -0.011592   -0.039851     -1.0675    0.011794   -0.019388
-0.0031473   0.0023744   -0.012567    -0.11293     -1.2865  0.00042559  -0.0089938
-0.011917  -0.0037969   -0.016789    -0.18731     -1.3628  -0.0037969   0.0046481
-0.018088  -0.0096434   -0.020687    -0.23344     -1.2777  -0.0041217    0.014717
-0.018088    -0.01484   -0.021661    -0.22304     -1.0347 -0.00087364    0.022512
-0.011592    -0.01614   -0.020037    -0.15256    -0.67615   0.0069217    0.027385
0.0020496   -0.012567   -0.014191   -0.043423    -0.27891    0.015367    0.031282
0.018615  -0.0044465  -0.0067202     0.06831    0.071558    0.019264    0.036154
0.031282   0.0023744   0.0010752     0.15049     0.31354    0.017316    0.042326
0.035505   0.0062721   0.0072465     0.18751     0.43274   0.0095202    0.045899
0.036154   0.0069217    0.010495     0.18427     0.45353  -0.0057458    0.042001
0.031607   0.0065969    0.009845     0.15276      0.4152   -0.025884    0.034855
0.022837   0.0026992   0.0049729     0.11216     0.35057   -0.047321    0.025761
0.0075714  -0.0028225  -0.0021729    0.074806     0.27846   -0.063886    0.016991
-0.0089938  -0.0096434  -0.0057458    0.049796     0.20051   -0.069733   0.0078962
-0.026533   -0.014191  -0.0099683    0.036154     0.10306   -0.067134  -0.0021729
-0.040825   -0.014191   -0.013866    0.029333   -0.036602   -0.060638   -0.012892
-0.050894  -0.0089938   -0.014516    0.028034    -0.22304   -0.060638   -0.021337
-0.053492  -0.0011985  -0.0096434    0.029009    -0.42475   -0.067459   -0.025234
-0.051544   0.0046481  0.00075039    0.031932    -0.58975   -0.074605   -0.026858
-0.046671   0.0036737    0.011469    0.033231    -0.66965   -0.077203   -0.029132
-0.039851  -0.0037969    0.017316    0.032582    -0.64432   -0.073306   -0.028807
-0.034654   -0.015815    0.016991    0.030633    -0.51894    -0.06551   -0.023285
-0.029132   -0.024909    0.010819    0.029333    -0.31106   -0.055116   -0.011267
-0.022311   -0.024909   0.0043233    0.031932   -0.050894   -0.042449   0.0052977
-0.0076946    -0.01614   0.0033489    0.032257     0.21512   -0.028482    0.022188
0.014392  -0.0037969   0.0091954     0.02706     0.43274   -0.012892    0.033231
0.042975   0.0072465    0.019589     0.01894      0.5526   0.0010752    0.037129
0.072208    0.013093     0.02641    0.015367      0.5526    0.013093    0.038103
0.093645    0.015692    0.028359    0.019914     0.43469    0.028034    0.038428
0.10047    0.016991    0.025111    0.028359     0.23948    0.042975    0.041676
0.087149     0.01764    0.020888    0.034855    0.030308    0.055318    0.045574
0.061165     0.01829    0.016666    0.038428    -0.13275    0.062139    0.046548
0.034855    0.016016    0.017965    0.039078     -0.2133    0.064088    0.042975
0.017316    0.012119    0.023812    0.039727    -0.21492    0.065712    0.038428
0.01017    0.009845    0.023812    0.036804    -0.15808    0.067661    0.033881
0.011794   0.0095202    0.015692    0.027385   -0.077203    0.069934    0.031607
0.019589   0.0085458 -0.00087364    0.013093  -0.0015233    0.071234    0.033881
0.028034    0.003024   -0.017764  -0.0024977    0.054668    0.074482    0.038428
0.031932  -0.0089938   -0.028157   -0.012892    0.092346    0.079679    0.044275
0.030308    -0.02361   -0.028157   -0.015165     0.11768    0.084876    0.051745
0.02641   -0.034329   -0.019388   -0.010293     0.13717    0.091372    0.058241
0.024461   -0.037902  -0.0034721  -0.0031473     0.15568    0.099492    0.063438
0.02706   -0.034004    0.014068   0.0046481     0.17225     0.10534    0.064737
0.037778   -0.024585    0.028034     0.01017     0.18589     0.10404    0.059865
0.054019   -0.012892    0.037454    0.012443     0.19499    0.093645    0.049472
0.071558   0.0020496    0.037454   0.0085458     0.19888    0.074482    0.036154
0.083251     0.01764    0.032906 -0.00087364     0.19921    0.053369    0.023487
0.081303    0.029983    0.024786   -0.021337     0.19596    0.038103    0.014392
0.067986    0.037129    0.016016   -0.059339     0.18751    0.033231   0.0095202
0.05207    0.036804   0.0085458    -0.11618     0.17387    0.036804   0.0091954
0.043625    0.032582   0.0039985    -0.18342     0.15796    0.042326    0.016016
0.042001    0.029333   0.0023744       -0.25     0.14042    0.043625    0.020564
0.042975    0.031607  0.00075039    -0.30165     0.12483    0.039402    0.020239
0.042326    0.038103  -0.0028225    -0.33023     0.11346    0.031932    0.016016
0.03583    0.043625  -0.0099683    -0.32958     0.10501    0.024786    0.009845
0.025436    0.042651   -0.018738    -0.29547    0.091696    0.022188   0.0036737
0.0088706    0.032257   -0.026858    -0.21395    0.076755    0.019264  -0.0024977
-0.012892     0.01764   -0.027508   -0.072006    0.067011    0.017316  -0.0093186
-0.037577   0.0043233    -0.01484     0.11703    0.070909    0.014392    -0.01549
-0.063886  -0.0024977    0.008221     0.31257    0.089748    0.011469   -0.018738
-0.093444  -0.0076946    0.030633     0.46815     0.11411    0.011144   -0.017114
-0.12592   -0.020037    0.041027     0.55747     0.13717    0.013418  -0.0083442
-0.1597   -0.038551    0.038753     0.57274     0.15179     0.01894    0.008221
-0.18471   -0.056741    0.028034     0.52629     0.15926    0.026085    0.029009
-0.19446   -0.069408    0.013418     0.44346      0.1651    0.031932    0.051096
-0.18439   -0.074605  0.00010078       0.347       0.169    0.031282    0.066362
-0.15581   -0.071032  -0.0083442     0.25702     0.17062    0.022837    0.070584
-0.11326   -0.060963  -0.0096434     0.18232     0.16835   0.0095202    0.064413
-0.068434   -0.046022  -0.0037969     0.12645     0.16478  -0.0063954    0.055968
-0.033354    -0.03173   0.0046481    0.088448     0.15796    -0.02361    0.047198
-0.014191   -0.020362    0.013093    0.063113     0.14756   -0.037252    0.038753
-0.0073698   -0.011917    0.019264    0.043625     0.13262   -0.043423    0.031607
-0.0067202 -0.00054884    0.022837    0.022837     0.11216   -0.039526    0.025111
-0.0076946    0.014392    0.024786    0.003024    0.087149   -0.028157    0.019589
-0.0067202    0.027709    0.025111   -0.011917    0.066037   -0.018738    0.014392
0.00010078    0.033231    0.024461   -0.021661     0.05272   -0.017114    0.009845
0.010819    0.029009    0.025436   -0.028807    0.042326   -0.023935   0.0075714
0.027709    0.013418    0.025761   -0.035953    0.032906   -0.033679   0.0072465
0.047847   -0.008669    0.020564   -0.044073    0.020888    -0.04115     0.01017
0.063438   -0.026858   0.0088706   -0.047971   0.0039985   -0.044073    0.013743
0.064413   -0.034654  -0.0021729    -0.04927   -0.022636   -0.042124    0.016016
0.048497    -0.03303  -0.0050961   -0.048296   -0.059664   -0.039201    0.015367
0.024137   -0.026858 -0.00054884    -0.04992    -0.11163   -0.034654    0.015367
-0.0034721   -0.021337   0.0062721   -0.054792    -0.18114   -0.027833    0.021213
-0.024909   -0.020037   0.0078962   -0.057065    -0.26754   -0.021986    0.033881
-0.03238   -0.018088   0.0036737   -0.056091    -0.35361   -0.012242    0.053694
-0.026533   -0.013866  -0.0018481   -0.057065     -0.4176   0.0043233    0.074157
-0.0060706  -0.0054209  -0.0015233   -0.067784    -0.43871    0.022512    0.087799
0.02706   0.0062721   0.0033489   -0.094093    -0.40851    0.032582    0.091372
0.070909    0.020888    0.008221    -0.13307     -0.3351    0.028359    0.083576
0.11703     0.03453    0.011469    -0.17562    -0.22304    0.013743    0.070259
0.15503    0.045574    0.014717    -0.21427   -0.080776  -0.0060706    0.056292
0.17972    0.052395    0.017965    -0.24415    0.089098   -0.021986    0.046548
0.18784    0.053694    0.016991    -0.26234     0.26904   -0.029457    0.037454
0.18004    0.048172   0.0095202    -0.27501      0.4269   -0.032055    0.029983
0.15244    0.036154  -0.0041217    -0.29158     0.51362   -0.037252    0.020888
0.10924    0.024461   -0.022961    -0.30814     0.45321    -0.04992   0.0085458
0.062789     0.01894   -0.041799    -0.29742     0.18427   -0.070382  -0.0060706
0.023812    0.023162   -0.051868    -0.21947    -0.28118   -0.091495    -0.01614
0.0046481    0.036479   -0.045047   -0.057065     -0.8353    -0.10676   -0.021986
0.0020496    0.056292   -0.021661     0.15958     -1.3137    -0.10968   -0.020687
0.015042    0.080978    0.010495     0.36811     -1.5716   -0.097017   -0.012892
0.041676     0.10599     0.04395     0.50615     -1.5541    -0.06681   0.0023744
0.077405     0.12872    0.072858     0.54643     -1.3118   -0.025884    0.020564
0.11248     0.14691    0.090072     0.49901    -0.96815    0.012119    0.036154
0.1323     0.15828    0.092346     0.39702    -0.64042    0.033231    0.046223
0.12905     0.16088    0.083901     0.27814     -0.3718    0.031607     0.05142
0.10047     0.15438    0.065387     0.16965    -0.13047    0.015367    0.053694
0.051096     0.14139    0.044599    0.087799     0.14269 -0.00022403    0.053044
-0.008669     0.12353    0.030633     0.03583      0.4727  -0.0047713    0.047523
-0.06681     0.10339    0.025761   0.0078962     0.82609  0.00010078    0.039727
-0.10709    0.087149    0.029333  -0.0076946      1.1408   0.0085458    0.030957
-0.11878    0.076106     0.03583   -0.019063      1.3604    0.016016    0.016666
-0.10449    0.067986    0.036804   -0.032055      1.4679    0.019914  -0.0021729
-0.073631     0.06084    0.028359   -0.046022      1.4903    0.019264   -0.024585
-0.040175    0.053044    0.016341   -0.055441      1.4627    0.014392   -0.042449
-0.013541    0.047523   0.0085458   -0.055116       1.414   0.0062721   -0.052193
0.0056225    0.044924   0.0088706   -0.047971      1.3471  -0.0041217   -0.051219
0.020888    0.044924    0.015367   -0.038876        1.25   -0.013866   -0.043748
0.03453    0.048822    0.021538   -0.029782      1.0937   -0.022311   -0.031406
0.041676    0.055318     0.01894   -0.023935     0.84622   -0.026533   -0.021337
0.03583    0.062139    0.013093    -0.02426     0.52402   -0.030431   -0.015815
0.017316    0.065387   0.0059473   -0.027833     0.20278   -0.034004   -0.015165
-0.007045    0.066037   0.0026992   -0.029457   -0.037902   -0.035953   -0.019388
-0.027508    0.064088   0.0043233   -0.029457    -0.15841   -0.037577   -0.023285
-0.043748    0.058891   0.0046481   -0.032705    -0.17854   -0.040825   -0.021986
-0.052843    0.046223  -0.0018481   -0.042774    -0.15288   -0.045372   -0.019063
-0.055116    0.020239   -0.017114   -0.058365    -0.14704   -0.053168   -0.021012
-0.052193   -0.015165   -0.033679   -0.071357    -0.20323   -0.066485   -0.032705
-0.047646   -0.046671   -0.043423   -0.077203     -0.3351   -0.078503    -0.04862
-0.045372   -0.063237   -0.044073   -0.077853    -0.51732   -0.084024   -0.064211
-0.042124   -0.058365   -0.038227    -0.07428    -0.70018   -0.079477   -0.070382
-0.035953   -0.036927   -0.030431   -0.063237    -0.83238   -0.061613    -0.06681
-0.034004   -0.012567   -0.022636   -0.043423    -0.87915   -0.032055   -0.053168
-0.04115   0.0046481    -0.01549    -0.01614     -0.8392 -0.00054884    -0.03303
-0.053168   0.0065969  -0.0080194   0.0085458    -0.73559    0.028359    -0.01614
-0.061288  -0.0034721  -0.0015233    0.022837    -0.60404    0.051745   -0.013866
-0.058365   -0.018413    0.003024    0.023162    -0.47932    0.067661   -0.023935
-0.042449   -0.029457   0.0026992    0.014068    -0.39292    0.076755   -0.037252
-0.014191   -0.030106  -0.0018481    0.003024    -0.35491    0.077405   -0.044723
0.021538   -0.022636  -0.0080194  -0.0050961    -0.35686    0.072208   -0.042774
0.056617   -0.010618   -0.017439   -0.007045    -0.38155    0.060515   -0.033679
0.08585  0.00042559   -0.028807 -0.00087364    -0.41111    0.048172   -0.021986
0.10729   0.0091954   -0.034978    0.010495    -0.43677    0.040702   -0.012892
0.1219    0.016341   -0.031081    0.016991    -0.46243    0.039402  -0.0060706
0.13392    0.022512   -0.016789    0.021213    -0.48971    0.044599      0.0014
0.14204    0.028034      0.0014    0.029658    -0.51374    0.053694    0.014068
0.14139    0.032257    0.016341    0.046223    -0.52024    0.063113    0.032906
0.1297    0.031607    0.025761    0.062789    -0.49978     0.06961    0.050121
0.10436     0.02706    0.033231    0.075456    -0.44489    0.069285     0.06019
0.073832    0.022512    0.042975    0.082927    -0.36044    0.061814    0.059865
0.045899    0.019914     0.05272    0.085525    -0.25682    0.050121    0.052395
0.030308    0.024137    0.058891    0.083251    -0.15256    0.037778    0.043625
0.029009    0.030633    0.058241    0.080003   -0.056741    0.024461     0.03518
0.034206    0.032906    0.049472    0.075781    0.018615    0.015367    0.024786
0.036479    0.031932    0.034855    0.070584    0.074482   0.0088706    0.015042
0.029983     0.02706    0.018615    0.066362     0.11476      0.0014   0.0069217
0.015367    0.016991   0.0046481     0.06084     0.14951  -0.0057458   0.0039985
-0.00087364   0.0043233  -0.0044465    0.052395     0.18719  -0.0080194   0.0052977
-0.014516  -0.0067202  -0.0073698    0.043625     0.23201  -0.0021729   0.0075714
-0.01484   -0.015815  -0.0044465    0.041027     0.28821   0.0091954    0.010819
-0.0018481   -0.020362   0.0062721    0.043625       0.347    0.022512    0.013418
0.018615   -0.020037    0.018615    0.046873     0.39247    0.034206    0.015367
0.036154   -0.013216    0.030308    0.045574     0.41423    0.038103    0.014717
0.045899  0.00042559    0.038428    0.039402     0.40968    0.034855    0.008221
0.045574    0.014392    0.039078    0.030633     0.38662    0.028684   0.0020496
0.032906    0.020888    0.030957    0.026085     0.35414    0.024461   0.0033489
0.019914    0.017316    0.017965    0.027709     0.32523    0.026085   0.0095202
0.013418   0.0046481   0.0069217    0.036804     0.30704    0.033231    0.013418
0.016991  -0.0093186  0.00042559     0.05142     0.29438      0.0433    0.011144
0.02641   -0.019388 -0.00087364    0.065387     0.28496    0.053369   0.0078962
0.037778   -0.023935    0.003024    0.073832     0.27359    0.058241   0.0049729
0.046548    -0.02426   0.0088706    0.070584     0.25995    0.057917   0.0036737
0.048172   -0.023935    0.013743    0.059216     0.24273    0.054668   0.0085458
0.041676   -0.027508    0.015042    0.046548     0.22097    0.050771    0.014392
0.025761   -0.034329    0.011794    0.033881     0.19434    0.049796    0.016991
0.0046481   -0.041475   0.0078962    0.022188     0.16413     0.05142    0.014392
-0.01614   -0.046996   0.0075714    0.017965     0.13197    0.054019   0.0069217
-0.029782   -0.050569    0.010819    0.023487    0.096569    0.054019  -0.0028225
-0.036602   -0.047971    0.014392    0.033231    0.062464    0.047847   -0.012892
-0.043099   -0.042124    0.017316    0.040702    0.035505    0.042651   -0.023285
-0.051868   -0.034329    0.017965    0.044275    0.020888    0.039078   -0.030756
-0.060638   -0.027508    0.016666    0.044599    0.016016    0.039402   -0.030106
-0.063886   -0.019712    0.016666      0.0433     0.01829     0.04395   -0.021012
-0.059664   -0.013866    0.016991    0.041351    0.031607    0.054019   -0.011267
-0.046671   -0.010943    0.012768    0.041027    0.059865    0.065062  -0.0031473
-0.026858   -0.013541   0.0075714    0.039402     0.10014    0.073182   0.0049729
-0.0054209   -0.016789    0.003024    0.042001     0.14042    0.073182    0.014068
0.016666   -0.018738 -0.00022403    0.048822      0.1703    0.068635    0.021863
0.037129   -0.018088  -0.0034721    0.062139     0.17842    0.064737    0.025436
0.05207    -0.01549  -0.0037969    0.074157     0.15633    0.064413    0.021863
0.054993   -0.011592  -0.0021729    0.080653     0.10599    0.061165    0.014717
0.042651  -0.0031473  -0.0028225    0.075781     0.03583    0.046873   0.0088706
0.020888   0.0075714  -0.0057458    0.055643   -0.040825     0.01894   0.0078962
0.003024    0.020239  -0.0093186    0.018615    -0.12527   -0.013866   0.0095202
-0.0011985    0.036479   -0.014191   -0.030756    -0.22532   -0.044073    0.009845
0.0075714    0.055968   -0.019063     -0.0824    -0.33932   -0.064211   0.0036737
0.024137     0.07773   -0.021661     -0.1282    -0.45138   -0.072006  -0.0021729
0.043625    0.099492   -0.016464    -0.16133    -0.53063   -0.071682  -0.0011985
0.062789     0.11898  -0.0021729    -0.17367    -0.54752    -0.06551    0.008221
0.079354      0.1336    0.015692     -0.1597    -0.49296   -0.059989     0.01894
0.086824     0.14691    0.031282     -0.1204    -0.37603   -0.056416    0.019589
0.0852     0.15276    0.041027    -0.06551    -0.22564   -0.051868     0.01017
0.074806     0.15016    0.044275  -0.0037969   -0.069408   -0.045372 -0.00022403
0.059216     0.13879     0.04395    0.055968     0.06896   -0.038876  -0.0037969
0.038753     0.11736    0.045574     0.10891     0.17355    -0.03238      0.0014
0.013093    0.089098    0.048172     0.15276     0.24111   -0.021012    0.013093
-0.015165    0.056617    0.048497     0.18492     0.27554  -0.0054209    0.026085
-0.039201    0.029658    0.044924     0.20376     0.28788    0.010495    0.038103
-0.04862    0.010819    0.037129     0.20668     0.28853    0.022837    0.044924
-0.04115  0.00010078    0.025761     0.19531     0.28788     0.02706    0.044599
-0.02361  -0.0044465    0.013418     0.17452     0.30282    0.022837    0.040377
-0.0028225  -0.0054209      0.0014     0.15114     0.35544    0.014068    0.034206
0.011469  -0.0050961  -0.0073698      0.1297     0.45418   0.0078962    0.028034
0.018615  -0.0050961   -0.012567     0.10924     0.58151   0.0039985    0.025111
0.016341  -0.0080194   -0.013866    0.088773     0.70363   0.0020496    0.028034
0.0046481   -0.011917    -0.01484     0.06831     0.77996  0.00075039    0.037129
-0.0096434   -0.013541    -0.01549    0.045574     0.78094    0.003024    0.049147
-0.019712   -0.010618    -0.01484    0.021863     0.69811   0.0072465    0.057592
-0.021012 -0.00022403   -0.010293  -0.0011985     0.53214    0.012768    0.058566
-0.017114    0.012768  -0.0034721   -0.021337     0.29275    0.017965     0.05272
-0.012892    0.025111   0.0039985   -0.036927  -0.0024977    0.023162    0.045574
-0.007045     0.03453    0.011469   -0.045047     -0.3299     0.02706    0.039727
0.0010752    0.042326    0.016666   -0.044723    -0.66998    0.022837    0.039078
0.011794    0.048822    0.019589   -0.035953     -1.0107    0.012443    0.046548
0.024137    0.054019    0.022188   -0.026533     -1.3368    0.003024    0.057267
0.033231    0.054668    0.027709   -0.022636     -1.6048  -0.0015233    0.067986
0.033881    0.053044    0.033881   -0.021986     -1.7506  -0.0034721    0.074157
0.029009     0.05272    0.038428   -0.022961     -1.7224  -0.0099683    0.072533
0.020888    0.053369    0.037778   -0.028807     -1.4869    -0.02361    0.064088
0.010819    0.055318    0.034855   -0.038876     -1.0555   -0.045697    0.049796
-0.0011985    0.058241    0.028684   -0.048296    -0.49393   -0.072331    0.032906
-0.0093186    0.055968    0.021538   -0.053817    0.084551   -0.095393    0.014717
-0.008669    0.045249    0.016991   -0.053168     0.55585    -0.10903  0.00010078
0.00010078    0.025761    0.018615   -0.046347     0.83843    -0.11066  -0.0096434
0.013093   0.0036737    0.022188   -0.036602     0.91801    -0.10319   -0.012567
0.026735   -0.016789    0.022837   -0.026533     0.83583   -0.090521   -0.011267
0.039078   -0.030431    0.019264   -0.017764     0.66791    -0.07493  -0.0031473
0.051096   -0.034654    0.014068  -0.0096434     0.48991    -0.05739    0.011794
0.062464   -0.031406     0.01017  0.00042559     0.35024   -0.041475    0.027385
0.070909   -0.022636    0.011144   0.0095202     0.26547   -0.030431    0.041351
0.067336   -0.010943    0.013743     0.01829     0.22389   -0.027183    0.046873
0.04395   0.0010752    0.016341    0.024786     0.20311   -0.028807    0.045249
0.0046481   0.0091954    0.016666    0.027385     0.18264   -0.026858    0.039402
-0.041799    0.016991    0.016341    0.028684     0.15731   -0.020037     0.03453
-0.084024    0.025436    0.018615    0.032582      0.1349   -0.012242    0.036804
-0.11358    0.036479    0.027385    0.042975      0.1284  -0.0063954     0.04395
-0.11975     0.05142    0.040702    0.057917     0.14529  -0.0028225    0.051096
-0.098316     0.06831    0.050446     0.06831     0.18037   0.0026992    0.054668
-0.04992    0.084876    0.049147    0.065062     0.22162   0.0088706    0.054668
0.01764    0.099167    0.040702    0.049472     0.25053    0.015692    0.053044
0.089423     0.10274    0.031607    0.031607     0.24955    0.024137    0.050771
0.14886    0.090722    0.021213    0.014717      0.2057    0.032257    0.047847
0.18329    0.065387   0.0056225      0.0014      0.1206    0.035505    0.047198
0.18362    0.036479   -0.013866   -0.008669     0.01764    0.034206     0.04395
0.14334    0.012768   -0.035303    -0.01484   -0.078503    0.026735    0.036479
0.075456  -0.0028225   -0.057715   -0.021012    -0.14866    0.017316    0.021538
-0.0011985   -0.011917   -0.076879   -0.026858    -0.18147    0.011794   0.0059473
-0.067134    -0.01614   -0.087272   -0.034329    -0.17854    0.012768  -0.0063954
-0.11228   -0.018413   -0.085973   -0.034654    -0.16165    0.023487   -0.008669
-0.13177   -0.022961   -0.072981   -0.020687    -0.14996    0.040377  -0.0015233
-0.1282   -0.029132   -0.053492   0.0056225    -0.14834    0.057917    0.011144
-0.10514   -0.034978   -0.033354    0.038103    -0.13989    0.073832    0.027709
-0.067784     -0.0405    -0.01614    0.064737    -0.11845    0.084551    0.040377
-0.019063   -0.046347  -0.0011985    0.079029   -0.077528    0.092996    0.050446
0.032906   -0.051544     0.01017    0.081303   -0.013866    0.096244    0.056617
0.075131   -0.052843     0.01764    0.076106    0.073832    0.092671    0.057917
0.095594   -0.050244    0.018615    0.067661     0.18492      0.0852    0.056942
0.090397   -0.044073    0.016666    0.055968     0.31614    0.074482    0.056292
0.072533   -0.032055    0.012768    0.042651     0.45938    0.063438    0.056942
0.051745   -0.013866    0.012443    0.029658     0.58768    0.051096    0.060515
0.033231   0.0091954    0.016016    0.017965     0.66531    0.036804    0.066362
0.01829    0.031282    0.021213   0.0091954     0.66108    0.020239    0.072858
0.010819    0.048822    0.022188   0.0052977     0.57274  -0.0015233    0.073182
0.010495    0.058566    0.019264   0.0078962      0.4178   -0.030431    0.064413
0.015692    0.058241    0.012443    0.012443     0.20473   -0.065186    0.049472
0.024461    0.050771   0.0091954    0.011469   -0.084024    -0.10059    0.029658
0.039727    0.038428    0.012768   0.0033489    -0.45495    -0.13242    0.013418
0.058566     0.02706    0.020239  -0.0050961    -0.86486    -0.15418   0.0065969
0.070259    0.021213    0.028684   -0.010618      -1.215      -0.161   0.0091954
0.065387    0.023162    0.032257    -0.01484     -1.3923    -0.15191    0.017965
0.044275    0.029658    0.028684   -0.020362     -1.3378    -0.12625    0.023487
0.0088706    0.033881     0.01829    -0.02361     -1.0854   -0.089871    0.025436
-0.034004    0.028684   0.0062721   -0.021337    -0.73656   -0.052518     0.02641
-0.080127    0.016016  -0.0011985   -0.010618    -0.40071   -0.021661    0.028684
-0.1178 -0.00054884 -0.00022403   0.0033489    -0.14834   0.0020496    0.032906
-0.13827    -0.01484    0.011144    0.013093   0.0036737    0.020239     0.03453
-0.13989   -0.029782     0.02641    0.014392     0.06961    0.026735    0.029333
-0.1282   -0.046347    0.040377     0.01017    0.060515    0.021213     0.01829
-0.10546   -0.059014    0.044599    0.003024   -0.007045   0.0020496   0.0026992
-0.072656   -0.064861    0.042001  -0.0041217   -0.097991   -0.023285    -0.01484
-0.03303   -0.062262    0.033556  -0.0093186    -0.16782   -0.046671   -0.030431
0.0020496   -0.055441    0.021213   -0.010293    -0.18959   -0.057715   -0.042124
0.021538   -0.048945    0.014392  -0.0076946    -0.15711   -0.048945   -0.047971
0.021213   -0.043748    0.016991  -0.0063954   -0.075255   -0.021661   -0.041799
0.0023744   -0.038551    0.025761  -0.0073698    0.040702    0.014392   -0.027833
-0.027183   -0.035303    0.031282  -0.0073698     0.16478    0.044599    -0.01549
-0.054142   -0.030756    0.028359  -0.0044465     0.26514    0.062789  -0.0099683
-0.063886   -0.021986    0.022188   0.0033489     0.32198    0.065062   -0.012242
-0.051544  -0.0060706    0.013093    0.014392     0.33043    0.054993   -0.018413
-0.022961    0.011144   0.0052977    0.019589     0.29535    0.042975    -0.02426
0.013093     0.02641    0.003024    0.014068     0.23591    0.034855   -0.025234
0.048172    0.037778   0.0072465   0.0026992     0.17257    0.032906   -0.022311
0.078055    0.049796     0.01829  -0.0031473     0.12093    0.036479    -0.01484
0.10274    0.064413    0.030957 -0.00022403    0.081627      0.0433  -0.0050961
0.12613    0.078704    0.037129   0.0085458    0.052395    0.051096   0.0049729
0.14756    0.087799    0.034855     0.01829    0.033881    0.057267    0.014392
0.16478    0.092346    0.027385    0.025436    0.030957    0.060515    0.020564
0.17842     0.09462    0.021538    0.031282    0.049147     0.06084    0.021213
0.18394    0.097218    0.020888    0.033556    0.084551    0.061489    0.020888
0.17745     0.10112    0.024786    0.036804      0.1271    0.066362    0.020888
0.15828     0.10242    0.029658    0.048172     0.16478    0.074806    0.026085
0.12645     0.10112    0.034206    0.062464     0.19304    0.081627    0.040377
0.088124    0.096893    0.034855    0.070259     0.21675    0.084876    0.054668
0.055643    0.092021     0.03453     0.06896     0.23754    0.083901    0.063113
0.034206    0.084226     0.03583    0.061489      0.2606    0.083901    0.062139
0.023487    0.073507     0.03583    0.053044     0.29438    0.086824    0.053369
0.017316    0.060515    0.028684    0.041676     0.34082    0.086824    0.041027
0.0095202    0.044599    0.015692    0.030633     0.39279    0.078379    0.028359
-0.0031473    0.027385   0.0023744    0.022837     0.43469    0.062464    0.017316
-0.021337    0.013418  -0.0047713    0.019914     0.45613    0.043625   0.0049729
-0.044398   0.0072465  -0.0057458    0.019589     0.45613    0.028684   -0.008669
-0.063561    0.011794  -0.0031473    0.019914     0.43957    0.022837   -0.016464
-0.069733    0.023487 -0.00054884    0.020564     0.41131    0.026735   -0.014516
-0.056091    0.035505   0.0017248    0.026085     0.37038     0.03518  -0.0037969
-0.025884    0.042651    0.008221    0.037778     0.32328    0.039078    0.010819
0.009845    0.044599    0.016016    0.054019     0.27846    0.036479    0.023162
0.036804    0.046873    0.026085     0.06961     0.24501    0.028359    0.027385
0.052395    0.050446    0.038753    0.076755     0.22324    0.019914     0.01894
0.056292    0.052395    0.048822    0.073507      0.2083    0.012119   0.0017248
0.054993    0.048497     0.05272    0.062139     0.19044   0.0059473   -0.017439
0.05142    0.039078    0.048172    0.046548     0.16218  -0.0011985   -0.030431
0.050121    0.029658    0.037454    0.031932     0.11931  -0.0067202   -0.032705
0.058241    0.021213    0.025111    0.021863    0.064737  -0.0096434   -0.027183
0.078704    0.016016    0.014392    0.016991   0.0059473  -0.0080194   -0.020362
0.10177    0.012443   0.0065969    0.014068   -0.054142  -0.0047713   -0.018738
0.11313   0.0088706   0.0010752    0.013418    -0.10741  -0.0041217   -0.021012
0.10534   0.0059473 -0.00054884    0.013418    -0.14899  -0.0076946   -0.028807
0.07773   0.0033489      0.0014    0.010819    -0.17887   -0.012567   -0.038876
0.039402      0.0014   0.0059473   0.0095202    -0.19316   -0.013216   -0.045372
0.0020496   0.0010752   0.0091954    0.012768    -0.18699   -0.008669   -0.044398
-0.025234   0.0043233    0.012119    0.020239    -0.16328   0.0017248   -0.037902
-0.043099    0.015692    0.014392    0.031282    -0.12365     0.01764   -0.029132
-0.059014     0.03518    0.016991    0.042326   -0.071357    0.039727   -0.019388
-0.084024    0.054019    0.019264    0.053044   -0.012242    0.061814   -0.010618
-0.12235    0.061814    0.019589     0.06084    0.046873    0.075781  -0.0057458
-0.16653    0.056617    0.016991    0.065387     0.10047    0.077405   -0.007045
-0.19478    0.047847    0.011469     0.06896     0.14626     0.06961   -0.010618
-0.18959    0.043625   0.0062721    0.071883     0.18557    0.058566  -0.0099683
-0.14899    0.048822   0.0075714    0.078704      0.2122    0.047523  -0.0031473
-0.079477    0.061814    0.014068    0.086175     0.22065    0.040052   0.0059473
0.0033489    0.076755     0.01894    0.094945      0.2044     0.03453    0.012119
0.078704     0.08585    0.020239    0.099817       0.169    0.030957    0.012768
0.1284     0.08585    0.020239    0.097868      0.1271    0.029333   0.0095202
0.14756    0.078055    0.018615      0.0865    0.089748    0.026085   0.0039985
0.13457    0.061165    0.015042    0.064413    0.056942     0.01764  -0.0011985
0.097218    0.039727    0.010495     0.03453    0.024461   0.0023744  -0.0037969
0.043625    0.015692    0.011794  -0.0028225  -0.0050961   -0.018413  0.00010078
-0.014516  -0.0083442    0.020888   -0.052518   -0.034978   -0.044073   0.0046481
-0.065186    -0.03173    0.028034    -0.12008   -0.072656   -0.069733   0.0088706
-0.10124   -0.051868    0.023812    -0.20128     -0.1191   -0.088896     0.01017
-0.12787   -0.071682    0.009845    -0.28735     -0.1675   -0.098965   0.0059473
-0.15353   -0.089546  -0.0073698    -0.35946    -0.21849    -0.10124  -0.0031473
-0.18407    -0.10838   -0.022961    -0.40234    -0.27891    -0.10124    -0.01614
-0.212    -0.12625   -0.037252    -0.40493    -0.35394    -0.10611   -0.027183
-0.22434    -0.13924   -0.046671    -0.36985    -0.43319    -0.11228   -0.026209
-0.21005    -0.13924   -0.053492     -0.2984    -0.48451    -0.11131    -0.01549
-0.16198     -0.1178   -0.054467    -0.18407    -0.47899   -0.094093   0.0036737
-0.090521   -0.075904   -0.047321   -0.025559    -0.40493   -0.063237    0.024137
-0.0099683   -0.022961   -0.031406     0.16283    -0.28216   -0.026533    0.038428
0.063113     0.02641  -0.0089938     0.34927    -0.15386   0.0056225    0.042326
0.11768    0.061814    0.011794     0.49446   -0.060638    0.027385    0.040377
0.14756    0.077405    0.026085     0.56916    -0.02361    0.035505    0.035505
0.15244    0.075781    0.032582     0.56949   -0.035953    0.032582    0.030957
0.1349    0.061489    0.031607      0.5081   -0.077203     0.02641    0.024786
0.10274      0.0433    0.024461     0.41098     -0.1295    0.019264    0.020239
0.063763    0.027709    0.015042     0.30412    -0.18601    0.013418    0.017316
0.026735     0.01894   0.0075714     0.20798    -0.24643    0.008221    0.015367
0.003024    0.016341   0.0010752     0.13262    -0.31042 -0.00054884    0.015042
0.0010752     0.01894  -0.0060706    0.082602     -0.3744  -0.0093186    0.017316
0.018615    0.022512  -0.0099683    0.055968    -0.43189   -0.018738    0.020239
0.046548    0.024137   -0.011267    0.044924    -0.47542   -0.024585     0.02641
0.076755    0.024137  -0.0080194    0.042975    -0.49458   -0.023935    0.036479
0.10144    0.026735  -0.0063954    0.041027    -0.48256   -0.020362    0.048497
0.11151    0.031282  -0.0063954    0.038103    -0.43222   -0.016464    0.057592
0.10924     0.03518  -0.0034721    0.030957    -0.33185  -0.0096434     0.06019
0.097218    0.037454    0.003024    0.019589    -0.17627  -0.0037969    0.058566
0.082927    0.038753    0.011469    0.009845    0.027709  -0.0021729    0.057592
0.069285    0.042326    0.016666    0.003024     0.24241  -0.0031473    0.055318
0.059541    0.046548    0.019589  -0.0028225     0.41391  -0.0034721    0.051745
0.056617    0.050121    0.021538  -0.0073698     0.49576  -0.0050961    0.043625
0.057592     0.05207    0.020239   -0.010618     0.47627   -0.012892     0.03518
0.054344     0.05272    0.017965    -0.01484     0.37168   -0.026858    0.032906
0.044599    0.051096    0.019589   -0.019388     0.22129   -0.043099    0.033881
0.030633    0.046873    0.021863   -0.027833    0.061814   -0.055116    0.033881
0.01894    0.040702    0.024786   -0.040175   -0.075255   -0.059989    0.032257
0.016666    0.034206    0.025111   -0.054467    -0.17497   -0.055116    0.030957
0.026085    0.028034    0.028684   -0.064211    -0.22499   -0.042124    0.030957
0.040052    0.022512    0.035505   -0.067784    -0.22369   -0.027183    0.031282
0.054993    0.020239    0.040052   -0.063886    -0.18212   -0.013866    0.030633
0.066362    0.023487    0.039078   -0.053817    -0.11878  -0.0018481    0.029983
0.074482    0.033231    0.034206   -0.045047   -0.050244   0.0059473    0.031607
0.076755    0.046548    0.029658   -0.042449    0.018615   0.0095202    0.034206
0.074157    0.054993    0.023487   -0.043423    0.081952    0.010819    0.036479
0.067986    0.053369    0.013743   -0.044723     0.13067    0.009845    0.036154
0.059541    0.044275   0.0046481   -0.044398     0.15341    0.008221    0.029983
0.051096    0.032582  -0.0021729   -0.040175     0.14854   0.0091954    0.018615
0.043625    0.023487  -0.0024977   -0.034654     0.12872    0.015042   0.0088706
0.036804    0.016991  0.00042559   -0.031081     0.10794    0.024461   0.0062721
0.032582    0.011144   0.0043233    -0.03173     0.09462    0.032906    0.010819
0.031932    0.003024     0.01017   -0.036602    0.087149    0.038103    0.022188
0.032582  -0.0057458    0.019264   -0.037252    0.080978    0.041027     0.03453
0.033231   -0.010618    0.028034   -0.031081    0.071883    0.038428    0.043625
0.03583   -0.012892     0.03518   -0.017114    0.055643    0.032582    0.046223
0.035505   -0.013866     0.03583 -0.00087364    0.031607    0.025761    0.040377
0.02641   -0.019388    0.027709    0.010819   0.0065969    0.020239    0.029333
0.0065969   -0.029132    0.012768    0.013418    -0.01484    0.018615     0.01829
-0.018413   -0.035953  -0.0060706   0.0075714   -0.034654    0.022188   0.0088706
-0.037902   -0.034329   -0.024909  -0.0034721   -0.056741    0.028359   0.0023744
-0.041475   -0.022961   -0.034978   -0.016464   -0.082076     0.03453  -0.0018481
-0.029782  -0.0080194   -0.035628   -0.029782    -0.11033    0.036154  -0.0063954
-0.0099683   0.0056225   -0.030106   -0.055116    -0.14216    0.031282  -0.0096434
0.008221    0.016341    -0.02361    -0.10254    -0.17205    0.022837   -0.010293
0.021863    0.025761   -0.016464    -0.16425    -0.18634    0.016341  -0.0080194
0.028684    0.034206  -0.0080194    -0.20843     -0.1662    0.012119  -0.0037969
0.030633    0.041027   0.0033489     -0.2042    -0.10449    0.014392   0.0046481
0.028034    0.046548    0.013743    -0.13989   -0.010293    0.027385     0.01829
0.025111    0.050771    0.023162    -0.03303    0.092021    0.048172    0.031932
0.020888    0.054019    0.028684    0.079354     0.17939    0.068635    0.042651
0.016666    0.056292    0.029983     0.15958     0.24046    0.081303    0.045574
0.015042    0.056942    0.029983     0.19206     0.27326     0.08585    0.041027
0.016991    0.057917    0.029983     0.18297     0.28073    0.082927     0.03518
0.021863    0.058241     0.02706     0.14951     0.27099    0.074482    0.032906
0.02641    0.054668    0.020564     0.10956     0.25215    0.062139     0.03518
0.030957    0.045574    0.012768    0.075781     0.23396    0.048172    0.039402
0.03583    0.032906   0.0065969    0.053369      0.2174    0.036479    0.045574
0.038103    0.020239   0.0020496    0.040052     0.20668    0.028034    0.050771
0.036804    0.010819   0.0017248    0.032906     0.19726    0.022512    0.052395
0.033231   0.0039985   0.0065969    0.032257     0.18232     0.01764    0.048497
0.028034    0.003024    0.010495    0.035505     0.15698    0.011469    0.041676
0.021863    0.008221   0.0088706    0.039402     0.12255   0.0049729    0.034206
0.012443    0.015367   0.0026992    0.041351    0.087474  -0.0011985    0.029983
0.0010752     0.01894  -0.0083442    0.038753    0.059216  -0.0031473    0.026085
-0.0093186    0.015042   -0.021012    0.033881    0.056942  -0.0015233    0.024461
-0.017439   0.0036737   -0.031406     0.02706     0.11313   0.0065969    0.028684
-0.026209   -0.013541   -0.035628    0.021863     0.23624    0.014068    0.037129
-0.037577   -0.031081   -0.034004    0.021863     0.39961    0.016991    0.047198
-0.051868   -0.048296   -0.029132    0.030308     0.54155    0.013418    0.053694
-0.067134   -0.064536   -0.025234    0.042651      0.5984  -0.0011985    0.051745
-0.076554   -0.079802   -0.024909    0.048172     0.54383   -0.023935    0.041676
-0.074605   -0.092469   -0.029132    0.034855     0.40741   -0.050244    0.026735
-0.060963   -0.097341    -0.03303  0.00075039     0.24468    -0.07493     0.01017
-0.039526   -0.090196   -0.037252   -0.047646    0.090397   -0.092794  -0.0034721
-0.01614   -0.072981   -0.039526    -0.10059   -0.084349    -0.09994   -0.012567
0.0036737   -0.053817   -0.038551    -0.15288    -0.34192   -0.097341   -0.013866
0.021213   -0.036602   -0.037577    -0.20128    -0.70863    -0.09182   -0.008669
0.039078   -0.021337   -0.036927    -0.23961      -1.128   -0.085973  -0.0011985
0.053694  -0.0063954   -0.036927    -0.26169     -1.4852   -0.081101   0.0036737
0.058241   0.0072465   -0.034978    -0.26981     -1.6688   -0.071357   0.0095202
0.044924    0.014717   -0.030106    -0.26884     -1.6334   -0.058365    0.015042
0.012443    0.018615   -0.021986    -0.24286     -1.4183   -0.041799     0.01764
-0.031406    0.024786  -0.0063954    -0.16523     -1.0945   -0.026533     0.01829
-0.069408    0.041027    0.016666   -0.011592    -0.73039    -0.01484    0.022512
-0.089871    0.067661    0.050121     0.19921    -0.39162  -0.0083442    0.031932
-0.089221    0.098517    0.084226     0.41358    -0.12982  -0.0018481    0.044924
-0.071032     0.12385     0.10989     0.56949    0.022188   0.0059473    0.055968
-0.042449     0.13684     0.12125     0.62795    0.059216    0.019589     0.06084
-0.010618     0.13425     0.11931      0.5893    0.011144    0.041351    0.057917
0.01894     0.12223     0.10761     0.48504   -0.078178    0.065062    0.050771
0.047198     0.10989    0.094295     0.36291    -0.16555    0.083901    0.040377
0.074482    0.099817    0.082602     0.25767    -0.21785     0.09397     0.02706
0.096244    0.092671    0.073182     0.18329    -0.21557    0.092346   0.0091954
0.10404    0.086824    0.065387     0.13522    -0.13632    0.078704   -0.014516
0.097218    0.079354    0.055318     0.10404    0.038103    0.053694   -0.041475
0.080003    0.067986    0.044924    0.079679     0.29925    0.023487   -0.063886
0.055968    0.054344    0.037129    0.059865     0.60944  -0.0015233   -0.073306
0.027385    0.040702    0.034855    0.047847     0.89917    -0.01614   -0.068758
-0.0015233    0.028359    0.033231    0.042651      1.0716   -0.018738   -0.059339
-0.023935    0.016666    0.031607    0.039402      1.0395   -0.011917   -0.049595
-0.035953   0.0056225    0.029333    0.032582     0.79296 -0.00022403   -0.039201
-0.034978  -0.0047713    0.024461     0.01764     0.42203   0.0091954   -0.027183
-0.028482   -0.013216    0.016991  -0.0093186    0.057592    0.011469   -0.016464
-0.02361    -0.02361   0.0062721   -0.045372    -0.20225   0.0059473   -0.008669
-0.02426   -0.034329  -0.0034721    -0.09182    -0.31983  -0.0021729  -0.0037969
-0.029132   -0.041799   -0.010293    -0.14249    -0.30879  -0.0076946  -0.0024977
-0.028807     -0.0405   -0.011592    -0.18764    -0.21297   -0.010618  -0.0047713
-0.021986   -0.030106  -0.0080194    -0.22044   -0.093119   -0.008669  -0.0073698
-0.0031473   -0.013866  -0.0031473    -0.23051   0.0062721  -0.0028225  -0.0057458
0.025436   0.0026992 -0.00054884    -0.21232    0.080328   0.0043233 -0.00054884
0.055318    0.017965 -0.00022403    -0.16912     0.13912    0.010819    0.011469
0.076106    0.029983 -0.00087364    -0.10936     0.18816    0.017316    0.029009
0.0852    0.035505  -0.0018481   -0.044073     0.22552    0.026085      0.0433
0.078055    0.032906  -0.0015233    0.017965     0.24955    0.035505    0.050121
0.055643    0.020564  -0.0047713    0.062139     0.26774    0.039078    0.045249
0.021538   0.0036737   -0.012242    0.080003     0.29827    0.031282    0.029983
-0.012242    -0.01614   -0.025234    0.072533     0.35187    0.011469   0.0075714
-0.036602    -0.03303   -0.041475     0.05272     0.43339   -0.013866   -0.014516
-0.045372   -0.041799   -0.055766    0.033556     0.53279   -0.034004   -0.024585
-0.0405   -0.039526   -0.063886    0.020239     0.62146   -0.042774   -0.022961
-0.023285   -0.027833   -0.068109    0.012443     0.66888   -0.038227   -0.014191
-0.0021729   -0.012567   -0.068109   0.0049729     0.66693   -0.029132  -0.0083442
0.015042      0.0014   -0.060313  -0.0018481     0.63088   -0.023935  -0.0093186
0.023487   0.0095202   -0.040825  -0.0037969     0.58865   -0.025559    -0.01484
0.025111    0.016666   -0.013216   0.0046481     0.55552   -0.028482   -0.019712
0.025761    0.023812    0.013743    0.022512     0.53051   -0.027508    -0.02426
0.029658    0.033231     0.03583    0.040052      0.5042   -0.018738   -0.029132
0.030633    0.042651    0.049147    0.049147      0.4688  -0.0041217    -0.03238
0.023162    0.050446    0.055643    0.048172     0.42073    0.013743   -0.034978
0.0078962    0.050121    0.054993    0.041027     0.36811    0.032582   -0.035628
-0.0028225    0.042326    0.046223    0.033556     0.32263     0.05207   -0.033354
0.0036737    0.033556    0.031607    0.028684     0.29535    0.070259   -0.028157
0.02641    0.025761    0.017316    0.028034     0.29308    0.084876   -0.020037
0.055643    0.019914   0.0095202    0.028684     0.31419    0.093645   -0.011267
0.078704    0.015367   0.0091954    0.025761     0.35349     0.10014  -0.0034721
0.089423    0.012443    0.015692     0.01894     0.39572     0.10989 -0.00087364
0.089098    0.015367    0.024461    0.012768     0.42268     0.12028 -0.00087364
0.080328    0.026085    0.033881   0.0075714     0.42592     0.13035  -0.0028225
0.074482    0.042001    0.040052   0.0052977     0.40514     0.13684  -0.0018481
0.080328    0.063113    0.041027   0.0056225     0.36486     0.13879  0.00010078
0.095594    0.080978    0.038753    0.008221     0.30964     0.13717   0.0010752
0.11021    0.087799    0.036479    0.013743     0.23851     0.13262   0.0010752
0.11086    0.081303    0.036804    0.021863     0.15861     0.12905 -0.00022403
0.089098    0.064088    0.034855    0.031282    0.073507      0.1284  -0.0015233
0.050121    0.039402    0.030308    0.039078   -0.019063     0.12807  0.00042559
0.0046481    0.013743    0.025436    0.044275     -0.1204     0.12483   0.0056225
-0.030756  -0.0057458    0.024786    0.047523    -0.22889     0.11606    0.013418
-0.047321  -0.0089938    0.032906    0.050121      -0.339    0.099492    0.021863
-0.043748   0.0046481    0.044599    0.053369    -0.44326     0.07773    0.025761
-0.028157    0.028034    0.054993    0.057267    -0.52836     0.05142    0.026085
-0.010293    0.049472    0.061165    0.055318    -0.58098    0.022512    0.024461
0.0020496    0.056942    0.062789      0.0433    -0.58325  -0.0076946    0.022512
0.0059473    0.048497    0.057917    0.027709    -0.51732   -0.036602    0.020888
0.0014    0.029658    0.047847    0.013093    -0.38642   -0.061937    0.021863
-0.0099683    0.013093    0.039727   0.0033489    -0.21687   -0.081101    0.025111
-0.026858   0.0026992     0.03453  -0.0024977   -0.051544   -0.096042    0.029658
-0.042124   0.0017248    0.029009  -0.0083442    0.042326    -0.10774    0.033556
-0.050569   0.0062721     0.01764   -0.014516   0.0033489     -0.1204     0.03583
-0.044398    0.012768    0.003024   -0.019063    -0.18244    -0.13664    0.029658
-0.02426     0.01829   -0.011917   -0.020037    -0.45658    -0.15711    0.018615
0.0033489    0.023487   -0.019063   -0.018413    -0.72032    -0.17172    0.010819
0.026085    0.026735   -0.014191    -0.01549    -0.88467    -0.17432   0.0069217
0.034206    0.028034  -0.0015233   -0.012242    -0.90384    -0.16198    0.010819
0.02706    0.029658    0.012119  -0.0093186    -0.79048    -0.13827    0.021213
0.0075714    0.030308     0.01894  -0.0028225    -0.59495    -0.10579    0.032906
-0.018088    0.026085    0.015042   0.0026992    -0.37668   -0.070707    0.038428
-0.045697    0.012768  0.00042559   0.0046481    -0.18926   -0.038876     0.03583
-0.073306  -0.0099683   -0.017764   0.0046481   -0.058365   -0.021337    0.027709
-0.095717   -0.035303    -0.03303   0.0026992    0.012119   -0.017114    0.017316
-0.10806   -0.053492   -0.037577   0.0049729    0.038103   -0.018413    0.011469
-0.10449   -0.056741   -0.028157    0.010819    0.028359   -0.017114    0.012119
-0.0824   -0.043748  -0.0067202    0.019914   -0.021012   -0.010618    0.023812
-0.045697   -0.016789     0.01894    0.028034    -0.11098   0.0020496    0.041676
0.00075039    0.013093    0.038103    0.031282    -0.23409    0.015042    0.059541
0.051096    0.032906    0.047847    0.029333    -0.37408    0.022837    0.070584
0.09397    0.038753    0.046548    0.026735    -0.51115    0.024786    0.074482
0.11606    0.034206    0.041027     0.02706    -0.62288    0.020239    0.072208
0.11508    0.025436     0.03453    0.029009    -0.69986    0.016991    0.066362
0.095919     0.01894    0.028359    0.031932    -0.73234    0.016016    0.056617
0.066686    0.019264    0.021213     0.03518    -0.71058     0.01894    0.044924
0.034206    0.026085    0.017316    0.033556    -0.63555    0.021538     0.03583
0.0088706    0.034206    0.018615    0.028034    -0.52641    0.022837    0.031932
-0.0028225    0.039402    0.023812    0.021538    -0.41046    0.021538    0.033881
-0.00022403    0.036804    0.030633    0.017965    -0.30944    0.017965    0.036154
0.012443    0.029983    0.038428    0.016666    -0.22856   0.0091954     0.03518
0.030308    0.021213    0.042326    0.019264    -0.15581      0.0014    0.031932
0.048497     0.01764    0.044924    0.026735   -0.086623  -0.0018481    0.031932
0.062139    0.024461    0.045574    0.032906   -0.021986   0.0010752    0.038753
0.06896    0.036804    0.042001    0.036154    0.041027    0.011794    0.049147
0.069285    0.048822     0.03518    0.033881     0.10404    0.025436    0.061814
0.066037    0.054668     0.02641    0.029333     0.16348    0.036804    0.070584
0.06019    0.053694    0.015042    0.025761     0.21382    0.043625    0.072858
0.053369    0.049147   0.0062721    0.024786     0.24663    0.046548     0.06896
0.0433    0.042001   0.0026992    0.024786     0.26612    0.044275    0.061489
0.030308    0.034206   0.0017248    0.021863     0.27619    0.034855    0.051096
0.014717    0.024786   0.0026992    0.015367     0.28008    0.018615    0.039402
0.00042559    0.015042      0.0014   0.0033489     0.28528  -0.0057458     0.02641
-0.010618   0.0059473  -0.0018481   -0.010943     0.29145    -0.03303    0.014717
-0.018738  -0.0011985  -0.0037969    -0.02426     0.29503   -0.054142   0.0075714
-0.030756  -0.0089938  -0.0041217   -0.034004     0.29048   -0.060638   0.0065969
-0.051544   -0.017764  -0.0031473   -0.037252     0.27619   -0.050244    0.012119
-0.077203   -0.026533  -0.0015233   -0.036602      0.2515   -0.026209    0.020239
-0.097017   -0.032055  -0.0011985    -0.03238     0.22292   0.0026992    0.026735
-0.097341   -0.035303  -0.0044465   -0.022961     0.19304    0.028684    0.031282
-0.074605   -0.031406  -0.0083442  -0.0096434     0.16185    0.046548    0.038103
-0.039526   -0.019712  -0.0093186    0.003024     0.12807    0.057267    0.045899
-0.007045  -0.0037969   -0.007045    0.008221     0.09462    0.059541    0.047847
0.020888     0.01017  -0.0041217   0.0095202    0.080653    0.050446    0.041027
0.042001    0.018615  -0.0018481    0.011794     0.10144    0.030957    0.029658
0.058566    0.022512  -0.0011985    0.017965     0.16153    0.008221    0.019589
0.069934    0.021863   0.0023744    0.026735     0.25702   -0.012567    0.016341
0.076431    0.019914   0.0072465    0.037129     0.37525   -0.027183    0.019264
0.079354    0.016991    0.011144    0.042975     0.49608    -0.03173    0.024137
0.078379    0.015042    0.013418    0.042001      0.5945   -0.026858    0.024786
0.072858    0.015692    0.012443     0.03518     0.61561   -0.020687     0.01829
0.067986    0.016666   0.0075714    0.026735     0.48796   -0.020037   0.0075714
0.063763    0.020564 -0.00087364    0.023487     0.18719   -0.027183  -0.0018481
0.059216    0.027385  -0.0099683    0.026085    -0.22077   -0.039526  -0.0093186
0.053369    0.032906   -0.018738    0.030957    -0.58585   -0.053492   -0.013216
0.047523    0.031932    -0.02426    0.034855    -0.76742   -0.065835   -0.013866
0.044275     0.02641   -0.021986    0.033231    -0.70441   -0.073955   -0.010618
0.046223    0.020564   -0.013541     0.02706    -0.44099   -0.076879  -0.0063954
0.054993    0.019264  -0.0021729    0.020888   -0.086948   -0.068109  -0.0044465
0.063113    0.020888    0.008221    0.022188     0.23071   -0.047646  -0.0060706
0.063763    0.022512    0.015692    0.032582     0.42527   -0.019063  -0.0080194
0.056292    0.023162    0.019264    0.049147     0.47692   0.0072465  -0.0080194
0.042651    0.021863    0.022188    0.064413     0.41878    0.023162  -0.0057458
0.024786    0.020564    0.025761    0.073507     0.31614    0.029658  -0.0028225
0.0069217    0.017965    0.031932    0.078704     0.24371     0.02706    0.003024
-0.0067202    0.012443    0.036479    0.084226     0.24825     0.01894    0.013093
-0.010943   0.0056225    0.037454    0.092346     0.32458    0.010819    0.023812
-0.0057458   0.0023744    0.033231     0.10079     0.43177   0.0065969    0.034206
0.0020496   0.0069217    0.029658     0.11054     0.52402   0.0043233    0.042001
0.0072465    0.016991    0.031282     0.11931     0.56429   0.0026992    0.043625
0.0033489    0.027385    0.040377     0.12418     0.52661   0.0036737    0.036804
-0.0060706    0.033881    0.049472     0.11768     0.40708    0.013093    0.025111
-0.021012    0.037129    0.050446     0.10144     0.22487    0.025111    0.009845
-0.03303     0.03453    0.042651    0.076431    0.011469    0.034206  -0.0018481
-0.03238    0.031607    0.029658    0.047847    -0.20648    0.038428  -0.0083442
-0.018088    0.025436    0.014068    0.022837    -0.40981    0.039078   -0.015165
-0.0018481    0.016341  -0.0063954   0.0085458    -0.58942    0.042001   -0.022311
-0.00054884   0.0075714   -0.026533   0.0091954    -0.73559    0.046223   -0.028157
-0.018413   0.0010752   -0.044398    0.017316    -0.82621    0.054668   -0.027508
-0.043423  -0.0015233   -0.055116    0.027385    -0.82361    0.067011    -0.01549
-0.059664  0.00042559   -0.056741    0.034855    -0.70571    0.082602   0.0052977
-0.057065   0.0059473   -0.052843    0.038103    -0.47022    0.095269    0.029009
-0.035303    0.010819    -0.04927    0.031932    -0.15223    0.096569    0.047847
-0.0018481    0.012443   -0.048296    0.016666     0.17712    0.084876    0.051745
0.036804    0.010819   -0.049595  -0.0031473     0.43827    0.064088    0.042975
0.076755   0.0078962   -0.050569   -0.018413     0.56397    0.039727    0.027385
0.11508   0.0059473   -0.046996   -0.026533      0.5133    0.014392    0.015042
0.14269   0.0078962   -0.036927   -0.029457     0.30769  -0.0041217    0.011144
0.15438    0.011144   -0.023285   -0.029782     0.01829   -0.011917    0.011794
0.15179    0.015367  -0.0093186   -0.026858    -0.27241  -0.0096434    0.015692
0.13717    0.016341   0.0036737   -0.021661    -0.52739  -0.0080194     0.01829
0.11183    0.015042    0.016666   -0.017764    -0.74696    -0.01614    0.016991
0.079679    0.012443    0.025111   -0.016464    -0.90611   -0.037577   0.0088706
0.045249   0.0075714    0.023487   -0.022636    -0.95094   -0.069408 -0.00054884
0.011469   0.0017248    0.010495   -0.033679    -0.83043    -0.10189  -0.0093186
-0.016789  -0.0034721  -0.0073698   -0.044073    -0.53778    -0.12333   -0.016789
-0.033679  -0.0076946   -0.020687   -0.049595    -0.12982     -0.1269   -0.024585
-0.036927  -0.0089938   -0.026209   -0.050569     0.29373    -0.11391   -0.036602
-0.030431  -0.0080194   -0.023935   -0.044398     0.62633   -0.089221   -0.047321
-0.020037  -0.0024977   -0.012567   -0.031406       0.804   -0.054142    -0.04927
-0.012567   0.0036737   0.0049729   -0.019063     0.81374   -0.018088   -0.039526
-0.011592     0.01017    0.019914   -0.008669     0.68577    0.011144   -0.024909
-0.01484    0.016016    0.025111   0.0023744     0.48017    0.028034   -0.010943
-0.019063    0.020564    0.021213    0.013418     0.25702    0.031282  -0.0024977
-0.02361    0.023487    0.015367    0.023487    0.054668    0.028034   0.0020496
-0.024909    0.025761    0.012443    0.033231    -0.10221    0.023812   0.0039985
-0.021661    0.026735    0.013743    0.041676    -0.19283    0.024137   0.0069217
-0.011267    0.026085    0.017316    0.049472    -0.20648    0.024461    0.014717
0.0069217    0.025111     0.01764    0.053044    -0.15191    0.021863    0.024137
0.02706     0.02641    0.010495    0.048822   -0.052518    0.016666    0.029333
0.046873    0.027709   0.0023744    0.037129     0.06019    0.016016    0.030957
0.060515    0.028684   0.0020496    0.024461     0.16088    0.023812    0.030308
0.065712    0.025111   0.0088706    0.013418     0.23883     0.03518    0.028359
0.067986    0.020564     0.01829   0.0036737     0.28821    0.045574    0.028684
0.070909    0.015367    0.024137  -0.0015233     0.31062    0.052395    0.029983
0.071883    0.013418     0.02641  0.00075039     0.31711     0.05272    0.028034
0.069285    0.013418     0.02641   0.0085458     0.31581    0.047198    0.017965
0.054019    0.014068    0.025761    0.020239     0.31159    0.037454    0.003024
0.023812    0.016991    0.025761    0.034855     0.30347    0.027385    -0.01484
-0.01484    0.022837    0.029983    0.047847     0.29438    0.022512   -0.024585
-0.04927    0.033556    0.036479    0.059865      0.2947    0.023812   -0.020037
-0.071682    0.044599    0.045249    0.066686     0.31939    0.030957  -0.0024977
-0.080127    0.053694    0.054019    0.070259     0.37103    0.044599    0.021863
-0.075904    0.058241    0.060515    0.072533     0.43015    0.063113     0.04395
-0.063237    0.060515    0.062789    0.072533     0.46685    0.080978    0.055968
-0.045372    0.061814    0.060515    0.071883     0.45873    0.091696    0.058566
-0.026858    0.067336    0.058891    0.071234     0.39831    0.092996    0.055643
-0.011592    0.074806    0.058891    0.069934     0.29113    0.084876    0.049472
0.0023744    0.080978    0.057267    0.065062     0.15211    0.070909    0.039402
0.017316    0.081627     0.05207    0.057592   0.0017248     0.05207    0.026735
0.032257    0.079679     0.04395    0.049147    -0.13794    0.033556    0.016016
0.04395    0.078379     0.03453    0.042326    -0.25357     0.01829    0.012119
0.047198    0.080003    0.029009    0.037129    -0.34127   0.0078962    0.015042
0.036154    0.080003    0.029983    0.031607    -0.40299    0.003024    0.026735
0.013418    0.072533     0.03453    0.028034    -0.44034   0.0043233    0.040052
-0.019063    0.056942    0.034855    0.029658    -0.45593   0.0059473    0.047847
-0.058689    0.036154    0.030957    0.032906    -0.45625    0.011469    0.044924
-0.096692    0.014392    0.019264    0.032906    -0.45073    0.020239    0.034855
-0.1191  -0.0018481   0.0065969    0.024137    -0.44748    0.025761    0.023162
-0.11878   -0.011917  -0.0047713   0.0075714    -0.44424    0.021538    0.014068
-0.099615   -0.018088   -0.013541   -0.012892    -0.42572   0.0075714    0.010819
-0.068109   -0.021986   -0.020687   -0.030756    -0.37408   -0.011267    0.013743
-0.038551   -0.019063   -0.024909   -0.043748    -0.27923    -0.03303    0.016666
-0.018088   -0.010943    -0.02426   -0.053817    -0.14834   -0.052518     0.01017
-0.0067202   0.0069217   -0.021986   -0.072006  -0.0024977    -0.06681  -0.0050961
-0.0041217    0.028684   -0.020362    -0.10741     0.12483   -0.074605   -0.020362
-0.013541    0.046548   -0.022311    -0.16847     0.20538   -0.074605   -0.029132
-0.037902    0.055318   -0.025884    -0.24903     0.23559   -0.065186   -0.029132
-0.075579    0.054993   -0.030756    -0.33055     0.22292   -0.052518   -0.026209
-0.11715     0.04395   -0.033679    -0.39324     0.18232   -0.039526   -0.026533
-0.14931    0.021863   -0.035628     -0.4241      0.1297    -0.03238   -0.028807
-0.16068  -0.0047713   -0.036278    -0.41273    0.079029   -0.031406   -0.030106
-0.14606   -0.026858   -0.036602    -0.35264    0.043625   -0.032055   -0.026858
-0.10579   -0.034978   -0.033679    -0.23311    0.030957   -0.031081   -0.017764
-0.045372   -0.021661    -0.02426    -0.04927    0.038753   -0.025234   0.0010752
0.022837    0.009845  -0.0063954      0.1742    0.057267   -0.011267    0.024461
0.089098    0.047198    0.015692     0.39507    0.073507     0.01017    0.044924
0.14204    0.078704    0.033881     0.56202    0.078379    0.031282    0.056942
0.17485    0.098517    0.045574     0.64257    0.071234    0.048822     0.06019
0.18459     0.10826    0.051096      0.6338    0.056292    0.059541     0.06019
0.17582     0.11021    0.051096     0.56039    0.039402    0.064737    0.062464
0.15049     0.10534    0.048497     0.45548     0.02706    0.067661     0.06831
0.11703    0.097543      0.0433     0.34959    0.021863     0.06896    0.071883
0.085525    0.087149    0.036804      0.2606    0.019589     0.06831    0.072858
0.067336     0.07708    0.033231     0.19206    0.011794    0.062464    0.067336
0.060515    0.067661    0.038428     0.14042  -0.0028225    0.054668    0.057592
0.059865    0.057267    0.047847    0.099817   -0.012567    0.045899    0.049472
0.062139    0.045249     0.05207    0.072208   -0.010293    0.032582    0.045249
0.067661     0.03583    0.049796     0.05142  0.00010078    0.014717    0.042975
0.074482    0.032257    0.044275     0.03518    0.011469  -0.0037969    0.041676
0.078055    0.033556    0.038428    0.022837    0.022188   -0.013541     0.04395
0.075781    0.033556    0.038428    0.016016    0.031932  -0.0089938    0.050121
0.066362     0.02641    0.044924    0.014392    0.042326   0.0072465    0.053369
0.048497   0.0052977    0.047198    0.014717    0.050771    0.025761     0.05142
0.019589    -0.03303    0.037129    0.011469     0.05142    0.041027    0.040702
-0.020362   -0.081751    0.011469   0.0017248    0.034855    0.047847    0.024461
-0.065186    -0.13177    -0.02361   -0.014516  -0.0076946    0.046873   0.0091954
-0.10189    -0.16945   -0.058689   -0.030431   -0.072331    0.037454   0.0017248
-0.11456    -0.18017   -0.080451   -0.037577    -0.14704    0.020888   0.0062721
-0.10026    -0.15841   -0.082725   -0.035953    -0.21849   0.0026992    0.020564
-0.067459    -0.10709    -0.06616   -0.028807    -0.28053   -0.011267    0.038428
-0.031081   -0.041799   -0.037252   -0.018738     -0.3377   -0.017439    0.051745
-0.0034721     0.01764  -0.0034721   -0.010943    -0.40493    -0.01549    0.060515
0.014068    0.056292    0.028034  -0.0063954    -0.49783   -0.013216    0.063438
0.024461    0.070909     0.05207  -0.0050961     -0.6232   -0.018413     0.06084
0.034855    0.065387    0.067661  -0.0089938     -0.7541   -0.036278    0.057592
0.047847    0.049472    0.074806   -0.015165    -0.83043   -0.061613    0.054993
0.06961    0.039402    0.077405   -0.016789    -0.78301   -0.085648    0.051745
0.096893    0.039078    0.073832   -0.010943    -0.57383    -0.10221    0.044599
0.1232    0.046223    0.066686  0.00010078    -0.22207    -0.10676    0.034206
0.14172    0.057917    0.055968    0.009845     0.19563    -0.10059    0.024461
0.14756    0.062789    0.042326   0.0095202     0.57598   -0.083375    0.017316
0.13977    0.056942    0.025111  -0.0076946     0.84005   -0.058365    0.011794
0.11866    0.039727   0.0043233   -0.041475     0.95211   -0.027833   0.0026992
0.084551    0.017965   -0.019388   -0.082725     0.90631  0.00042559  -0.0089938
0.03518 -0.00087364   -0.040825    -0.11521     0.71857    0.023487   -0.020037
-0.024909   -0.011592   -0.053168    -0.12463     0.42527    0.036154   -0.027833
-0.084349   -0.013541   -0.051219    -0.10838    0.084226    0.039078   -0.031081
-0.12527  -0.0057458   -0.034978   -0.075255    -0.24091    0.038103   -0.034004
-0.13534    0.009845   -0.013541   -0.035303    -0.49556    0.038103   -0.033354
-0.11098    0.031282   0.0052977   0.0017248    -0.64107    0.041027   -0.024585
-0.059989    0.053044    0.012768    0.028034     -0.6742    0.037454   -0.010943
0.00075039    0.070259    0.011794    0.032906    -0.63977    0.022188   0.0046481
0.054344    0.076431   0.0049729    0.016991    -0.59787  -0.0073698    0.016016
0.090072    0.069934  -0.0024977   -0.010293    -0.58488   -0.042449    0.017316
0.10177    0.053694  -0.0054209   -0.037577      -0.593   -0.077203   0.0072465
0.093645     0.03518  -0.0034721   -0.056416    -0.57611    -0.10741   -0.008669
0.078379    0.022837   0.0017248    -0.06551    -0.48776    -0.12527   -0.026858
0.061165    0.017316   0.0062721   -0.068109    -0.32666    -0.12527   -0.042124
0.040702     0.01829   0.0072465   -0.066485    -0.13015    -0.10546    -0.04992
0.020888    0.018615   0.0065969   -0.060313    0.050446   -0.067784   -0.046996
0.0043233    0.014068   0.0039985   -0.055766     0.17712   -0.022961   -0.036602
-0.0089938   0.0052977      0.0014   -0.067784     0.23851    0.022188   -0.021986
-0.020687  -0.0060706  -0.0034721    -0.10644      0.2489    0.058241  -0.0093186
-0.029132   -0.017764  -0.0076946    -0.16782     0.23786    0.075131  0.00042559
-0.030431   -0.024585  -0.0093186    -0.22012     0.23818    0.073182   0.0069217
-0.019063    -0.02361   -0.010618    -0.22499     0.26872    0.059541    0.011794
-0.0011985    -0.01484   -0.010293    -0.16685     0.33238    0.045249     0.01894
0.013093  -0.0021729  -0.0037969   -0.064211      0.4165    0.038428    0.027709
0.016341   0.0075714   0.0069217    0.044599      0.5055    0.039402    0.031932
0.0062721    0.011794     0.01829      0.1245     0.58605    0.046223    0.032906
-0.010618    0.010819    0.026735     0.16088     0.64452     0.05272    0.031607
-0.021012   0.0069217    0.030957     0.15893     0.67278     0.06019    0.029333
-0.012892 -0.00087364    0.031932      0.1336      0.6718    0.066037    0.025436
0.014717   -0.011917    0.029658     0.10371     0.64549    0.067661    0.018615
0.050121   -0.022636    0.024461    0.079679     0.60262    0.062464   0.0052977
0.070909   -0.028157    0.016666    0.061814     0.54643     0.05207   -0.010293
0.067986   -0.026209    0.009845    0.053369     0.48212    0.042651   -0.021986
0.047847   -0.014191   0.0085458    0.053044     0.42008    0.038753   -0.024585
0.02706   0.0026992    0.011469    0.055643      0.3759    0.037778   -0.020362
0.016991    0.016991    0.014068    0.057917     0.35057    0.037778   -0.011267
0.01764    0.025436    0.013743    0.057917     0.32101     0.03583  -0.0018481
0.023162    0.024461    0.008221    0.054019     0.24273    0.030633   0.0049729
0.024137    0.016991  -0.0011985    0.045574    0.082602     0.01829   0.0059473
0.014392   0.0062721   -0.008669    0.032257    -0.14022   0.0017248      0.0014
-0.0050961  -0.0018481   -0.010943    0.021538    -0.35719   -0.014516  -0.0067202
-0.028482  -0.0063954   -0.008669    0.016666    -0.50108   -0.025884   -0.011917
-0.046347  -0.0057458  -0.0031473    0.017316    -0.53648   -0.030756  -0.0096434
-0.052843    0.003024   0.0056225    0.021863    -0.46827   -0.029132   0.0026992
-0.043099    0.020564    0.015692    0.031282    -0.33737   -0.021986    0.022837
-0.02361    0.042651    0.025111    0.042326    -0.19478   -0.012892    0.047523
-0.0028225    0.061165    0.033556    0.047847   -0.078503  -0.0024977    0.066686
0.016341    0.070909    0.039078    0.049147   0.0017248   0.0091954    0.075781
0.030633    0.071883    0.040702    0.048172    0.053694    0.023162    0.077405
0.039727    0.065387    0.038428    0.045574    0.087474    0.039078    0.078704
0.041351    0.055968    0.034206    0.042651     0.11346    0.058241    0.080653
0.029983    0.047523    0.032582      0.0433     0.13067    0.073832    0.080003
0.0078962    0.042326    0.036154    0.048172     0.13749     0.07708    0.073832
-0.01549    0.037129    0.044275     0.05272     0.12807     0.06831    0.061814
-0.031406    0.030957     0.05142    0.054668    0.097868    0.049796    0.046548
-0.032705    0.021863    0.053044    0.053694    0.042975    0.029009    0.029658
-0.021986    0.011144    0.046873    0.049796   -0.035628    0.012119    0.016341
-0.0054209  -0.0028225     0.03583    0.044275    -0.11878   0.0043233     0.01017
0.0095202   -0.014516    0.025111    0.041027    -0.18309   0.0072465   0.0088706
0.022837   -0.022636    0.017965    0.044924    -0.20778    0.016991    0.008221
0.033231   -0.028157    0.016016    0.052395    -0.19089    0.028359   0.0033489
0.039727   -0.028482    0.021213    0.057917    -0.14834    0.034206   -0.007045
0.044275   -0.020037    0.030957    0.061489    -0.11033    0.033231   -0.018088
0.051745  -0.0050961    0.040377    0.061814    -0.10319    0.029983   -0.026533
0.063113    0.014717    0.045574    0.059541    -0.14639    0.033231   -0.030431
0.077405    0.032906    0.044924    0.058241    -0.24123    0.042326   -0.027183
0.09462    0.044275    0.041027    0.057917    -0.36401    0.049147   -0.021337
0.11281    0.044924     0.03453    0.057267    -0.47249    0.048497   -0.013216
0.12483    0.038428    0.029333    0.055318    -0.53128    0.040377  -0.0050961
0.12385    0.025761    0.024786    0.049147    -0.53421    0.028684  -0.0031473
0.10924    0.008221    0.016666    0.038753    -0.49523    0.019914  -0.0089938
0.086824   -0.010943      0.0014     0.02706     -0.4241    0.015367   -0.020687
0.062464   -0.025884   -0.014516    0.014392    -0.32016    0.011144   -0.032705
0.042001   -0.030431   -0.023285   0.0036737    -0.17042   0.0010752   -0.038551
0.028034   -0.017764   -0.023935 -0.00054884    0.026735   -0.012892     -0.0405
0.013418    0.009845   -0.017764   0.0052977      0.2502   -0.022636   -0.042124
-0.011267    0.046873  -0.0089938    0.020239     0.45516   -0.025234   -0.048945
-0.044723    0.079679  0.00075039    0.037129     0.59547   -0.023935   -0.065186
-0.077203     0.09397   0.0078962    0.047523     0.64809   -0.022311   -0.082725
-0.099615    0.083576   0.0091954     0.04395     0.61724   -0.026533   -0.094418
-0.11586    0.053694   0.0033489    0.029333     0.53408   -0.031081   -0.089871
-0.13275    0.013418  -0.0050961    0.010495     0.43794    -0.03173   -0.069408
-0.14476   -0.022311  -0.0093186  -0.0037969     0.36583   -0.024585   -0.040825
-0.13794   -0.036927  -0.0093186  -0.0060706      0.3405   -0.012242   -0.013216
-0.10384   -0.025559 -0.00022403      0.0014     0.36194   0.0049729   0.0088706
-0.046022   0.0036737    0.013743    0.011144     0.40416    0.023812    0.021863
0.022512    0.036479    0.027385    0.021213     0.43567    0.041027    0.029658
0.08585    0.061814    0.037454    0.029333     0.44249    0.055318    0.038428
0.13295    0.074157    0.042326    0.039078     0.41878    0.062464    0.050771
0.16023    0.074157    0.042651    0.056292     0.37753    0.059865     0.06019
0.16998    0.066362    0.037778    0.076431     0.32783    0.048822    0.059541
0.16543    0.056617    0.028684    0.092346     0.27749    0.031607    0.047847
0.15471    0.048172    0.014717    0.090397     0.22974    0.010495    0.030633
0.14074    0.041351  -0.0024977    0.070259     0.18329   -0.011267    0.015367
0.12028    0.038753   -0.017764    0.042001     0.13425   -0.027183   0.0036737
0.086824    0.037129   -0.025234    0.016666    0.081952   -0.037577  -0.0044465
0.042651    0.033556   -0.025884   0.0036737    0.024461   -0.042774  -0.0080194
0.00075039    0.025436   -0.020362   0.0052977   -0.035628   -0.041799  -0.0031473
-0.020687    0.011794   -0.010943     0.01829   -0.092145   -0.032705   0.0072465
-0.018413  -0.0018481  0.00075039    0.036479     -0.1334   -0.018413    0.019589
0.00010078    -0.01549    0.011144     0.05272    -0.15451  -0.0034721    0.029333
0.017965   -0.026858    0.016341    0.063113    -0.16718   0.0078962    0.034855
0.019914   -0.034978    0.016341    0.066362    -0.17432    0.016016     0.03518
0.0036737   -0.038876    0.013743    0.066362    -0.17205    0.020564    0.033231
-0.017439   -0.036278    0.014717    0.067661    -0.15288    0.020888    0.033231
-0.030106   -0.026858     0.01829    0.068635    -0.10838    0.020239    0.036154
-0.026533   -0.013541    0.023812     0.06896   -0.036602     0.01894    0.038753
-0.007045 -0.00054884    0.028359    0.065387    0.056617    0.017316    0.041027
0.019914   0.0072465    0.026735    0.055968     0.15601    0.012443    0.041676
0.041351    0.008221    0.018615    0.038103     0.24046   0.0049729    0.040702
0.048497  0.00010078   0.0072465    0.016341     0.28918  -0.0021729    0.041351
0.036154   -0.014516  -0.0018481  -0.0011985     0.29438  -0.0080194    0.047523
0.0091954   -0.026858  -0.0034721  -0.0076946     0.25767   -0.011267     0.06019
-0.026858   -0.029132  0.00010078  -0.0044465     0.18329  -0.0099683    0.075456
-0.064211   -0.019063   0.0088706   0.0023744    0.082602  -0.0044465      0.0852
-0.090521  -0.0011985    0.020239   0.0072465   -0.038227  0.00042559      0.0865
-0.095717    0.013093    0.027385 -0.00087364    -0.17854 -0.00054884    0.080328
-0.078503    0.016341    0.023162    -0.03303    -0.34549   -0.010943    0.068635
-0.045372   0.0069217   0.0078962   -0.086948     -0.5485   -0.031406    0.050446
-0.0060706   -0.010293   -0.011592    -0.14736    -0.78074   -0.056091    0.031282
0.030633   -0.023285   -0.025559     -0.2016     -1.0094     -0.0824    0.022188
0.053369   -0.026533   -0.029782    -0.23863      -1.188    -0.10254    0.024786
0.057267   -0.014191   -0.023285    -0.25098     -1.2796    -0.11066    0.037778
0.041027    0.012768  -0.0093186    -0.24773     -1.2709    -0.10871    0.051096
0.015042    0.045249   0.0065969    -0.24513     -1.1802    -0.10351    0.057917
-0.0096434    0.074157    0.016341     -0.2435     -1.0377   -0.095393    0.058566
-0.023285    0.089423     0.01829    -0.21947    -0.86973   -0.081751    0.055643
-0.028157     0.09462    0.016016    -0.13697    -0.68264   -0.060313    0.053044
-0.029782    0.093321    0.018615    0.020239    -0.47607   -0.034978    0.051096
-0.033354    0.091372    0.030957     0.22974    -0.25812  -0.0089938    0.050771
-0.035628    0.090397    0.047198     0.43209   -0.058689    0.016341    0.054344
-0.034654    0.092346     0.06084     0.56689     0.10014    0.039078    0.059541
-0.03173    0.097218    0.067336     0.60294     0.21188     0.05207    0.064737
-0.025234     0.10047    0.065712     0.54773      0.3038    0.053044    0.070259
-0.014516    0.096893    0.057592     0.43404     0.41033    0.042651    0.072208
0.0014    0.089098    0.045899     0.30639      0.5487    0.029983     0.06961
0.019914    0.078055     0.03583     0.19823     0.70201    0.023162    0.061814
0.042326    0.065062    0.024786     0.12418     0.82381    0.029658    0.051745
0.065387    0.052395    0.009845     0.07708     0.86279    0.046223    0.044599
0.084876    0.042651   -0.010618    0.040377     0.79133    0.062139    0.038753
0.096244    0.038103   -0.027833  -0.0021729     0.62113    0.069934    0.028684
0.096569    0.034206   -0.038876   -0.052518     0.40026    0.063763     0.01829
0.085525    0.031607   -0.047646    -0.10579     0.18946    0.048497     0.01017
0.067336    0.031932   -0.052193    -0.15386    0.041351    0.032257   0.0039985
0.049796    0.035505   -0.054792    -0.18829   -0.028157    0.022512   0.0039985
0.038428    0.040052   -0.054467    -0.19901   -0.034329    0.024461    0.012119
0.031607    0.044275   -0.049595    -0.18277  -0.0073698    0.038103    0.024461
0.022188    0.047847   -0.037577    -0.13924    0.024137    0.055643    0.033231
0.012768    0.047523   -0.016464   -0.078178    0.050121    0.068635    0.032582
0.010819      0.0433   0.0052977   -0.011592    0.067336    0.070259    0.023162
0.020888    0.037129    0.021213    0.048497    0.077405    0.061489    0.011794
0.038753    0.030957    0.026085    0.093645    0.074482    0.044599   0.0069217
0.052395    0.026735    0.022512     0.12028    0.042651    0.030308   0.0075714
0.055643    0.024137    0.016341      0.1284   -0.017114    0.023812   0.0091954
0.045574    0.021538    0.010819     0.12288   -0.084999    0.024786   0.0095202
0.029658    0.016666   0.0059473     0.10826    -0.13989    0.023487    0.009845
0.016341     0.01017   0.0020496      0.0865    -0.16718    0.017965    0.011144
0.0088706    0.003024   0.0017248    0.058566    -0.16068    0.011469    0.011144
0.0020496   -0.007045   0.0078962     0.02706    -0.12008   0.0095202   0.0091954
-0.007045   -0.019063    0.014717   0.0010752   -0.060638    0.012768   0.0088706
-0.017114    -0.03238     0.01829   -0.014516  -0.0024977    0.016991   0.0075714
-0.028807    -0.04115    0.016341   -0.022311    0.038428    0.017316   0.0046481
-0.036602   -0.037902    0.011794   -0.026858     0.06084    0.013418   0.0010752
-0.039201   -0.027508   0.0043233   -0.033679    0.065387   0.0072465  -0.0047713
-0.037902   -0.015165  -0.0024977   -0.043748    0.057592   0.0026992   -0.007045
-0.031081  -0.0028225  -0.0076946   -0.048945    0.047198   0.0091954  -0.0018481
-0.020362   0.0091954  -0.0057458   -0.043423    0.043625    0.025436   0.0091954
-0.0080194    0.016341   0.0033489   -0.031406    0.045574    0.045249    0.018615
0.0020496     0.01764    0.019264   -0.020037    0.047198    0.059216    0.021538
0.0069217    0.012768    0.032582    -0.01484    0.046873    0.059216    0.016666
0.008221   0.0033489    0.037778   -0.013541     0.05142    0.048172   0.0039985
0.0078962  -0.0063954    0.033231    -0.01549    0.079029    0.034206   -0.010293
0.0075714    -0.01549    0.023487   -0.020687     0.14432    0.022837   -0.019388
0.009845   -0.021661    0.011469   -0.027833     0.25215    0.012443   -0.021986
0.010819   -0.028482  0.00010078   -0.033354     0.41813    0.003024   -0.019712
0.011794   -0.034329  -0.0076946   -0.033679     0.64842  -0.0063954   -0.017114
0.01764   -0.035953   -0.010293   -0.026533     0.89819   -0.013866    -0.01614
0.030308   -0.032055  -0.0083442   -0.017764      1.0648   -0.021337   -0.014191
0.046223   -0.019063  -0.0060706   -0.012892      1.0509   -0.032055  -0.0096434
0.061165  0.00042559  -0.0015233   -0.010618     0.83453   -0.047321  -0.0063954
0.069285    0.023487   0.0010752   -0.012892     0.49153   -0.064861  -0.0060706
0.062139    0.044275   0.0020496    -0.01484     0.15828   -0.076229   -0.010943
0.033556    0.057267  -0.0037969   -0.016789   -0.063886   -0.078503   -0.018088
-0.010943    0.063763  -0.0093186    -0.01549    -0.16782   -0.072331   -0.021661
-0.058689     0.06896   -0.010943   -0.011592    -0.22109   -0.059989   -0.018413
