-0.16425   -0.079477   -0.054142    -0.47152      0.8381    -0.31918   -0.077528
-0.18504   -0.090521    -0.04862    -0.36401     0.48861    -0.22726   -0.085648
-0.18244   -0.088896   -0.028482    -0.15938     0.10306    -0.15841   -0.084349
-0.16685   -0.084999  0.00075039     0.10469    -0.16393    -0.12138   -0.076879
-0.15483   -0.085324    0.026085     0.34115    -0.26592    -0.11975   -0.072656
-0.15321   -0.093119    0.039078     0.47237    -0.19901    -0.14119   -0.080451
-0.15873    -0.10319    0.038428     0.47497    0.014717    -0.16035   -0.098316
-0.1675    -0.11293    0.029658     0.36583     0.30997    -0.16133    -0.11748
-0.18017     -0.1204    0.023487     0.20246     0.59742    -0.13664     -0.1282
-0.2029    -0.12722    0.030308    0.059865     0.82641    -0.09182     -0.1269
-0.24058    -0.13112    0.049147    0.013418      1.0255   -0.034004    -0.11878
-0.28476    -0.13307    0.073507      0.1206      1.2857    0.027385    -0.11001
-0.31983    -0.13697    0.095919     0.39864      1.6735    0.084226   -0.098316
-0.33283    -0.14411     0.11476     0.78808      2.1416     0.12548     -0.0837
-0.32341    -0.15841     0.13295      1.1551       2.557     0.14367   -0.067784
-0.29547    -0.17497     0.14691      1.3429      2.8055     0.12483   -0.055441
-0.26104    -0.18959     0.15211      1.2532        2.86    0.072208   -0.051544
-0.22564    -0.19641     0.14561      0.9284      2.7395  -0.0044465   -0.061937
-0.19478    -0.19154     0.12548     0.52499      2.4472   -0.092469   -0.086298
-0.17302    -0.17757    0.094295     0.20505      1.9603    -0.18309    -0.11845
-0.15548     -0.1636    0.057917    0.048822      1.2386    -0.26754    -0.14834
-0.13892    -0.15418    0.025436    0.039402     0.27651    -0.33478    -0.16718
-0.12008    -0.14964   0.0049729     0.10306    -0.81192    -0.37635    -0.17562
-0.095717    -0.14281   0.0033489     0.16803     -1.8412    -0.39487    -0.17757
-0.072656    -0.12495    0.014717     0.19823     -2.6903    -0.40169    -0.17724
-0.069733   -0.097666    0.028684     0.19369     -3.3308    -0.40526    -0.18147
-0.12592   -0.067134    0.039727     0.17127     -3.7803    -0.40948    -0.19186
-0.28865   -0.037252    0.053044     0.14302      -4.034    -0.40981    -0.21525
-0.56766   -0.019712    0.073182     0.10274     -4.0597    -0.40916    -0.25487
-0.90774   -0.030431    0.098842    0.042001     -3.8326    -0.41013    -0.30457
-1.2247   -0.094418     0.11801   -0.034004     -3.3581    -0.41078    -0.35199
-1.455    -0.22109     0.11541    -0.11033     -2.6815    -0.40169    -0.38804
-1.5837    -0.40039    0.082277    -0.17107     -1.8987    -0.37245    -0.41533
-1.6265    -0.60079    0.020239    -0.21102     -1.1335    -0.31886    -0.44164
-1.6051    -0.77944   -0.058689    -0.23376    -0.49393    -0.24253    -0.46048
-1.5184    -0.89994    -0.13827     -0.2461   -0.031406    -0.14866    -0.45008
-1.3316    -0.94022    -0.19998    -0.25227     0.27944   -0.038227    -0.38739
-1.0107    -0.90092    -0.23376    -0.25617     0.52856      0.0865    -0.26754
-0.55824    -0.79048    -0.24286    -0.26007     0.80887      0.2187    -0.11943
-0.03238    -0.63977    -0.24708    -0.27339      1.1502     0.34017    0.015692
0.47822    -0.49361    -0.26527    -0.30749      1.5208     0.43404     0.10826
0.90144    -0.39032    -0.30749    -0.35491      1.8817      0.5016     0.16185
1.1921    -0.34095    -0.36173    -0.39129      2.2569     0.55715     0.20376
1.3328    -0.31106    -0.39681    -0.38447      2.7158     0.62048     0.26352
1.3575    -0.24221    -0.37798    -0.31269      3.2326     0.70233     0.35479
1.337   -0.090845    -0.28995    -0.18829      3.5964     0.79361      0.4727
1.3123     0.13555    -0.14606   -0.057065      3.5571     0.86896     0.58638
1.2561     0.39507     0.01764     0.02641      3.0565       0.893     0.65491
1.1207     0.63218     0.15861    0.028684      2.2884     0.84395     0.64874
0.90956       0.804     0.24858    -0.04927      1.5446      0.7241     0.56364
0.6731     0.88747     0.27359      -0.174      1.0278     0.55552      0.4282
0.4636     0.88488     0.24403    -0.28963     0.76048      0.3772     0.28821
0.32328     0.82868     0.19076    -0.35004     0.60522     0.23006     0.18134
0.26514     0.76242     0.14724    -0.34647     0.34894     0.13814      0.1297
0.27456     0.71468     0.12937    -0.32178    -0.20778    0.095269      0.1219
0.31289     0.68869     0.13035    -0.34192     -1.1796    0.067336     0.13555
0.33758       0.677     0.13327    -0.44164       -2.55    0.019264     0.14854
0.31646     0.65881     0.12385    -0.60014     -4.1172   -0.068758     0.15536
0.23786     0.61561    0.098842     -0.7593     -4.9698    -0.18601     0.16283
0.1232     0.53473    0.062139    -0.85447     -4.9695    -0.31042     0.16998
0.024137     0.42462    0.022837     -0.8496     -4.9698    -0.41435     0.17355
-0.0024977     0.30087   -0.008669    -0.74468     -4.5134    -0.47996     0.16998
0.055643     0.17777   -0.027183    -0.57318     -2.6347    -0.50562     0.15958
0.1638    0.073507   -0.036927    -0.39422    -0.68232    -0.49263     0.14237
0.27554   0.0052977   -0.043099    -0.27501     0.85142    -0.44424     0.11703
0.36518    -0.01484   -0.053168    -0.26559       1.669    -0.36823    0.084876
0.42268   0.0056225   -0.076879    -0.36238       1.832    -0.28183    0.049472
0.4295    0.048497    -0.11163    -0.47509      1.6024    -0.19608    0.016016
0.37395    0.092021    -0.14379     -0.4673      1.3393    -0.11033  -0.0076946
0.25832     0.12548    -0.14996    -0.25227      1.3049   -0.022311   -0.016789
0.10436     0.14919    -0.11651      0.1271      1.5491    0.066686   -0.013216
-0.057065     0.16348    -0.04992      0.5159      1.9408     0.14626  -0.0037969
-0.19413     0.16315    0.027385     0.75495       2.264     0.19661   0.0023744
-0.28508     0.13684      0.0865     0.76405      2.3436     0.20116  0.00075039
-0.32698    0.085525     0.10761     0.56494      2.1633     0.15666   -0.012567
-0.31854    0.029009    0.090722     0.27067      1.8924    0.078379   -0.031406
-0.26104   -0.013216    0.055968    0.027385      1.7472   -0.007045   -0.048296
-0.16165   -0.024909    0.029658   -0.059664      1.8193   -0.072656   -0.061613
-0.042124  -0.0041217    0.029658    0.045899       2.024    -0.10514   -0.073306
0.071234    0.037778    0.056942     0.32328      2.1922    -0.10579   -0.079802
0.15568     0.08585    0.096893     0.69194      2.1714   -0.093769   -0.079802
0.19953     0.12223     0.12937      1.0457      1.8583   -0.094418   -0.079802
0.20505     0.13587     0.14172      1.2928      1.2327    -0.12138   -0.086948
0.17874     0.12353     0.13522      1.3861     0.39474    -0.17302   -0.096042
0.1323    0.091372     0.11736      1.3412    -0.46567    -0.23636   -0.098316
0.070259     0.05207    0.099492      1.2181     -1.1692    -0.28865   -0.089871
-0.0028225    0.012443    0.088773      1.0684     -1.6613    -0.31042   -0.075255
-0.088572   -0.026533    0.080003     0.90534     -2.0043    -0.29872   -0.064536
-0.19836   -0.068758    0.064088     0.71987     -2.2797    -0.26689   -0.063886
-0.34192      -0.123    0.034206       0.512     -2.4915    -0.24253   -0.077528
-0.52284    -0.19283  -0.0041217     0.31192      -2.572    -0.24123    -0.09994
-0.72519    -0.27469   -0.036927     0.15406     -2.4808     -0.2565     -0.1256
-0.92398    -0.35946   -0.053492    0.061489     -2.2404    -0.26916    -0.14899
-1.0887    -0.43319   -0.054467    0.034855     -1.8935    -0.26137    -0.16685
-1.1916    -0.48841   -0.046996    0.048497     -1.4648    -0.22856    -0.18082
-1.2114    -0.52901   -0.041799    0.067336    -0.96198    -0.18569     -0.2029
-1.1435    -0.55662   -0.056091     0.06019    -0.41403    -0.15093    -0.24026
-0.99381    -0.56441   -0.097666    0.012768     0.10339    -0.13632    -0.28638
-0.77716    -0.55272     -0.1636   -0.071032     0.50745    -0.13469    -0.32471
-0.5105    -0.52219    -0.23636     -0.1714     0.77022    -0.13437     -0.3338
-0.21492    -0.47737    -0.29417    -0.26559     0.96575     -0.1269    -0.29775
0.066362    -0.41435    -0.31496    -0.34972       1.212    -0.09994    -0.21525
0.28496    -0.32178    -0.28735    -0.43189      1.5904   -0.040825    -0.10124
0.40481    -0.19673    -0.21785    -0.51862      2.0532    0.053369    0.016666
0.40936   -0.052193    -0.12365    -0.60339      2.4241     0.16543     0.10989
0.30704    0.080978    -0.02361    -0.67128      2.4742     0.26092     0.15861
0.14009     0.17257    0.062139    -0.71513      2.0457     0.29665     0.15698
-0.044398     0.20018     0.11606    -0.74143      1.1652     0.25248     0.11183
-0.23019     0.15861      0.1271    -0.75767     0.01764     0.13555    0.038753
-0.42897    0.054344     0.10112    -0.76287     -1.1267   -0.021661   -0.038551
-0.64302   -0.088247    0.051745    -0.74566     -1.9913    -0.17854    -0.10968
-0.8457    -0.24221   -0.010618    -0.69629     -2.3794    -0.29417    -0.17107
-1.0068     -0.3835   -0.081751    -0.59852     -2.2459    -0.35167    -0.22726
-1.1059    -0.49783    -0.14801    -0.42442      -1.698    -0.36011    -0.27404
-1.1267    -0.56734    -0.19056    -0.15223    -0.94411    -0.33445    -0.29742
-1.061     -0.5813    -0.19641     0.18589    -0.19576    -0.28183    -0.28151
-0.91618    -0.53681    -0.16782     0.50583     0.40221    -0.20908    -0.21622
-0.70376    -0.44878    -0.11456     0.71663     0.79231    -0.12885    -0.10774
-0.42702     -0.3364   -0.056741     0.76665     0.98134   -0.055766     0.01829
-0.084674     -0.2172    -0.01484     0.66011     0.95991  -0.0037969      0.1336
0.31192    -0.10091 -0.00022403     0.44444     0.72442    0.023162     0.21447
0.72799    0.013093  -0.0050961     0.18849     0.34602    0.032582     0.25378
1.1213     0.13425   -0.012892   -0.042449   -0.025884      0.0433     0.25865
1.4341     0.27489  -0.0083442    -0.20843    -0.22921    0.069934     0.24728
1.5868     0.43859    0.016991    -0.30912    -0.19641     0.11476     0.23396
1.5085     0.60749    0.056617    -0.36076    0.039078     0.16705     0.21805
1.1808     0.74651     0.10079    -0.37635     0.36746     0.21252     0.19434
0.6705     0.81829     0.13847    -0.36141     0.64549     0.23948     0.15828
0.1206     0.79978     0.16185    -0.32243     0.76989      0.2476     0.11508
-0.30002     0.68122     0.15633    -0.26624     0.71435     0.24566    0.080328
-0.48744     0.47724     0.11833    -0.18829       0.512      0.2489    0.070909
-0.43417     0.23396    0.056617   -0.070058     0.24176     0.27034    0.093645
-0.20875    0.019589  -0.0021729     0.10566  -0.0028225     0.30477     0.13555
0.093321    -0.11033   -0.030431     0.33011    -0.18277     0.33823     0.17257
0.38013     -0.1295   -0.020687     0.53571    -0.36141     0.35122     0.18979
0.61106   -0.050569    0.018615     0.63705    -0.66835     0.32816     0.18914
0.7962    0.091047    0.070584     0.59125     -1.1712     0.26872     0.18232
0.9664     0.25865      0.1232     0.43599      -1.798     0.18492     0.18394
1.1233     0.42885     0.16738     0.25767     -2.3622    0.095269     0.19758
1.237     0.58605     0.20603     0.12937      -2.652    0.014068     0.21155
1.2681     0.71468     0.24176      0.0865     -2.5545   -0.046996     0.20895
1.1908     0.79133     0.27229     0.11995     -2.1306   -0.081751     0.17452
1.0141     0.78971     0.28788     0.18199     -1.6048   -0.092469     0.10924
0.7647     0.69876     0.27716     0.21512     -1.1926    -0.08305     0.02706
0.48406     0.53668     0.24208     0.19044    -0.93729   -0.053817   -0.046671
0.22     0.35219     0.20018     0.11476    -0.71253  -0.0034721   -0.085648
0.012768     0.19758     0.16803    0.017965    -0.33348    0.064088   -0.081101
-0.13404     0.11054     0.15146   -0.063886     0.30899      0.1271   -0.046022
-0.24188    0.091696     0.14561    -0.11293      1.1515     0.16445   -0.008669
-0.32373     0.12028     0.14334    -0.13989      1.9821     0.16153    0.012443
-0.37213     0.15926     0.13262    -0.17042      2.5784     0.12548    0.014392
-0.36498     0.16835    0.099167    -0.22272      2.8003    0.072533   0.0043233
-0.27956     0.12223    0.036154    -0.29807      2.6457     0.01829   -0.008669
-0.11975    0.021863   -0.044073    -0.37862      2.2234   -0.025234   -0.023285
0.09397    -0.10514    -0.12203    -0.44521      1.6209   -0.052193   -0.034978
0.33887    -0.21492    -0.18082    -0.48354     0.87968    -0.05804   -0.035628
0.58605    -0.28248    -0.21102    -0.48321    0.091372   -0.045372   -0.017764
0.77412    -0.31951    -0.21947    -0.45625    -0.57383   -0.013216    0.014392
0.82219    -0.36011    -0.21557    -0.42897    -0.96685    0.039402    0.049472
0.67992     -0.4241    -0.20518    -0.41955     -1.0822     0.10631    0.075131
0.3811    -0.48711    -0.18082    -0.42117     -1.0523     0.18037    0.088773
0.029009     -0.5027    -0.13372    -0.41435     -1.0484     0.24923    0.095594
-0.28053    -0.43384   -0.056416    -0.38642     -1.1708     0.30087    0.097543
-0.5053    -0.29093    0.042326    -0.35037     -1.3953     0.33011    0.094295
-0.64009    -0.12398     0.14107     -0.3338     -1.5863     0.32848     0.07773
-0.68427   0.0010752     0.20798     -0.3718     -1.5317     0.28496    0.039078
-0.6349    0.047198     0.21772    -0.48256     -1.0581     0.19628    -0.01549
-0.48549     0.01894     0.16185    -0.64529    -0.19543    0.077405   -0.072656
-0.24415    -0.05804    0.054019    -0.79698     0.76372   -0.044398    -0.11943
0.049147    -0.14444   -0.078178    -0.87363      1.4286    -0.14931    -0.14866
0.34732    -0.20745    -0.20128    -0.84797      1.6245    -0.23019    -0.15905
0.62048    -0.22597    -0.28995    -0.73104      1.5212    -0.28735    -0.15873
0.85889    -0.18926    -0.33543    -0.54785      1.4942    -0.31561    -0.15126
1.0476   -0.097341    -0.33575    -0.30457      1.7989    -0.31009    -0.13469
1.1512    0.034855    -0.29937 -0.00054884      2.4008    -0.26007    -0.09994
1.1369     0.18524    -0.23863     0.34537      3.0715    -0.16523   -0.046022
0.99661     0.33465     -0.1688     0.68415      3.5109   -0.038876    0.016991
0.7556     0.46263    -0.10514     0.96023      3.4752    0.094295    0.072208
0.45126     0.54903   -0.051219      1.1421      2.8743     0.21252     0.10664
0.12872     0.57793  -0.0060706      1.2344      1.8405     0.29762     0.12093
-0.15646     0.53733    0.029983      1.2607     0.67927     0.34212     0.12223
-0.34972     0.43404    0.057917       1.248       -0.25     0.34959     0.11768
-0.42182     0.29373    0.081303      1.2181    -0.71188     0.32816     0.11313
-0.38252     0.15309    0.099817       1.183    -0.74468     0.28788     0.11054
-0.28476    0.038428     0.11216      1.1356     -0.5917     0.23526     0.10599
-0.20648   -0.047971     0.11476      1.0577     -0.5524      0.1651    0.096569
-0.22629    -0.11683     0.10794      0.9245    -0.77294    0.076431    0.072533
-0.39454    -0.19186    0.090397     0.72799     -1.1702   -0.029132    0.029009
-0.70441     -0.2958    0.054993     0.47854       -1.57    -0.13892   -0.033354
-1.0968    -0.44001   0.0039985     0.21188     -1.8263    -0.23928    -0.10416
-1.4758    -0.60729   -0.050894   -0.020687     -1.8773    -0.31431     -0.1675
-1.7493    -0.76677   -0.098316    -0.17854     -1.7237    -0.35394    -0.21135
-1.861    -0.88403    -0.12722    -0.24643     -1.4135    -0.36141    -0.22824
-1.8136    -0.93794    -0.12885    -0.24058     -1.0351    -0.34225    -0.21914
-1.6701    -0.92852    -0.10741    -0.19446    -0.68589    -0.30684    -0.19673
-1.5148    -0.86714   -0.073955    -0.14087    -0.41533    -0.27241    -0.17692
-1.4066    -0.77067   -0.039201    -0.10514    -0.21005    -0.24968    -0.17172
-1.3521    -0.65276   -0.011917   -0.097017   -0.037252    -0.23603    -0.18212
-1.3147    -0.52771   0.0017248    -0.11196     0.10144    -0.21785    -0.20063
-1.2325    -0.40039   0.0023744     -0.1321     0.15991    -0.18569    -0.20745
-1.0497    -0.26819  -0.0047713    -0.14574    0.080003    -0.13762    -0.18601
-0.76872    -0.12722   -0.015165    -0.15191    -0.14769     -0.0837    -0.13632
-0.46145    0.022188   -0.026533    -0.15613    -0.44781   -0.035303   -0.074605
-0.22272     0.16445   -0.035303    -0.15938    -0.67452   0.0046481   -0.017114
-0.098965     0.28008   -0.033354    -0.15516    -0.69434    0.040702    0.029009
-0.055441     0.35447  -0.0093186    -0.12852    -0.44131     0.07773    0.056292
-0.021012     0.39767    0.037454    -0.07493    0.064413     0.11898    0.064737
0.071558     0.42203    0.092346  -0.0041217     0.70721     0.15601    0.058566
0.22844     0.42852     0.13944    0.067661      1.3386     0.18589    0.047198
0.40026     0.41001     0.16998     0.12418      1.8258     0.21025    0.037454
0.52174     0.36161     0.17939     0.15373      2.0772     0.22812    0.032582
0.55162     0.28691     0.17127     0.15796      2.0639     0.23461    0.029333
0.49836     0.19499     0.14724     0.14107      1.8135     0.22487    0.020239
0.41423     0.10079     0.11054     0.10826      1.3968     0.20083    0.003024
0.37688    0.033881     0.06896    0.067986      0.8956     0.16998   -0.019712
0.42787     0.01894    0.033231    0.025761     0.36194     0.14009   -0.044723
0.54155    0.064413    0.013418   -0.010943    -0.20388     0.11021   -0.067784
0.64777     0.14984    0.012443   -0.039201    -0.82751    0.084226   -0.078503
0.6809     0.23039    0.023162   -0.059014     -1.5294    0.065062   -0.067459
0.61106     0.27002    0.031607   -0.073306      -2.306    0.054668   -0.030431
0.4571      0.2593    0.029658   -0.088247     -3.0875    0.045249    0.024137
0.27326     0.21577    0.016991    -0.10449     -3.7495    0.020239    0.081952
0.10566     0.16608   0.0039985    -0.11813     -4.1097   -0.025234     0.12743
-0.01484     0.13295  0.00042559     -0.1243     -4.0265     -0.0837     0.14821
-0.080776     0.12158     0.01017    -0.12398     -3.4994    -0.13892     0.14496
-0.10059     0.12418    0.027709      -0.123     -2.6419    -0.17497     0.12288
-0.085973      0.1284    0.046548     -0.1191     -1.6168    -0.17984    0.097868
-0.050569     0.12353    0.061489   -0.095068    -0.57806    -0.15288    0.079354
-0.010943     0.11054    0.073507   -0.038227     0.35512    -0.10709    0.068635
0.015367     0.09462    0.084226    0.039727       1.095   -0.064211    0.063438
0.016666    0.078704    0.091696     0.11508      1.5975   -0.046022    0.056617
-0.0047713    0.056292    0.092346     0.16608       1.845   -0.060963    0.038103
-0.041799    0.017965    0.078704     0.18102      1.8661    -0.09929   0.0078962
-0.078827   -0.035303    0.053369      0.1651      1.7206    -0.14444    -0.02426
-0.096042   -0.095068    0.022837     0.12807      1.4877    -0.18082   -0.045047
-0.082076    -0.14119  -0.0015233    0.074482      1.2438    -0.19738   -0.043099
-0.038227    -0.15223    -0.01484   0.0091954      1.0109    -0.19381   -0.020362
0.028684    -0.11878    -0.01484   -0.059339     0.76048    -0.17302    0.016016
0.11216    -0.04862  -0.0024977    -0.11326     0.44931    -0.14411    0.059865
0.20018    0.035505    0.016991    -0.13469    0.080328     -0.1204     0.10371
0.27391    0.099492    0.036154    -0.12073    -0.26137    -0.11651     0.13165
0.31354     0.11216    0.044924    -0.09182    -0.45723    -0.13859     0.13197
0.30769    0.054019    0.035505   -0.073306    -0.45301    -0.18212    0.099167
0.27229   -0.067459   0.0056225   -0.080451    -0.27534    -0.23668    0.038103
0.24403    -0.21687   -0.034329    -0.10871    0.016666    -0.28833   -0.034329
0.2476     -0.3377    -0.07428    -0.14087     0.36778    -0.32633    -0.10059
0.27781    -0.37733    -0.10091    -0.15613     0.71078    -0.34452    -0.14152
0.31776    -0.32081    -0.11196    -0.15418     0.93197    -0.33835    -0.14769
0.35252    -0.20096    -0.11358    -0.14964      0.9375    -0.30457    -0.12203
0.35576   -0.081426    -0.10903    -0.15029     0.78256     -0.2474   -0.077853
0.29957   -0.013216    -0.09994    -0.15808     0.61724    -0.17562   -0.035303
0.16413   -0.007045   -0.085973    -0.17042     0.51687    -0.10384   -0.012242
-0.027508   -0.035953   -0.070382    -0.18601     0.36226   -0.044073    -0.01614
-0.21752   -0.063561   -0.055116    -0.18829    -0.07493  -0.0060706    -0.04115
-0.34614   -0.057065   -0.044073    -0.14834    -0.85512    0.016991   -0.075579
-0.38642  -0.0021729   -0.037577   -0.040825     -1.7425    0.036479   -0.096692
-0.32243    0.092021    -0.03303      0.1258     -2.3879    0.066037   -0.078178
-0.14541     0.19304   -0.028157      0.2999      -2.522     0.11736  -0.0021729
0.13944     0.27359   -0.023935     0.41196     -2.0355     0.19044     0.12548
0.48796     0.32913   -0.021012     0.42203    -0.98147     0.27456     0.27326
0.84428     0.36973   -0.020687     0.33595     0.42722     0.35024     0.39279
1.174     0.40871    -0.01614     0.19921      1.8034     0.39572     0.45256
1.4582     0.45418  -0.0018481    0.061489      2.8194     0.39799     0.45158
1.6631     0.49088    0.017965   -0.042449      3.2862     0.36096     0.40449
1.7164     0.47984    0.036804    -0.10156      3.1546     0.29568      0.3314
1.5576      0.3889    0.045249      -0.123      2.5476     0.21902     0.24858
1.1954     0.22259     0.04395     -0.1191      1.7138     0.14984     0.16803
0.71987    0.032257    0.038753   -0.095393     0.91768     0.10729     0.10242
0.25345    -0.12268    0.031932   -0.054142     0.33238    0.099817    0.063113
-0.10254    -0.20583    0.024786  -0.0018481   -0.035303      0.1258    0.049147
-0.30327    -0.21849    0.013093    0.049796    -0.35361      0.1703     0.05207
-0.35004    -0.18666  -0.0044465    0.082927    -0.84212     0.20798    0.056292
-0.26592    -0.14281   -0.030106    0.084551     -1.6122     0.21252    0.051745
-0.089546   -0.097991   -0.060963    0.050121       -2.55     0.16933     0.03518
0.15211    -0.04927   -0.089546   -0.018088     -3.3217    0.089098    0.011794
0.43307    0.012443    -0.10676    -0.10221     -3.5708   0.0026992  -0.0096434
0.70461      0.0852    -0.11163    -0.17627     -3.1424   -0.057065   -0.021337
0.89917     0.15471    -0.10416    -0.22369     -2.1755   -0.075579   -0.027833
0.95763     0.20051   -0.089221    -0.23863     -1.0003   -0.054467   -0.031406
0.85889     0.21675   -0.078503    -0.23019    0.042001  -0.0050961   -0.035628
0.6286     0.20246   -0.078178    -0.20713     0.72864    0.058566   -0.037577
0.32718     0.16575   -0.080127    -0.16523      1.0288     0.12385   -0.033679
0.029983     0.12548   -0.069083   -0.092145      1.0382     0.18297   -0.017764
-0.21167     0.10696   -0.036602   0.0043233     0.91671     0.22649   0.0069217
-0.38545     0.12028    0.013418     0.10079     0.81342     0.25085    0.026085
-0.5001     0.16088    0.067661      0.1703     0.79653     0.25085    0.032582
-0.57026     0.20765     0.11086     0.19791     0.79913     0.22584    0.028684
-0.60372     0.24208     0.13392     0.18687     0.68934     0.17647    0.017316
-0.61054     0.24501     0.13327     0.15309     0.38337     0.11313   0.0026992
-0.60631      0.2096     0.11476     0.12093    -0.10676    0.048497   -0.011267
-0.60664     0.14302    0.089098     0.10209    -0.67582  -0.0096434   -0.020687
-0.60989    0.064088    0.070584    0.096893     -1.1861   -0.057065   -0.023285
-0.59852  -0.0041217    0.067011     0.10306     -1.5112   -0.091495   -0.019712
-0.5524   -0.044398    0.076755     0.11508     -1.5398    -0.11358    -0.01484
-0.46178   -0.056416    0.093321     0.12483     -1.2049    -0.12333   -0.014191
-0.3338   -0.053817     0.11118     0.12872    -0.50887    -0.12138   -0.024585
-0.20908   -0.056091      0.1258     0.12548     0.48244    -0.10319   -0.046347
-0.14541   -0.087922     0.12645     0.10859      1.6215   -0.070058   -0.077203
-0.18244     -0.1636     0.10599    0.074806      2.7538   -0.020362    -0.11326
-0.31464    -0.28443    0.065387    0.031932      3.7578    0.040052    -0.14736
-0.49231    -0.42897     0.01829  -0.0044465      4.5747    0.099492    -0.17594
-0.65179    -0.56052   -0.021986   -0.016789      4.9589     0.15114    -0.19738
-0.74501    -0.63847   -0.043748  -0.0024977      4.9589     0.18394     -0.2146
-0.75735    -0.63327   -0.042124    0.033231      4.9589     0.19206    -0.22207
-0.70376    -0.53811   -0.018738    0.082277      4.5727     0.16738    -0.21395
-0.63035    -0.38512    0.017316     0.12223      3.2488    0.099492    -0.19478
-0.59722    -0.24318    0.044599     0.12678      1.4215   -0.026533    -0.17432
-0.62418    -0.18959     0.03583    0.080978    -0.69141    -0.22174    -0.16555
-0.68622    -0.26819   -0.028157  -0.0089938     -2.6757    -0.47249    -0.17692
-0.74338    -0.45528    -0.13957     -0.1204     -4.1961    -0.73429    -0.20453
-0.77294    -0.66608    -0.25975    -0.21622     -4.9691    -0.95029    -0.23603
-0.75767    -0.79373      -0.339    -0.26429     -4.9691     -1.0724     -0.2539
-0.68752    -0.77197    -0.35037    -0.25845     -4.5112     -1.0838    -0.24221
-0.54817    -0.60404    -0.29385    -0.21882     -3.6199    -0.99316    -0.18926
-0.32536    -0.33478    -0.19316    -0.17205     -2.6854    -0.82816   -0.092794
-0.022636   -0.016789   -0.080451    -0.13534     -1.8714    -0.62191    0.041676
0.33335     0.30185    0.016991    -0.10644      -1.226    -0.41111     0.18946
0.69681     0.58183    0.083251   -0.078503    -0.75443    -0.22661     0.31646
1.0005     0.78971     0.11248   -0.044723    -0.44489     -0.0824     0.39702
1.1801     0.91151     0.11573  0.00075039    -0.26916    0.021538     0.42462
1.1944     0.95601     0.10501    0.057917    -0.21362    0.097543     0.41391
1.0486     0.94432    0.093645     0.11508    -0.27111     0.15568     0.38337
0.80432     0.89852    0.088773     0.15081      -0.428     0.20116     0.35154
0.5448     0.83518    0.088448     0.15796    -0.65309     0.23266     0.32751
0.32588     0.75788    0.095919     0.14464    -0.89182     0.24371     0.30574
0.15503     0.66368     0.11508      0.1258     -1.0552     0.23104     0.27294
0.019914     0.55325     0.14789     0.11508     -1.0341     0.19726     0.22129
-0.097017      0.4282     0.18914     0.11898    -0.76547     0.15601     0.15601
-0.21557     0.28821     0.22357     0.12775    -0.27436     0.11995    0.086175
-0.35589     0.13555     0.22909     0.13327     0.33563    0.093645    0.020564
-0.53193   -0.024909     0.19693     0.12093     0.93392    0.080328   -0.034978
-0.72714    -0.18342     0.13165    0.087149      1.4111    0.080328   -0.079477
-0.89604    -0.32568    0.051096    0.028684      1.7047    0.091047    -0.11001
-0.97822     -0.4267   -0.028157   -0.052193      1.7992     0.10664    -0.11975
-0.92657    -0.45918   -0.090521    -0.14249      1.7151     0.12678    -0.10838
-0.73007    -0.40623     -0.1269    -0.21492      1.5007     0.15211   -0.075904
-0.42345    -0.28735    -0.13892    -0.25357      1.2155      0.1781    -0.03238
-0.070058    -0.15321    -0.13404    -0.25877     0.91119     0.19726   0.0072465
0.27132   -0.045372    -0.12365    -0.23701     0.61334      0.2096    0.036154
0.55195    0.024137    -0.10676    -0.18926     0.31257     0.22649    0.062139
0.74553    0.067336   -0.078178    -0.12333   -0.022311     0.25443    0.089423
0.84655    0.098842   -0.039851   -0.058689    -0.41598     0.28658     0.11476
0.85727     0.12483  -0.0034721   -0.012567    -0.82978     0.30574     0.12548
0.78743     0.13652    0.016666    0.014392     -1.1767     0.29373     0.11151
0.64582     0.11638    0.015042    0.047847      -1.342     0.24143    0.075781
0.44509    0.046223  -0.0018481     0.12353      -1.214     0.15601    0.031282
0.2174   -0.063237   -0.019388     0.26774    -0.73949    0.063113  -0.0089938
0.017316     -0.1727   -0.017114     0.47594     0.01894  -0.0018481   -0.033679
-0.11261    -0.23701    0.013093     0.70104     0.89072   -0.015165   -0.042124
-0.17107    -0.23896    0.063763     0.87188      1.6781    0.017316   -0.040175
-0.19738    -0.19478     0.11508      0.9245      2.2461    0.073182   -0.035628
-0.23279    -0.13957     0.14529      0.8368      2.5274     0.13132   -0.034004
-0.28898    -0.10319     0.14432      0.6338      2.5109     0.17517   -0.034329
-0.34809    -0.10091     0.11963      0.3733      2.2133     0.19791   -0.037252
-0.39519     -0.1269    0.082602      0.1219      1.6839     0.19076   -0.048945
-0.42247    -0.16165    0.046548   -0.067784      1.0119     0.15244   -0.076554
-0.4254    -0.17822    0.020239     -0.1662      0.2619    0.089748    -0.12203
-0.39324    -0.15711    0.009845    -0.17172    -0.53973    0.016666    -0.17627
-0.31009   -0.087922    0.012443    -0.10611     -1.3176   -0.043423    -0.22694
-0.17692    0.016991     0.01764  -0.0063954     -1.9543   -0.072331    -0.26137
-0.019388     0.12548    0.014717    0.087149     -2.3457    -0.06551    -0.27209
0.13587     0.20343      0.0014     0.14756     -2.4632   -0.031081    -0.25942
0.2921     0.23689   -0.017439     0.16738     -2.3405   0.0039985    -0.22239
0.46523     0.23656   -0.036278     0.14886     -2.0319    0.017965    -0.16263
0.65069     0.22324   -0.051544     0.10079     -1.5772   0.0049729   -0.094093
0.80075     0.20798   -0.059989    0.035505     -1.0149    -0.02426   -0.037902
0.86409     0.19369   -0.052518    -0.03173    -0.46275   -0.056091  -0.0099683
0.82544     0.18589   -0.018738   -0.083375    -0.11228   -0.084999   -0.013866
0.70233     0.19109    0.038428    -0.10968   -0.096042    -0.11098   -0.043748
0.53181     0.19986    0.098517    -0.11163    -0.36953    -0.14054     -0.0837
0.35284     0.18199       0.131    -0.10546    -0.68362     -0.1753    -0.12755
0.20473     0.10599     0.11638    -0.11001    -0.73007    -0.21655    -0.17335
0.10924   -0.030756    0.049796    -0.13697    -0.35167    -0.26267    -0.22012
0.063113    -0.20128   -0.052518    -0.18049     0.38013    -0.30619    -0.26169
0.038103    -0.35816    -0.16035    -0.21947      1.2383    -0.33802    -0.28573
-0.023285    -0.45885    -0.24026    -0.23279      1.9853     -0.3442    -0.28378
-0.19348    -0.48516    -0.26722     -0.2055       2.442    -0.31334    -0.24708
-0.49393    -0.43969    -0.23246    -0.14346      2.5398     -0.2435    -0.16555
-0.87233    -0.36011    -0.15353   -0.073631      2.3007    -0.14541   -0.046347
-1.2329    -0.29645   -0.068109   -0.026858      1.7943   -0.038876    0.081952
-1.4807    -0.28411   -0.011267   -0.021986      1.1308    0.045249     0.18362
-1.5434    -0.31691  0.00075039   -0.059339     0.46977    0.092996     0.24111
-1.3953    -0.36336   -0.031081    -0.12365   -0.021012     0.11021     0.24793
-1.075    -0.39292   -0.096042    -0.20096    -0.27469     0.10469     0.21415
-0.66673    -0.38739    -0.16912    -0.27664    -0.34679    0.083901     0.15276
-0.25585    -0.33478    -0.21785    -0.33055    -0.35264    0.054344    0.081303
0.10859    -0.21947    -0.22272    -0.34907    -0.39811    0.032582    0.017965
0.41618   -0.032055    -0.18309    -0.32893    -0.52739    0.033231   -0.014516
0.65426     0.20213    -0.11098    -0.28346     -0.7135    0.064088  -0.0073698
0.79328     0.41878   -0.030431    -0.23733    -0.90319     0.11703     0.03453
0.80497     0.54968    0.032906    -0.21102     -1.0721     0.17517    0.097543
0.70039     0.56851    0.067986    -0.20908     -1.2319     0.22649     0.16673
0.53928     0.49998    0.080328    -0.21947     -1.3768     0.26807     0.22909
0.37265     0.39214    0.083901    -0.21882     -1.4502     0.30574     0.27424
0.21707     0.28398    0.090722    -0.19446     -1.3823     0.33887     0.29438
0.069285     0.20311     0.10501    -0.14931     -1.1341     0.36096     0.28756
-0.063237     0.15179      0.1206    -0.10254    -0.70863     0.35836      0.2567
-0.13664     0.12125      0.1258   -0.071682    -0.15581     0.32621     0.20863
-0.095717     0.10664     0.11443    -0.06616     0.41943     0.27132     0.15536
0.091047     0.11866    0.090397   -0.076879     0.90664      0.2096     0.11216
0.39669     0.16965    0.065387     -0.0824      1.2681     0.15666      0.0865
0.74066     0.25767    0.050771   -0.067134       1.503     0.11866     0.07708
1.0164     0.36031    0.053044   -0.030756      1.5897    0.095919    0.074482
1.1314     0.44021    0.070259     0.01894      1.5309    0.081303    0.066686
1.0434     0.46652    0.093645    0.069285      1.4068    0.067986    0.044599
0.78484     0.43664     0.11411     0.10891      1.3334    0.059216    0.013093
0.44476     0.37688      0.1245     0.13262      1.3987    0.061165   -0.019063
0.12223     0.31386     0.12125     0.13782       1.605      0.0865   -0.045372
-0.11391     0.26027     0.10534     0.12807      1.8362     0.13977   -0.066485
-0.2435     0.21317    0.080328     0.10891      1.9152     0.21058   -0.076879
-0.28086      0.1664    0.053369    0.087149      1.7141     0.27944   -0.075904
-0.26397     0.11086    0.034206    0.075131      1.2626     0.32653   -0.064861
-0.23766    0.036479    0.026735    0.076106     0.75398     0.34764   -0.053492
-0.25033    -0.05804    0.027709    0.088124     0.40156     0.34342   -0.050894
-0.34777    -0.16198    0.031282     0.10891     0.23006     0.31679   -0.058689
-0.56019    -0.27404    0.032257     0.13165    0.034855     0.27164   -0.081426
-0.86876    -0.39779     0.02641     0.15438    -0.43904     0.20311    -0.11391
-1.1932    -0.52544    0.013418      0.1716     -1.2413     0.11118    -0.14671
-1.4239    -0.63068  -0.0015233      0.1755     -2.1517   0.0062721    -0.16847
-1.4891    -0.68297   -0.017764     0.16738     -2.8579    -0.10254    -0.17205
-1.3784    -0.67063   -0.035628     0.14854     -3.1651    -0.20355     -0.1636
-1.1351    -0.60437   -0.053168      0.1232      -3.096    -0.29353    -0.15386
-0.834    -0.50822   -0.069083    0.094945     -2.7962    -0.37895    -0.14866
-0.54947    -0.40331   -0.084349    0.059541     -2.3801    -0.46145    -0.14899
-0.3338    -0.31171   -0.098316    0.008221     -1.9176    -0.53713    -0.15093
-0.19966    -0.24091    -0.10644   -0.058365     -1.4895      -0.593    -0.14801
-0.13275    -0.19219    -0.10124      -0.123     -1.1702    -0.61801    -0.13307
-0.10838    -0.16068   -0.075904    -0.16068    -0.94541    -0.60047    -0.10579
-0.10903    -0.14249   -0.030756    -0.15451    -0.72747     -0.5446   -0.075579
-0.1295    -0.13534    0.032582    -0.10416     -0.4582    -0.46567   -0.054142
-0.17789    -0.14769     0.10436   -0.030431      -0.161     -0.3848   -0.047321
-0.26299    -0.18666      0.1677    0.030308    0.059865    -0.32211   -0.055116
-0.38545    -0.24903     0.20181    0.049796    0.082927    -0.28768   -0.077203
-0.52544    -0.32568     0.18751    0.028359    -0.11131    -0.27891    -0.11098
-0.66153    -0.41078      0.1232  -0.0047713    -0.40039     -0.2854    -0.15386
-0.76969    -0.50043    0.020564    -0.01549    -0.61573     -0.2945    -0.19381
-0.81582    -0.58228   -0.093769   0.0088706    -0.64139    -0.29385    -0.21655
-0.77067    -0.63425    -0.18991    0.059541    -0.46307    -0.27371    -0.21102
-0.63197    -0.63197    -0.25065     0.11118    -0.18861    -0.23766    -0.17887
-0.42832    -0.56182    -0.26851     0.14204   0.0026992    -0.19251    -0.12852
-0.18829    -0.41988       -0.25     0.14302   -0.033354    -0.15353   -0.077528
0.06019    -0.21752    -0.21037     0.11833    -0.28411    -0.13502   -0.038227
0.30932    0.028359     -0.1636    0.080003    -0.56149    -0.14444   -0.013541
0.57501     0.29925    -0.11358    0.046223    -0.62256    -0.17562   0.0088706
0.86344     0.57079   -0.062262    0.030308    -0.31691     -0.2172    0.040377
1.1535      0.8105   -0.008669    0.036154     0.31646    -0.25487    0.088448
1.4075     0.98297    0.042651    0.062464      1.0934    -0.27209     0.14854
1.591      1.0573    0.084226    0.095594      1.8119    -0.26169     0.20376
1.694      1.0236     0.10664     0.11443      2.3176    -0.22791     0.23396
1.7346     0.89462    0.097543     0.10469      2.5174    -0.17724     0.22877
1.7352     0.69876    0.051745    0.070909      2.3839    -0.11163      0.2044
1.7066     0.46977   -0.017764    0.025436      1.9457   -0.033679     0.18589
1.6414     0.24566   -0.090521   -0.023285      1.2516    0.039078     0.17939
1.5286    0.062789    -0.14606    -0.07493     0.35187    0.084551     0.18264
1.3789   -0.044723      -0.174     -0.1269    -0.64074    0.096569     0.19141
1.2175   -0.056416     -0.1688    -0.16588     -1.4917    0.089098     0.20473
1.0622    0.025436    -0.12592    -0.17172     -1.9539    0.091696     0.22747
0.90599     0.17777   -0.048296    -0.13957     -1.9104     0.12905     0.26709
0.73514     0.35966    0.048497   -0.078178     -1.4459     0.20083     0.32004
0.55422     0.52531     0.13944  -0.0093186    -0.79081     0.28301     0.37006
0.38402     0.63542     0.20116     0.05272    -0.18342     0.34894     0.39604
0.24046      0.6744     0.22552     0.10047     0.23006     0.37948     0.38987
0.1245     0.64387      0.2161     0.13295     0.41975     0.36908     0.35349
0.025761     0.56104     0.18751     0.15179     0.44509     0.32686     0.29762
-0.061613     0.45158     0.15081     0.15861     0.40871     0.27586     0.24143
-0.12787      0.3418     0.11703     0.15244     0.38272     0.24371     0.20051
-0.16035     0.25085    0.092996     0.13197     0.36389     0.24436     0.17842
-0.14606     0.18622    0.080653    0.092671     0.31029     0.27651     0.16738
-0.0824     0.15373    0.075456    0.027385     0.16965     0.32134     0.16153
0.022188     0.14724    0.073182   -0.061613   -0.077203     0.35836     0.15244
0.13262     0.15179    0.067011    -0.16588    -0.36498     0.37168     0.13879
0.20213     0.14919    0.052395    -0.26981    -0.58683     0.35512     0.11476
0.19856     0.12678    0.032582    -0.35102    -0.64497     0.31744    0.082277
0.11898    0.086824    0.014717    -0.39519    -0.49068     0.27619    0.044599
-0.013541    0.044599   0.0056225    -0.39584    -0.16198     0.24468   0.0085458
-0.16847    0.014717   0.0056225    -0.35751     0.23786     0.23006   -0.018413
-0.31496 -0.00087364   0.0095202    -0.29158     0.57923     0.22389   -0.029782
-0.42475   -0.014191    0.015367    -0.20908     0.72832     0.20928   -0.031081
-0.47607   -0.031081    0.019264    -0.11098     0.62438     0.17095   -0.029132
-0.4634   -0.046671    0.023487    0.028034     0.36129     0.11118   -0.029132
-0.38902   -0.050569    0.033881     0.24013     0.15438    0.038428   -0.029782
-0.25455   -0.039851    0.054668     0.52499     0.17615   -0.040175   -0.028157
-0.086298   -0.026533     0.07773     0.82446     0.42105    -0.11391   -0.022311
0.046223   -0.030756    0.093645      1.0593       0.753    -0.17984   -0.018088
0.06961   -0.068758    0.092996      1.1662      1.0171    -0.23961   -0.025234
-0.030106    -0.13729    0.074482      1.1262       1.123     -0.2893   -0.051868
-0.19511     -0.2146    0.044275     0.96933      1.0531    -0.32373   -0.092794
-0.34095    -0.27404    0.009845     0.74683     0.80692    -0.33737    -0.12852
-0.41176     -0.2984   -0.019063     0.51492     0.36486    -0.33185    -0.14509
-0.40591    -0.28898   -0.037902     0.31419    -0.30457    -0.31561    -0.13729
-0.35589    -0.25942   -0.042449     0.16056     -1.1474    -0.29255    -0.11261
-0.30977    -0.22856   -0.033354    0.056942     -2.0273    -0.26559   -0.081751
-0.29612    -0.20745   -0.016789  -0.0063954     -2.7663    -0.23961   -0.056091
-0.31464    -0.19998 -0.00054884   -0.039201      -3.133    -0.21687   -0.042449
-0.34549    -0.19901    0.012119   -0.052193     -2.9206    -0.19836   -0.041475
-0.36661    -0.19316    0.021863   -0.060313     -2.0767    -0.18342   -0.047321
-0.36466    -0.17724    0.027385   -0.076229    -0.77554    -0.16945   -0.062262
-0.34257    -0.15483    0.027709    -0.11683     0.62893    -0.15191   -0.085648
-0.31204    -0.13275    0.023812    -0.19186      1.7083    -0.12657    -0.11456
-0.28833    -0.11845    0.013093    -0.29677      2.2565   -0.097017    -0.14346
-0.27599    -0.11163  -0.0047713    -0.40623      2.3062   -0.067459    -0.16653
-0.26657    -0.11326   -0.023935    -0.48419      2.0753   -0.037902    -0.18017
-0.2448    -0.12463   -0.041475     -0.5027      1.8291  -0.0080194    -0.18407
-0.19673    -0.15126   -0.056091    -0.45885       1.732    0.021213    -0.17724
-0.12268    -0.17984    -0.06681     -0.3718      1.8077    0.048497    -0.16393
-0.03238    -0.18666   -0.071357    -0.27404       1.985     0.07708    -0.14119
0.063113    -0.15029   -0.067459    -0.18991      2.1578     0.10924    -0.10514
0.16348    -0.06681   -0.048945    -0.13112      2.2263     0.14951   -0.057715
0.26352    0.044924   -0.018088    -0.09117      2.0919     0.19499  -0.0063954
0.34277     0.14691    0.016666   -0.057065      1.6446     0.23299    0.037454
0.3733      0.2135    0.047523   -0.028482     0.85142      0.2463    0.064088
0.3366     0.23461    0.062139  -0.0083442    -0.12755     0.22552    0.070259
0.23656     0.21675    0.057917  -0.0031473    -0.98277     0.17485    0.062464
0.095919     0.17322    0.032906   -0.022961     -1.4573     0.10859    0.047198
-0.059664     0.11671  -0.0073698   -0.069408     -1.4521    0.041027    0.026735
-0.20875    0.054668   -0.051868    -0.13762     -1.0334   -0.010293   0.0065969
-0.32828  -0.0060706   -0.086948    -0.21362    -0.39389     -0.0405   -0.011917
-0.39876   -0.059664    -0.10449    -0.27826     0.26384   -0.050894   -0.032055
-0.41533    -0.10156    -0.10286    -0.31042     0.78971   -0.050569   -0.057715
-0.38577    -0.12755   -0.085648    -0.29353      1.1165   -0.048296   -0.087922
-0.31691    -0.12852   -0.058365    -0.22986      1.2444   -0.051219    -0.11521
-0.21557    -0.11066   -0.032705    -0.13664      1.2217   -0.060963    -0.13112
-0.085973   -0.078178   -0.019388   -0.039851      1.0973   -0.072981     -0.1243
0.071558   -0.032055  -0.0093186    0.038428     0.87676   -0.077528   -0.088247
0.25443    0.028034   0.0046481    0.087799     0.51914   -0.061937   -0.026858
0.44769    0.089748    0.023487     0.10177   -0.011267   -0.023935     0.05207
0.63802     0.12807    0.036804    0.079679    -0.67745    0.028359     0.13132
0.81147     0.13067    0.035505    0.030308     -1.3323    0.079354     0.19174
0.94042     0.10989     0.01829   -0.026858     -1.7649     0.11801     0.21902
0.98849    0.087799  -0.0041217   -0.072656     -1.8331     0.13944     0.20895
0.92255    0.081303   -0.022636   -0.096692     -1.5687     0.14951      0.1742
0.72052     0.08585   -0.033354    -0.10026     -1.1676     0.15438     0.13197
0.37558    0.084876   -0.032055   -0.086623    -0.85512     0.15958    0.094945
-0.082725    0.059865   -0.018088   -0.065186    -0.69109     0.16575    0.067661
-0.5852  -0.0011985      0.0014   -0.040175    -0.56084     0.16543    0.046873
-1.0425    -0.10189     0.01894   -0.013541    -0.35232     0.15406    0.029983
-1.3774    -0.22986    0.025761     0.01829   -0.061288     0.13262    0.017965
-1.5502    -0.36044    0.018615    0.059216     0.22324     0.10404   0.0039985
-1.5694    -0.46048  0.00010078    0.099167     0.34375    0.079679   -0.021661
-1.4745    -0.50855   -0.019712     0.12483    0.084876    0.061814   -0.059339
-1.3072    -0.50497    -0.03303     0.11313    -0.68784    0.047198    -0.10026
-1.1007     -0.4699   -0.040825    0.047847     -1.8191    0.026735    -0.13534
-0.87688    -0.42247   -0.051219   -0.072006     -2.8744  -0.0047713    -0.15418
-0.64302    -0.36888   -0.070707    -0.22986      -3.386   -0.047971    -0.15581
-0.39909     -0.2958    -0.09994    -0.39259     -3.1171    -0.10059    -0.14249
-0.15386    -0.18407    -0.12722    -0.51862     -2.1898    -0.15158    -0.11943
0.070584   -0.032055    -0.13827    -0.57286     -1.0062    -0.18894    -0.09182
0.25832     0.13522    -0.12885    -0.54038   -0.017439    -0.20518   -0.060963
0.4282     0.28333    -0.10806    -0.43839     0.51167     -0.2016   -0.022636
0.61204     0.38207   -0.086298      -0.301     0.60132    -0.17984    0.025761
0.8066     0.41423   -0.068434    -0.15613     0.43567    -0.14314    0.079029
0.97192     0.37818   -0.049595  -0.0015233      0.2148   -0.095717     0.12515
1.0674      0.2947   -0.022961     0.18427    0.084226   -0.043748     0.15081
1.0733     0.19953    0.018615     0.41293     0.13197   0.0043233     0.15471
1.0008     0.12288     0.06961     0.65686     0.38954    0.042326     0.14367
0.89527    0.083576     0.11476     0.83063     0.81244    0.064737     0.12807
0.81764    0.086175     0.13879      0.8498      1.2935     0.06831     0.11313
0.80725     0.12678     0.13814     0.69649      1.7057    0.056292     0.10242
0.85954     0.20278     0.11638     0.44119      1.9386    0.029333    0.097543
0.9271     0.30087    0.085525     0.18946      1.9548  -0.0063954    0.093645
0.94529     0.40124    0.059541    0.022837      1.8073   -0.034004    0.088773
0.87253     0.48244    0.045249   -0.028807      1.5956   -0.035953    0.084226
0.69259     0.52824    0.042975    0.015692      1.4052  -0.0028225    0.082277
0.40416     0.52824    0.047523     0.10631      1.2542    0.055968    0.083251
0.016341     0.47497    0.054993     0.18362      1.0564     0.11248    0.079029
-0.43839     0.36616    0.058241     0.20343     0.69064     0.13165    0.056292
-0.89929      0.2109    0.046873     0.15991     0.13035     0.10274    0.009845
-1.2952    0.032257    0.022512    0.081303    -0.48061    0.036154   -0.050894
-1.5716    -0.13275  -0.0018481   0.0049729     -0.8902     -0.0405    -0.11456
-1.6983    -0.25292   -0.014516    -0.04115    -0.92722   -0.097991     -0.1714
-1.6811    -0.32698   -0.018413   -0.055441    -0.61768    -0.12105     -0.2133
-1.5577    -0.39162   -0.025884   -0.052518    -0.15418    -0.10936    -0.23733
-1.3888    -0.49361    -0.04862   -0.056741     0.20505   -0.072656    -0.24383
-1.2358    -0.65893    -0.09994   -0.084999      0.2593   -0.026209    -0.23733
-1.1163    -0.87233    -0.17692    -0.14314   -0.068109    0.012119    -0.22532
-1.0094     -1.0714    -0.26851    -0.21785     -0.6768    0.031932    -0.21427
-0.88175      -1.176    -0.34907    -0.28508     -1.3381    0.033556    -0.21102
-0.71805     -1.1254    -0.39064    -0.31983     -1.8065    0.025436    -0.21427
-0.54558    -0.90644    -0.37635    -0.30912     -1.9325    0.022837    -0.21135
-0.40363    -0.56312    -0.30262    -0.24838      -1.699    0.048172    -0.18179
-0.30294    -0.18017    -0.18212    -0.14931     -1.1988     0.11963    -0.11098
-0.2094     0.15536   -0.038551   -0.034978    -0.59137     0.22974  -0.0060706
-0.079152     0.39409     0.10144    0.066037   -0.056741     0.34635     0.10924
0.11541     0.53538     0.21837     0.13425     0.27067     0.42885     0.20765
0.37168     0.60099     0.29568     0.15763      0.3772     0.44736     0.26839
0.64874     0.60911     0.32393     0.14172     0.39702      0.3876     0.28008
0.88293     0.56689     0.30087     0.10079     0.51914     0.25832     0.24923
1.0167     0.48341     0.23169    0.050121     0.78873    0.094945     0.19271
1.018     0.37038     0.14204   0.0059473       1.057   -0.061613      0.1336
0.89949     0.24598    0.056942   -0.014516      1.1824    -0.18407    0.096244
0.71728     0.13165  -0.0031473  -0.0034721       1.209    -0.26072    0.088448
0.53538    0.038428   -0.031081    0.039727      1.3013    -0.29255     0.10047
0.39702   -0.022961    -0.03303     0.10989      1.5468    -0.29482     0.11541
0.31257   -0.047646   -0.021337     0.18816      1.8408    -0.28605     0.11995
0.28333   -0.025559  -0.0080194     0.25572      1.9912    -0.28605     0.10924
0.30672    0.050121   0.0049729     0.30087      1.8703    -0.30165    0.090072
0.36941     0.17192    0.021538     0.32231      1.4906    -0.33023    0.070909
0.45093     0.31809    0.040702     0.32393     0.96088    -0.36206    0.054993
0.52369     0.45028    0.056292      0.3051     0.39572     -0.3809    0.044275
0.56234     0.53279    0.065712     0.27326    -0.12235    -0.36173    0.042975
0.55487     0.54903    0.069285     0.23818    -0.58845     -0.2958    0.055318
0.52531     0.50745    0.069934     0.20213     -1.0809     -0.2055    0.072208
0.52077     0.43437     0.06961     0.16608     -1.6509      -0.123    0.083251
0.56754     0.35284    0.067011     0.13392     -2.2154   -0.073631    0.087149
0.63542     0.27651    0.060515     0.10826     -2.5932   -0.063886    0.083251
0.66173     0.20733     0.05272    0.085525     -2.6507   -0.078178    0.074482
0.60099     0.14789    0.048822    0.066362     -2.3866   -0.094418    0.063438
0.45191    0.096893    0.053694    0.051096     -1.9198   -0.084024    0.054993
0.25248    0.056942    0.062139      0.0433     -1.4265   -0.030431    0.050771
0.055968    0.033556    0.071234     0.04395     -1.0822    0.061165    0.052395
-0.092145    0.031932    0.078704     0.05142    -0.96003     0.16608    0.057917
-0.1675    0.049472    0.089098    0.065387    -0.97432     0.25572    0.061814
-0.16425    0.075131     0.10047      0.0865    -0.95288     0.30964    0.058566
-0.10514    0.093321     0.11573     0.11573    -0.77262     0.32621    0.050121
-0.029132    0.092021      0.1323     0.14756    -0.40786     0.31289    0.041027
0.025111    0.066037     0.14854     0.16738    0.083576     0.27716    0.029333
0.037778    0.022188     0.15114     0.16673     0.62438     0.23039    0.014392
0.0039985    -0.03303     0.13555     0.14496      1.1415     0.18134  -0.0044465
-0.069083   -0.098965     0.09462    0.098842      1.5465     0.13652   -0.032055
-0.16782    -0.17205    0.036479    0.025436      1.7349     0.10242   -0.068758
-0.27599    -0.24188   -0.022961   -0.067784      1.6527    0.087474    -0.11423
-0.37213     -0.2919   -0.067134    -0.16068      1.3217    0.094295    -0.15191
-0.43806    -0.30457   -0.086623    -0.22921     0.78419     0.11768    -0.16945
-0.45983    -0.27599   -0.076554    -0.25227     0.10501     0.13717     -0.1636
-0.42832    -0.22402   -0.046022    -0.23831     -0.5407     0.13652    -0.14509
-0.35232    -0.18212   -0.011267     -0.2133    -0.88208     0.10501     -0.1217
-0.24838    -0.17367   0.0075714     -0.2055    -0.73266    0.053044    -0.10026
-0.12495    -0.19446  -0.0037969    -0.22921     -0.1321  -0.0073698   -0.089546
0.0095202    -0.22467    -0.04862    -0.27923     0.66888   -0.062912   -0.095068
0.14432    -0.24513    -0.11261    -0.33283      1.3295    -0.11228     -0.1178
0.26319     -0.2448    -0.17107    -0.36498      1.5212    -0.16328    -0.15873
0.34212    -0.22532    -0.19706    -0.35849      1.0512    -0.22564    -0.21135
0.35836    -0.20096      -0.174    -0.29905    0.039078    -0.29677     -0.2552
0.29925     -0.1727    -0.10481    -0.18374     -1.0701    -0.36011    -0.26299
0.1755    -0.13177  -0.0083442   -0.025234     -1.7792    -0.39032    -0.21817
0.009845   -0.077203    0.085525     0.14432      -1.788    -0.36726     -0.1282
-0.17984   -0.025884     0.14951     0.28658     -1.0724    -0.29515   -0.012892
-0.38155  0.00010078     0.16673     0.36681     0.11866    -0.20063    0.082927
-0.57806   -0.013866     0.13132     0.36421      1.3565    -0.12333     0.11703
-0.73559   -0.063561    0.053044     0.28528      2.2562   -0.084674    0.083901
-0.79405    -0.12755   -0.050894     0.16088      2.6408   -0.076554    0.023812
-0.69304    -0.17205    -0.15093    0.029333      2.5469   -0.071357   -0.011917
-0.41533    -0.16458     -0.2159   -0.073955       2.151   -0.046022    0.008221
-0.012242   -0.083375    -0.23149    -0.12885      1.6017   0.0065969    0.079354
0.4204    0.072208    -0.19836    -0.13372     0.91638    0.075781     0.17225
0.80205     0.28431    -0.13177    -0.10156    0.052395     0.14367     0.25637
1.1002      0.5133   -0.048945   -0.059664     -1.0101     0.19174     0.31354
1.3013     0.70721    0.026735   -0.039201     -2.2596     0.20668     0.33693
1.3828     0.81959    0.080978   -0.054142     -3.5663     0.18102     0.32848
1.3234     0.83128     0.10761    -0.09117     -4.6196     0.12775     0.29535
1.1243       0.753     0.10891    -0.12203     -4.9695    0.064737      0.2463
0.81277     0.62113    0.092346    -0.12398      -4.594   0.0062721     0.18687
0.43794     0.47335    0.069285    -0.09117     -3.2587   -0.038876     0.12385
0.057917     0.33985    0.047523   -0.030431     -1.3602   -0.060963    0.061489
-0.26981     0.23136    0.032906     0.03453     0.59742   -0.054142   0.0046481
-0.5092     0.14919    0.028684    0.071234      2.0526   -0.022961   -0.038876
-0.64984    0.084876    0.035505    0.055968      2.7866    0.024786   -0.062262
-0.70441    0.028034      0.0433  -0.0024977      2.8526    0.072208    -0.06551
-0.69466   -0.025559    0.049472   -0.070058      2.4774     0.10891   -0.055766
-0.63912   -0.075904    0.048497    -0.11553      1.9496     0.12678     -0.0405
-0.55402    -0.11813    0.038428    -0.13177      1.4877     0.12613   -0.023935
-0.45593    -0.15029    0.023487     -0.1204      1.1785     0.11183   -0.011917
-0.35751    -0.16945    0.011794   -0.084024     0.99076    0.091047  -0.0031473
-0.26787    -0.17432    0.009845   -0.023935      0.8472    0.073182   0.0046481
-0.19348     -0.1623    0.017316     0.05142     0.69974    0.064088    0.012768
-0.13632    -0.13924    0.029658     0.12613     0.54513    0.063438    0.023162
-0.091495    -0.11553    0.045249     0.18167     0.42495    0.067336     0.03583
-0.054792    -0.10156    0.058241     0.20603     0.38662    0.076106    0.048172
-0.022311   -0.099615    0.061165     0.19661     0.45061    0.088448    0.054668
0.00010078    -0.10903    0.054019      0.1625     0.60164    0.098517    0.050771
0.0059473     -0.1282    0.039727     0.11476     0.81374     0.10242    0.036154
-0.013216    -0.15288    0.021538    0.064413      1.0509    0.098842    0.012768
-0.056741    -0.17854   0.0023744    0.025436      1.2681    0.092346  -0.0099683
-0.1217    -0.19998    -0.01549   0.0075714      1.4078    0.088124   -0.027508
-0.20453    -0.21395   -0.028482    0.012443      1.4254    0.081303   -0.039851
-0.30424    -0.22142   -0.033679    0.025436      1.3052     0.06896   -0.050244
-0.41598    -0.22661    -0.03238    0.029333       1.069    0.050446   -0.060963
-0.51992    -0.23474   -0.023935    0.010819     0.75171    0.028034   -0.072981
-0.59202     -0.2487   -0.011917   -0.043099     0.31776  -0.0011985   -0.085973
-0.61054    -0.26202  0.00075039    -0.13729    -0.36011   -0.040175   -0.096367
-0.5813    -0.26754   0.0043233    -0.26689     -1.2855   -0.094093    -0.10286
-0.51894    -0.26462   -0.007045    -0.41435       -2.22    -0.16263    -0.10806
-0.44034    -0.25845   -0.029457    -0.55597     -2.8641    -0.24253    -0.11813
-0.36498    -0.25715   -0.059664    -0.66478     -3.0424    -0.32438    -0.13404
-0.31301    -0.26234   -0.088247    -0.71707     -2.7721    -0.39097    -0.15126
-0.2867    -0.26364    -0.10871    -0.69791     -2.2281    -0.42572    -0.16133
-0.27696    -0.25292     -0.1204    -0.60567     -1.6301     -0.4163    -0.15776
-0.26981    -0.22661    -0.12203    -0.45495      -1.138    -0.35946    -0.13859
-0.25195    -0.18504    -0.11228    -0.26007    -0.79405    -0.26462    -0.10676
-0.21947    -0.13502   -0.092145    -0.02361    -0.58033    -0.14541   -0.069083
-0.17757   -0.087597   -0.061937     0.25475    -0.48191   -0.020362   -0.031406
-0.12625   -0.046347   -0.024585     0.54448    -0.49166    0.091372   0.0010752
-0.066485   -0.015815     0.01829     0.79458    -0.58455     0.16803     0.02641
0.0052977  0.00075039    0.061489     0.96543    -0.68979     0.20246    0.044924
0.083901   0.0043233    0.099492      1.0408    -0.72195      0.2044    0.057917
0.15828  -0.0015233     0.12743      1.0265     -0.6336     0.19336    0.068635
0.22779  -0.0076946     0.14269     0.94139    -0.44034     0.18102    0.075131
0.2908  -0.0067202     0.13879      0.8092    -0.20745     0.17257    0.076431
0.33205   0.0017248     0.11768     0.65394   -0.020362      0.1651    0.073507
0.33498    0.014717      0.0865     0.49121    0.036804     0.14919    0.072533
0.2934    0.023812    0.056942     0.34017   -0.088896     0.11801    0.070909
0.22032    0.023812    0.033231     0.21025    -0.35784     0.06896    0.064413
0.13684    0.014068    0.015367     0.11021    -0.61151   0.0091954     0.05207
0.065062  -0.0024977  0.00010078    0.042326    -0.65536   -0.056416    0.034206
0.023162   -0.021986   -0.015815   0.0017248    -0.37668    -0.12073    0.013418
0.012443   -0.043748   -0.032055   -0.022311     0.15633    -0.16912  -0.0041217
0.023812    -0.06681   -0.039526   -0.037902     0.71403    -0.19154   -0.012567
0.051745   -0.086948    -0.03173   -0.044073      1.0431    -0.19121   -0.010943
0.092671   -0.089871   -0.014516   -0.040825      1.0132    -0.17757  -0.0011985
0.13912   -0.068434   0.0075714   -0.032705     0.69811    -0.16328    0.011144
0.18167   -0.032705    0.024461   -0.030431     0.34147    -0.15711    0.024137
0.20181  -0.0083442    0.028034   -0.050569     0.21545    -0.15841    0.024786
0.17582   -0.017439    0.009845   -0.097991     0.45061    -0.15451   0.0088706
0.093321   -0.065835   -0.030106     -0.1636     0.99694    -0.12917   -0.019388
-0.031081    -0.14509   -0.081426    -0.22759      1.6683   -0.074605    -0.04992
-0.1675    -0.23506    -0.13112    -0.27826      2.2442  0.00010078   -0.075904
-0.28508    -0.30977    -0.16653    -0.30749      2.5726    0.076106   -0.097017
-0.35394    -0.33672    -0.17822    -0.31139      2.6135     0.13782    -0.11391
-0.34842    -0.28703    -0.15743      -0.288      2.4108     0.17712      -0.123
-0.26429    -0.15516    -0.11715    -0.24773      2.0477     0.18946    -0.11748
-0.11586    0.030308   -0.080127     -0.2146      1.5725      0.1742   -0.098965
0.066362     0.21935   -0.064211    -0.21395     0.98654      0.1362   -0.070058
0.2515     0.37525   -0.070058     -0.2474     0.26579    0.079679   -0.035628
0.42235     0.48796   -0.078178    -0.27274    -0.59072     0.01764   0.0069217
0.58703     0.56754   -0.065835    -0.22921     -1.5463   -0.037252    0.061165
0.73222     0.61886   -0.024585   -0.089546     -2.5295    -0.08305     0.12158
0.81829     0.64289    0.036479     0.10956     -3.4146    -0.11553      0.1755
0.80595     0.63542    0.097868     0.28918      -4.035     -0.1308      0.2174
0.69811     0.59028     0.14269     0.38207     -4.2146    -0.13015     0.24598
0.55065     0.51622     0.16218     0.36648     -3.8427    -0.12138     0.25995
0.43794     0.43307     0.15601     0.27359      -2.966    -0.11066     0.26027
0.39896     0.35934     0.13165     0.15179     -1.8208   -0.096692     0.24208
0.41293      0.2973    0.096893    0.040702    -0.73429    -0.07493     0.20376
0.42105     0.24208     0.06019   -0.040825    0.031607   -0.046996     0.15179
0.37233     0.18946    0.029658   -0.088572     0.39084   -0.022311    0.091372
0.26255     0.14204    0.013418    -0.11261     0.43989    -0.01484    0.031932
0.12418     0.10436    0.011794    -0.12625     0.37623   -0.031081   -0.016464
0.0033489    0.081952    0.016991    -0.14411      0.4269   -0.061937   -0.046347
-0.061937    0.075456    0.017965    -0.17205     0.72832   -0.090196   -0.060638
-0.059339    0.069934   0.0049729    -0.20972      1.2327    -0.10091    -0.06551
0.0026992     0.05272   -0.026858    -0.24838        1.78   -0.090196   -0.065835
0.10079    0.017965   -0.069408    -0.27274      2.2257   -0.056741   -0.058365
0.20213   -0.025559    -0.10481    -0.26462      2.4927  -0.0021729   -0.039851
0.27684   -0.064536    -0.11813    -0.22337      2.5537    0.058891  -0.0080194
0.30055   -0.088572    -0.10546    -0.16328      2.4004     0.10404     0.02641
0.27619    -0.09117   -0.072331   -0.098316      2.0643     0.12483    0.051096
0.22162   -0.075255   -0.027183   -0.027508        1.63     0.13132    0.055318
0.15666   -0.047321    0.021538    0.057917      1.1977     0.13912     0.04395
0.095594   -0.018738    0.066362     0.16023     0.77607     0.14919    0.023812
0.050446   0.0033489    0.096244     0.26287      0.2999     0.15309   0.0062721
0.023162   0.0059473     0.10209     0.33823    -0.23084     0.14691  -0.0011985
0.01017   -0.013216    0.081952     0.36551     -0.6677     0.13197   0.0033489
0.008221   -0.046022    0.047847     0.34505    -0.81257     0.10924    0.011469
0.01829   -0.066485    0.020564     0.29113    -0.58358    0.082277    0.012768
0.034206   -0.052518    0.011794     0.22162    -0.10449    0.053044  -0.0011985
0.037454  -0.0024977    0.018615     0.15146     0.38662    0.027709   -0.026858
0.010819    0.060515     0.02641    0.079679     0.72864    0.016991   -0.053492
-0.039201     0.11183    0.024137  -0.0021729      0.8943    0.025111   -0.071357
-0.084999     0.13847    0.008221    -0.10091     0.91931    0.044924   -0.073306
-0.10124     0.14139    -0.01484    -0.19576     0.87188    0.064413   -0.059989
-0.0824      0.1258   -0.036927    -0.25098     0.84557    0.078379   -0.032705
-0.039851    0.097218   -0.048945    -0.23344     0.91476    0.090397   0.0020496
0.011794     0.06084   -0.046347    -0.14054      1.0668     0.10631    0.038103
0.067336    0.023162   -0.028807  -0.0031473      1.1723     0.12483    0.072208
0.11476  -0.0099683  -0.0021729     0.13197      1.0369     0.14042    0.096244
0.14009   -0.039201    0.020239        0.22     0.52142     0.14626    0.098193
0.13749   -0.069733     0.02706     0.24501    -0.35816     0.13749    0.075781
0.10436    -0.10449    0.017316      0.2148     -1.4008     0.11541    0.035505
0.030957    -0.14346      0.0014     0.15276     -2.3294    0.092346  -0.0093186
-0.094093    -0.17562   -0.010618      0.0852     -2.8988    0.077405   -0.034654
-0.27046    -0.18504   -0.012242    0.031607     -2.9414    0.080328   -0.028482
-0.47639    -0.16328 -0.00087364  0.00042559     -2.4558     0.10144      0.0014
-0.65926    -0.10676    0.021863  -0.0096434     -1.6467       0.131    0.036479
-0.75995   -0.028482    0.042975   -0.010943    -0.82166     0.15926    0.061814
-0.73819    0.054668    0.052395    -0.01614    -0.21395     0.18134    0.078055
-0.58618     0.12872    0.049796   -0.025559     0.12418     0.19856    0.095594
-0.32958     0.19011      0.0433   -0.039201     0.29438       0.207     0.12028
-0.019388     0.24501    0.035505   -0.052843     0.44021     0.20278     0.14009
0.26644      0.2895    0.029333   -0.063561     0.61983     0.18167     0.14626
0.44509     0.31257    0.027709   -0.069408     0.69779     0.13912     0.13847
0.47075     0.30282    0.033881    -0.07493     0.43274    0.065387     0.11931
0.35901     0.25637    0.039727   -0.090521    -0.25617   -0.046671    0.090072
0.16348     0.18004     0.03453    -0.12073     -1.1377    -0.18861    0.049796
-0.042124    0.088124    0.011794    -0.15711     -1.8149     -0.3338   0.0023744
-0.19966  0.00010078   -0.018088    -0.17887     -1.9754    -0.44878   -0.043099
-0.28768    -0.07428   -0.039526    -0.17075     -1.5314    -0.51115    -0.08305
-0.32731     -0.1269   -0.040175     -0.1295    -0.64204    -0.51082    -0.11813
-0.35686    -0.15938   -0.021986   -0.063886      0.3733    -0.45463    -0.14704
-0.40136     -0.1753   0.0095202    0.008221      1.1986    -0.36628    -0.16425
-0.45885    -0.17822    0.041676    0.065387      1.6956    -0.27371    -0.16555
-0.50173    -0.17432    0.061814    0.094945      1.8723    -0.19186    -0.15191
-0.50238    -0.17594    0.063113    0.097868      1.8077     -0.1256     -0.1308
-0.45138    -0.19478    0.046223    0.079679      1.5718   -0.069733    -0.10806
-0.35686    -0.21687    0.016666     0.05207       1.211   -0.022961   -0.081751
-0.21785    -0.21947   -0.014191     0.02706     0.76632    0.021863   -0.053817
-0.046347    -0.18894   -0.040825    0.003024     0.28301    0.066686   -0.029132
0.13652    -0.13112   -0.057715    -0.02426    -0.19348     0.10566  -0.0099683
0.30542   -0.053817   -0.059339   -0.053492    -0.62028     0.13035   0.0036737
0.43632    0.029009   -0.044398   -0.079152    -0.94606     0.13425    0.013418
0.5159     0.10112   -0.018738   -0.098641     -1.1049     0.11248    0.020239
0.54643     0.15373   0.0075714    -0.11033     -1.0536    0.074157    0.023162
0.52824     0.18167    0.024786    -0.11261    -0.80802    0.036479    0.026735
0.45191     0.17939    0.026735    -0.10546     -0.4582   0.0095202    0.027385
0.30282     0.14789    0.015367    -0.09117    -0.13469  -0.0060706    0.019264
0.092996    0.089423  -0.0011985   -0.073955    0.056617   -0.016789  -0.0031473
-0.14216    0.016341   -0.015815   -0.054142    0.085525   -0.030756   -0.033679
-0.34842    -0.05739   -0.019388   -0.024585    0.020888   -0.045372   -0.062262
-0.49101    -0.11293  -0.0099683     0.01829   -0.028807   -0.049595    -0.07428
-0.56214    -0.14184    0.012443    0.072208    0.011144   -0.038876    -0.06616
-0.56961    -0.14964    0.042001     0.12645     0.15309   -0.021661    -0.04992
-0.53291    -0.14801    0.069934     0.17095     0.35934   -0.007045   -0.044073
-0.47217    -0.14801    0.087149     0.20083     0.57274  -0.0047713   -0.059664
-0.40461    -0.15061      0.0865     0.20895     0.71955   -0.013216   -0.097341
-0.33023    -0.15158    0.065712     0.18622     0.73254   -0.032055    -0.14346
-0.24903    -0.14834    0.023812     0.13002     0.59645   -0.051544    -0.18212
-0.15613    -0.14379   -0.035628    0.046548     0.36356   -0.064536    -0.19738
-0.041799    -0.14152    -0.09929   -0.044073     0.15146   -0.061288    -0.17854
0.099817    -0.13794    -0.15256    -0.11001     0.10501   -0.032705    -0.11683
0.2567    -0.12138    -0.17854    -0.12592     0.27749     0.02706   -0.020362
0.38597   -0.079152    -0.16458    -0.08305     0.52726     0.10826    0.088448
0.43794    -0.01484    -0.11163  -0.0031473     0.57956     0.18427     0.18069
0.39994    0.061814   -0.036278    0.083901     0.24273     0.23039     0.24046
0.2986     0.13912    0.036154     0.15016     -0.4215     0.23721     0.26807
0.18134     0.20083    0.090722     0.18167     -1.1403     0.21155     0.26742
0.094945     0.23916     0.12158     0.18037     -1.6577     0.16315     0.24241
0.064088      0.2489      0.1245     0.15049     -1.8416    0.097868     0.19434
0.082927     0.22649    0.097868    0.097543     -1.6629    0.019264     0.12807
0.1258     0.16413    0.047847    0.032257     -1.1465   -0.067459    0.050121
0.1651    0.057267   -0.014516   -0.035953    -0.38447    -0.15158   -0.025884
0.18524   -0.079802   -0.070382   -0.092145     0.44931     -0.2146   -0.084024
0.1716    -0.21492    -0.10579    -0.11943      1.1502    -0.23961    -0.11228
0.11281    -0.31042    -0.11261    -0.11261      1.5848    -0.22239    -0.11098
-0.0060706    -0.35491   -0.095068   -0.077528      1.7112    -0.17854   -0.096042
-0.17692    -0.36758   -0.069408   -0.034329      1.5881     -0.1308   -0.084349
-0.34777    -0.37603   -0.057065  -0.0037969      1.3591   -0.086298   -0.081101
-0.45301    -0.38967   -0.065835   0.0010752       1.184   -0.041475   -0.072656
-0.46535    -0.39324     -0.0837   -0.019712      1.1593    0.012443   -0.044398
-0.41143    -0.35394    -0.09117   -0.063561       1.275    0.076431  0.00042559
-0.34452    -0.24935    -0.07428     -0.1204      1.4332     0.14789     0.05272
-0.30294   -0.088896   -0.031081    -0.17952      1.5108     0.21447    0.098193
-0.29385    0.091372    0.028034    -0.23798      1.3977     0.26709      0.1258
-0.30035      0.2476    0.082602    -0.28963      1.0479     0.29925     0.13262
-0.30035     0.34894     0.11671    -0.32503     0.51687     0.31029     0.12385
-0.28378     0.38695     0.12645    -0.33413   -0.051868     0.30315     0.10989
-0.26364     0.37655     0.11508    -0.31139    -0.49003     0.28236    0.090722
-0.26494     0.33498    0.092671    -0.25877    -0.72877     0.24663    0.064088
-0.29807     0.28301    0.064088    -0.17984    -0.86454     0.19401    0.031282
-0.3442     0.23071    0.039402   -0.068758     -1.0964     0.12515  -0.0067202
-0.36466     0.17615    0.023812    0.091047     -1.5638    0.045249   -0.044073
-0.32373     0.11963    0.019264     0.30477     -2.1969    -0.03303   -0.071032
-0.2042    0.066362    0.023162     0.54318     -2.7517   -0.086623   -0.075904
-0.028482    0.026085    0.033881     0.75008     -2.9881    -0.10384   -0.054792
0.15211   0.0062721    0.044599     0.86539     -2.8238   -0.085648   -0.013866
0.2934   0.0088706    0.050446     0.86311     -2.3567   -0.040825    0.025761
0.38695    0.031932    0.049147     0.75918     -1.7857    0.015692     0.05142
0.44151     0.06896    0.041351     0.59775     -1.2907    0.067661     0.06019
0.4649     0.10664    0.030957     0.42755    -0.96977    0.098517    0.057592
0.45678     0.13197    0.025436     0.28658    -0.84765    0.099492    0.051096
0.41358     0.14302    0.032257     0.18881    -0.90221    0.073507    0.042975
0.3457     0.14172    0.046548      0.1323     -1.0773    0.029658    0.032906
0.27359      0.1284    0.060515     0.10664     -1.3021   -0.022636    0.021538
0.21642    0.097868    0.065387    0.098193     -1.4531   -0.082076    0.011794
0.18264    0.048172    0.054344    0.093645     -1.3959    -0.15158   0.0043233
0.15926   -0.015815    0.029333    0.086175     -1.0685    -0.22726   -0.007045
0.1284   -0.073631   0.0039985    0.073507    -0.50952    -0.29385   -0.028482
0.090397   -0.098965  -0.0054209    0.063113     0.16218    -0.33315    -0.05804
0.05272   -0.079477    0.013093    0.058891     0.77249    -0.33575   -0.084024
0.032906   -0.026858     0.05142    0.062139       1.171    -0.30847    -0.09994
0.042326    0.025436    0.094945    0.065712      1.3071    -0.27501    -0.09994
0.075456    0.050771     0.12937    0.062789      1.2409    -0.25195   -0.084674
0.11768    0.038103     0.14529    0.047523      1.0905    -0.24675   -0.063886
0.15698    -0.01484      0.1323    0.014068     0.98394    -0.25195   -0.047971
0.19336    -0.10481    0.082927     -0.0405      1.0025    -0.25942   -0.044723
0.22974    -0.21557   0.0059473    -0.11196       1.122    -0.26007   -0.055766
0.27521    -0.31756   -0.088896    -0.19543      1.2224    -0.25065   -0.070707
0.33173    -0.38285    -0.18147    -0.28995      1.1308    -0.23603   -0.071682
0.38272    -0.39357    -0.25227    -0.38512     0.73546    -0.21427   -0.045697
0.40351    -0.33965    -0.28118    -0.45755     0.12385    -0.18017      0.0014
0.3863    -0.22142    -0.25585    -0.47737    -0.46697    -0.12203    0.057917
0.34147   -0.051219    -0.18309    -0.43157    -0.82621     -0.0405     0.10404
0.28496     0.14432   -0.089871    -0.33185    -0.89312    0.048822     0.12743
0.22844     0.32296  -0.0057458     -0.2081    -0.72389     0.12548     0.12418
0.16965     0.44444    0.050121   -0.096042    -0.41273     0.17874     0.10209
0.10339     0.48504    0.072208   -0.022636   -0.021012     0.21188    0.075456
0.025111     0.44541    0.066037   0.0085458     0.43632     0.22682    0.056942
-0.055116     0.35122    0.045249   0.0088706     0.96348     0.22552    0.050121
-0.12365     0.23461    0.024461  -0.0015233      1.5286     0.21382    0.051096
-0.16588     0.12872    0.011469  -0.0057458      2.0253     0.19791    0.055643
-0.17465    0.054344   0.0056225   0.0075714      2.2975     0.18167    0.058566
-0.15646    0.012119   0.0046481    0.033881      2.2098      0.1625    0.054993
-0.11878  -0.0028225  -0.0011985    0.061814      1.7024     0.13587    0.045249
-0.072331  -0.0024977   -0.011592    0.078055      0.7962     0.09462    0.028034
-0.021986   0.0085458   -0.023285    0.074806    -0.38155    0.033231    0.010819
0.030633    0.025111   -0.030756    0.051096      -1.545   -0.048296  -0.0057458
0.080003    0.040702    -0.03303    0.012119     -2.4249    -0.13859   -0.016464
0.11931    0.051745   -0.030106   -0.030106     -2.8485    -0.21622   -0.019063
0.14529    0.055968   -0.021986   -0.061288     -2.7676    -0.25682   -0.016789
0.15276     0.05142   -0.011267   -0.072331      -2.295     -0.2487   -0.015165
0.14464    0.041351      0.0014   -0.061288     -1.6603    -0.19933   -0.014516
0.1245    0.029983    0.012443   -0.035628     -1.1046     -0.1269   -0.014516
0.093645    0.021863    0.017965   -0.010618    -0.77002    -0.05739   -0.012567
0.058891    0.016016    0.014717  -0.0021729    -0.63003  -0.0099683  -0.0083442
0.026735    0.011794   0.0043233   -0.015815    -0.53486   0.0017248  -0.0050961
-0.0031473   0.0072465   -0.010618   -0.043099    -0.31399   -0.017439   -0.010618
-0.030106  -0.0028225   -0.028482    -0.07428     0.11638   -0.054142   -0.024585
-0.053168   -0.018413   -0.045697    -0.10221     0.71533    -0.09182   -0.042449
-0.07493   -0.034978    -0.05739    -0.11748      1.3529    -0.11098   -0.058365
-0.094743   -0.046022   -0.059339    -0.11391      1.9038   -0.096367   -0.064536
-0.11131   -0.047646    -0.04862   -0.087597      2.2916   -0.048296   -0.060963
-0.12527   -0.039851   -0.029782   -0.043748      2.4794    0.022837    -0.04862
-0.13015   -0.024585  -0.0076946   0.0056225      2.4761     0.10047    -0.03303
-0.11683  -0.0076946    0.012119    0.049472      2.3296     0.16608   -0.018413
-0.082725   0.0095202    0.025436    0.079679      2.1146     0.21123  -0.0060706
-0.024909    0.024461    0.028359    0.092021      1.9116     0.23071   0.0010752
0.051096    0.037454    0.020564    0.084876      1.7856     0.22779   0.0026992
0.13327    0.049472    0.009845    0.066686      1.7417      0.2083 -0.00022403
0.20668    0.062464   0.0036737    0.048172      1.7252     0.18362 -0.00054884
0.25832    0.076755   0.0065969    0.039078      1.6524     0.16608   0.0046481
0.27586    0.090397    0.015692      0.0433      1.4491     0.16185    0.011794
0.25832     0.10112    0.027385    0.063763      1.0902     0.16575    0.021213
0.21642     0.10794    0.037778     0.09397     0.62893     0.16868     0.03583
0.1638     0.10501    0.048497     0.12678     0.14789     0.15698    0.054668
0.10761    0.088448    0.056292     0.14496    -0.26916     0.12223    0.072858
0.050446    0.058241    0.054668     0.13425    -0.56344    0.071883    0.083901
-0.0050961    0.017965    0.038753    0.092996    -0.72195    0.019264    0.081627
-0.051868   -0.023285    0.013418    0.024461    -0.77814   -0.025234    0.067986
-0.088896   -0.059664   -0.008669   -0.054792    -0.78886   -0.055766    0.049796
-0.11845   -0.088896   -0.019388    -0.13145    -0.80867   -0.074605    0.036479
-0.14671    -0.11618   -0.022636    -0.19348    -0.87688    -0.08305    0.030308
-0.18861    -0.14704   -0.025559    -0.23474     -1.0016   -0.081101    0.026085
-0.24968    -0.18829   -0.033679     -0.2552     -1.1465   -0.072006    0.021538
-0.33055    -0.23961   -0.046022    -0.25195      -1.255   -0.059014    0.014392
-0.42052    -0.28768   -0.056091    -0.22597     -1.2881   -0.044398   0.0072465
-0.50108    -0.31366   -0.057715    -0.17724     -1.2387   -0.032055   0.0017248
-0.5511    -0.30522   -0.051544    -0.11553     -1.1231   -0.023285   0.0023744
-0.55694    -0.26137   -0.037902   -0.052518    -0.95581   -0.014191    0.011794
-0.51212    -0.20355   -0.021986  0.00075039    -0.74858  -0.0044465    0.029658
-0.41663    -0.15451  -0.0063954    0.037129    -0.52414   0.0049729    0.051096
-0.28605    -0.12527   0.0078962    0.061165    -0.32471    0.013093    0.077405
-0.13534    -0.10838    0.023812    0.083251    -0.18959    0.016341     0.10826
0.024137   -0.084024    0.046223     0.10599    -0.12333   0.0091954      0.1336
0.18849   -0.038551    0.067336     0.12418   -0.089546   -0.011267     0.14139
0.34115    0.028684    0.080003     0.12937   -0.018413   -0.043423     0.12905
0.45873     0.10436    0.074157     0.11573     0.13067   -0.084674    0.099492
0.52304     0.17127    0.050446    0.086175     0.28756    -0.13015     0.06019
0.52791      0.2135     0.01829    0.048497     0.29892    -0.18147    0.022512
0.48309     0.22422    -0.01549   0.0075714    0.099817    -0.23214   -0.010293
0.40546     0.21123   -0.044398   -0.034329    -0.21167    -0.27209   -0.035628
0.30867     0.18914   -0.065186   -0.072656    -0.46307    -0.29093   -0.052193
0.19791     0.17355   -0.072331   -0.094418    -0.57026    -0.28638   -0.054142
0.081303     0.17257   -0.064861   -0.088896    -0.55889    -0.26267   -0.042449
-0.026858     0.17777   -0.039526   -0.059989    -0.49036    -0.22954   -0.021012
-0.123     0.17322  -0.0028225   -0.022961    -0.40266    -0.19056   0.0010752
-0.22012     0.14204    0.031932   0.0091954    -0.31042    -0.14899    0.017316
-0.3312    0.081627    0.049472    0.037129    -0.23149    -0.10871    0.026735
-0.45073  -0.0018481    0.046548    0.064413    -0.17432   -0.072331    0.023812
-0.56052   -0.086948    0.028359    0.092996    -0.13112   -0.037902   0.0075714
-0.63652    -0.14931   0.0069217     0.11768   -0.063561  -0.0063954   -0.021337
-0.65698    -0.17854  -0.0089938     0.13165    0.087149    0.022837   -0.052843
-0.60534    -0.17172   -0.012892     0.13944      0.3379    0.051096   -0.075904
-0.47769     -0.1321  -0.0028225     0.14561     0.62958    0.079679   -0.076554
-0.28963   -0.067134    0.020564     0.15244     0.87156     0.10989   -0.054467
-0.06616   0.0072465    0.047847     0.15796      1.0015     0.13977   -0.017439
0.16023    0.067986    0.066362     0.15406      1.0106     0.16445    0.020564
0.35966    0.097543    0.057917     0.13165     0.91671      0.1716    0.046223
0.50355    0.094295    0.022837    0.092021     0.75918     0.15568    0.050771
0.57371    0.067011   -0.019388    0.051745     0.58768     0.12255    0.036479
0.56397    0.030957    -0.04115    0.029333     0.46587    0.087799    0.013418
0.47919  -0.0018481   -0.028482    0.036154     0.44996    0.062464   -0.011267
0.3314   -0.030431   0.0059473    0.061165     0.54578    0.045574   -0.037902
0.14626   -0.053492    0.038428    0.082602     0.69129    0.030957   -0.068758
-0.039201   -0.068434    0.049147    0.083251     0.78938    0.014717    -0.10384
-0.18601   -0.086298    0.031282    0.058891      0.7543  -0.0024977    -0.13892
-0.26559    -0.11943   -0.010943    0.016666     0.54903   -0.013866    -0.16328
-0.27144    -0.15418   -0.059014   -0.025559     0.20928   -0.011592      -0.161
-0.20843    -0.15678   -0.089221   -0.047321    -0.16133    0.010819    -0.12495
-0.072656    -0.09994   -0.084999    -0.03303    -0.45203    0.057267   -0.057065
0.11768    0.017316   -0.044073    0.020888    -0.60307      0.1219    0.029983
0.30347     0.16218     0.01829    0.097543     -0.6284     0.18524     0.11216
0.40708     0.28561    0.074482     0.16218    -0.64139     0.22227     0.16543
0.38435     0.34764     0.10501     0.18524    -0.79698     0.21382     0.17712
0.2502     0.33368     0.10631      0.1638      -1.137      0.1625     0.15503
0.074806     0.26872    0.092346     0.12385     -1.4986    0.090397     0.12093
-0.055441     0.19628    0.083901     0.10436      -1.608     0.02641     0.09462
-0.085324     0.14139    0.089423      0.1297     -1.2949   -0.015165    0.080328
-0.0047713     0.10469     0.10242     0.18979    -0.61996   -0.035303    0.074482
0.16478    0.082277     0.11118     0.25053     0.15438   -0.042124    0.072208
0.3746    0.070584     0.10079     0.28236     0.72215   -0.040825    0.071558
0.56754    0.063438    0.066037     0.27099     0.91151    -0.03238    0.070909
0.68869    0.061489    0.012119     0.22259     0.72247   -0.014516    0.065387
0.69844    0.063763   -0.045697     0.14886     0.27521    0.010819    0.050771
0.58735    0.073832   -0.090521    0.066362    -0.26332    0.039078    0.029333
0.39312    0.097543    -0.10968  -0.0060706    -0.75605    0.068635    0.013743
0.16543     0.14529    -0.10091   -0.052193     -1.1861     0.10891     0.01894
-0.047321     0.21837   -0.065186   -0.069408     -1.6681     0.16803    0.055318
-0.20063     0.31127   -0.014516   -0.069408     -2.3096     0.23916     0.11443
-0.26364     0.39474    0.032257   -0.068109     -3.0063     0.30672     0.17062
-0.23311     0.43469    0.059865   -0.076879     -3.4458     0.36161     0.20473
-0.13664     0.41196    0.064088   -0.097666     -3.3233     0.40449      0.2122
-0.020362     0.32978    0.048822    -0.12268     -2.5334     0.43469     0.19758
0.06961      0.2057    0.023487    -0.14379     -1.2559     0.44898     0.16998
0.11281    0.072858  -0.0021729    -0.15386     0.12645     0.43989     0.13067
0.11281   -0.034978   -0.021012    -0.14996      1.2165     0.39799    0.081952
0.084551   -0.096367   -0.027508    -0.13404      1.8574     0.31711    0.028684
0.041027    -0.11261   -0.021337    -0.11553      2.1286     0.20116   -0.027508
-0.014516    -0.10416  -0.0044465   -0.097341      2.2244    0.065062   -0.081101
-0.073631   -0.094093    0.015692   -0.077853      2.3101   -0.072006    -0.13047
-0.12885   -0.093444    0.033556   -0.058689      2.4404    -0.19738    -0.17302
-0.1714   -0.097666    0.042975   -0.045372      2.5716    -0.30912    -0.20615
-0.19478   -0.098641    0.038428   -0.046996      2.6122    -0.40591    -0.22694
-0.19836   -0.095717     0.01894   -0.068109      2.4927    -0.48776    -0.22759
-0.18731   -0.089221  -0.0083442    -0.10091       2.225    -0.54428    -0.20518
-0.18212    -0.08305   -0.031081    -0.13242      1.8996    -0.55987     -0.1714
-0.20355   -0.084024   -0.046022    -0.15581      1.5878    -0.52771    -0.13957
-0.24903   -0.096042   -0.053168     -0.1662       1.274    -0.45658    -0.11586
-0.29547    -0.11943   -0.056416    -0.16555     0.89949    -0.35719   -0.098641
-0.31236    -0.14931   -0.057715    -0.14769     0.45093    -0.24383    -0.08305
-0.28703    -0.17984   -0.061288    -0.11358   -0.034978    -0.13924   -0.064536
-0.22337    -0.20453   -0.064536   -0.070707    -0.52706   -0.067134   -0.046996
-0.14411    -0.21297   -0.057065   -0.027833    -0.97984   -0.036927   -0.031081
-0.077203    -0.19738   -0.035953   0.0049729     -1.3449   -0.035628   -0.017764
-0.043423    -0.16133  -0.0073698    0.025436     -1.6119   -0.046996  -0.0057458
-0.043423     -0.1178    0.022837    0.036804     -1.7915   -0.059664      0.0014
-0.068758   -0.080451    0.048822    0.042326     -1.8494   -0.069083   0.0010752
-0.10351    -0.05739    0.067011    0.044924     -1.7418   -0.075255  -0.0083442
-0.13047   -0.055441     0.07773    0.048172     -1.5021   -0.083375   -0.023285
-0.1334   -0.068758    0.078704    0.053694     -1.2813   -0.097666   -0.039526
-0.096367    -0.09117    0.070909    0.055968     -1.2556    -0.11391   -0.046996
-0.016464    -0.11553    0.055643    0.049796     -1.4567    -0.12235   -0.038227
0.087799    -0.13697     0.03518    0.034855     -1.7347    -0.11878    -0.01549
0.18946    -0.15288    0.015367    0.012768     -1.9094    -0.10838   0.0043233
0.26579    -0.15386  0.00075039  -0.0089938     -1.8786    -0.09994   0.0091954
0.30672    -0.13469   -0.011917   -0.025884     -1.6249   -0.097341  -0.0057458
0.31906   -0.098965   -0.024585   -0.031406     -1.1874   -0.092145   -0.027508
0.30834    -0.04992   -0.034978   -0.027183    -0.64529   -0.075904   -0.042124
0.27619   0.0065969   -0.038227   -0.013866    -0.10286   -0.047646   -0.043423
0.21317     0.06831   -0.033354   0.0043233     0.33887   -0.015165   -0.037577
0.11216     0.13067   -0.023285    0.022837     0.61204    0.014068   -0.034654
-0.014516     0.18329   -0.011592    0.039727     0.70526    0.040702   -0.036278
-0.13827     0.21447   0.0017248     0.05142     0.66498    0.067336   -0.038551
-0.24091     0.21188    0.013418    0.056617     0.57761    0.093645   -0.038551
-0.33153     0.16445    0.018615    0.055968     0.53863     0.11541   -0.036927
-0.41988    0.072533    0.019264    0.049147     0.61106     0.12807   -0.035303
-0.51147   -0.042124    0.022512    0.042326     0.80367     0.13457   -0.036278
-0.60794    -0.15353    0.032257    0.042651      1.0768     0.13977   -0.035628
-0.7122    -0.24968    0.040377    0.049796       1.364     0.14399   -0.034654
-0.82004     -0.3442    0.032257    0.059541      1.6115     0.14334   -0.034978
-0.90644    -0.44878  0.00075039    0.064413      1.7843     0.13652   -0.040175
-0.93275    -0.55759   -0.046022    0.062789      1.8664     0.11736   -0.051868
-0.87038    -0.64886   -0.090521    0.057267      1.8561    0.090397   -0.064861
-0.7135    -0.69888    -0.11715    0.049796      1.7726    0.064413   -0.069083
-0.4673    -0.69434    -0.12365    0.042326      1.6592    0.054668   -0.053168
-0.13892    -0.62061    -0.12333    0.035505      1.5446    0.071883  -0.0093186
0.23039    -0.47542     -0.1256     0.02706      1.4065     0.10859    0.053044
0.55292    -0.27728    -0.13275    0.013418       1.183     0.14529     0.11443
0.74131   -0.061288    -0.14087  -0.0034721     0.83356     0.15991     0.15146
0.7556     0.13067    -0.13989    -0.01484     0.37655     0.14789     0.15211
0.60814     0.26449    -0.12333   -0.011592    -0.12365     0.11768      0.1284
0.36876     0.33433   -0.085324     0.01017    -0.63912    0.090722    0.097868
0.1271     0.35512   -0.030431    0.042975     -1.2319    0.081952    0.082277
-0.04992     0.34959    0.027385    0.072858     -1.9101    0.090397    0.089423
-0.14379     0.34017    0.072208    0.086824     -2.5448     0.10696     0.10826
-0.174     0.33595    0.095594    0.077405      -2.942     0.11736     0.12613
-0.1753     0.34115    0.098193    0.047198     -2.9683     0.11476     0.13327
-0.16815     0.35512    0.090072    0.019914     -2.6101     0.10242     0.13002
-0.15808     0.37233    0.081627    0.019914     -1.9643    0.090397     0.11931
-0.14216     0.37688     0.07708    0.045899     -1.1955    0.080328     0.10371
-0.11618     0.35674    0.074157    0.079679    -0.47509    0.064088    0.079679
-0.079152     0.31094    0.067336    0.099492    0.084226     0.03453    0.043625
-0.035303      0.2489    0.055318    0.095594     0.46263  -0.0083442   0.0020496
0.0049729     0.18881    0.040052    0.071883     0.71208   -0.054467   -0.028157
0.031607     0.14172    0.026735    0.039402     0.88747   -0.091495   -0.037252
0.039078     0.11411    0.019914    0.012443      1.0158    -0.11261    -0.02361
0.032906     0.10339    0.023812  -0.0011985      1.0999    -0.12398      0.0014
0.016666     0.10469     0.03518  -0.0028225      1.1551    -0.13047    0.023812
-0.0021729     0.11054    0.048497   0.0026992      1.2068    -0.14314     0.03453
-0.010618     0.11313    0.057592   0.0043233      1.2805     -0.1649     0.03453
0.0033489     0.11118    0.059865  0.00042559      1.3701    -0.18699    0.026085
0.042001     0.10794    0.057592   -0.007045      1.4354    -0.19348    0.014068
0.096244     0.10599    0.055968   -0.007045      1.4345    -0.17367   0.0039985
0.15406     0.10534    0.061165   0.0065969      1.3523    -0.13047  -0.0015233
0.20343     0.10306    0.074482    0.028034      1.2012   -0.075904  -0.0034721
0.23559    0.099492    0.089098    0.044924      1.0103   -0.025884  -0.0024977
0.24825    0.090072    0.096244    0.053694     0.80595   0.0065969  0.00010078
0.24273     0.07708    0.089098    0.048172      0.5958    0.020564   0.0039985
0.22617    0.064088    0.072858    0.031607     0.37623    0.018615   0.0049729
0.21025    0.054668    0.054668    0.011794     0.14724   0.0056225 -0.00054884
0.20278     0.05142    0.040377  -0.0063954   -0.097991   -0.014191   -0.013216
0.20993    0.050446    0.028684   -0.025884    -0.34679   -0.033679   -0.031406
0.22812    0.051745    0.017965   -0.043748     -0.5498   -0.046671   -0.046671
0.24955    0.053694    0.011794   -0.049595    -0.65471    -0.04862   -0.050569
0.26157    0.054668   0.0091954   -0.038876    -0.65341   -0.038227   -0.044073
0.26125    0.054668   0.0039985   -0.018088     -0.5852   -0.019063   -0.035953
0.25248    0.053369  -0.0054209   0.0056225    -0.49166   0.0036737   -0.034978
0.24468    0.050446   -0.010943    0.026735    -0.39032    0.029333   -0.039851
0.23721    0.048497  -0.0096434    0.042326    -0.26689    0.059541   -0.044398
0.22552    0.048822  -0.0037969     0.05207   -0.097341     0.09397   -0.041475
0.20895    0.053694   0.0033489    0.058891     0.13327     0.12872   -0.025884
0.19011    0.061489   0.0095202    0.067661     0.39344     0.15763  0.00042559
0.1729    0.069934   0.0085458    0.079029     0.59515      0.1703    0.029009
0.16056    0.075131  -0.0047713    0.084226      0.6416     0.15958    0.049147
0.15536    0.071234   -0.026209    0.075131     0.51362      0.1245    0.053369
0.15244    0.055318   -0.046022    0.046873     0.31159    0.071558    0.039727
0.14626    0.026735    -0.05804   0.0017248      0.1651   0.0091954     0.01829
0.13392   -0.011267   -0.061937   -0.051219    0.099167   -0.054142  -0.0031473
0.11443    -0.04992   -0.058365    -0.09994    0.036804    -0.11261   -0.018088
0.092021   -0.080127    -0.04992    -0.13469   -0.073631     -0.1636   -0.028482
0.071234   -0.097017   -0.043099    -0.15386    -0.22824     -0.2029   -0.037577
0.056617    -0.10514   -0.040825    -0.15646    -0.40688    -0.22694    -0.04927
0.05142    -0.10579   -0.037577    -0.14509    -0.60372    -0.23701   -0.062262
0.055318    -0.10774   -0.029457    -0.12657    -0.80347    -0.22791   -0.071357
0.066037    -0.11326   -0.019388    -0.10871    -0.95743    -0.19413   -0.074605
0.07773    -0.11651   -0.010618   -0.094093    -0.99024    -0.13794   -0.073631
0.081627    -0.11391  -0.0041217   -0.081751    -0.84375   -0.076554   -0.069408
0.075131    -0.10254   0.0023744   -0.065186    -0.51829   -0.028157   -0.062262
0.061489   -0.085973   0.0095202   -0.045047   -0.078827   -0.007045   -0.052518
0.045899   -0.071032    0.012443    -0.02426     0.37233  -0.0093186   -0.043748
0.031932    -0.06551   0.0036737  -0.0096434     0.73644   -0.022311   -0.038227
0.029983   -0.069733   -0.017439  -0.0031473     0.93555   -0.030106   -0.034329
0.048497   -0.080127   -0.045047  -0.0021729     0.92385   -0.026209   -0.025884
0.087799   -0.085973   -0.070707  -0.0011985      0.7189  -0.0099683   -0.007045
0.13652   -0.077203   -0.087272   0.0056225     0.40189     0.01017    0.022837
0.17192    -0.04927   -0.087597    0.019264     0.07708    0.025761    0.062139
0.17225   -0.007045   -0.068109    0.040702     -0.2146    0.027385    0.097218
0.11931    0.034206   -0.035953    0.064413    -0.48159    0.009845     0.11443
0.017965    0.060515 -0.00022403    0.078704    -0.73364   -0.025234     0.11183
-0.11131    0.063438    0.031282     0.07708    -0.95386   -0.071682    0.090397
-0.23961    0.041676    0.045899    0.061814     -1.1254    -0.11813    0.060515
-0.33997   0.0017248    0.041676    0.047198     -1.2407    -0.14801     0.03583
-0.39389   -0.045697    0.026735    0.045249     -1.2845    -0.14671     0.02706
-0.39389   -0.090845    0.011469    0.061814     -1.2319    -0.11683     0.03518
-0.34842    -0.12625   0.0065969    0.095919     -1.0705   -0.068109    0.051096
-0.26916    -0.14346    0.014392     0.14204    -0.81874   -0.017439    0.066686
-0.17335    -0.14087    0.032257     0.19206    -0.53193    0.023162    0.079354
-0.079802    -0.12722    0.047523     0.23494      -0.288    0.046873    0.095919
-0.0063954    -0.12235    0.050121     0.25507    -0.15288    0.044275     0.11346
0.03583    -0.13794    0.037454     0.24695    -0.17432    0.017316     0.12743
0.044275    -0.16912    0.009845     0.21675    -0.36531   -0.028157     0.12905
0.026735    -0.19251   -0.024909      0.1729     -0.6768   -0.079152     0.11248
-0.011917    -0.18114   -0.055441      0.1245     -1.0029     -0.1269    0.076755
-0.071357    -0.12463   -0.069733    0.078055     -1.2183    -0.15483    0.036804
-0.14996   -0.039526   -0.067784    0.038753     -1.2361    -0.14866   0.0059473
-0.22954    0.040702   -0.055441   0.0020496     -1.0451    -0.10806 -0.00087364
-0.27858    0.090722   -0.042449   -0.035628    -0.71188   -0.047321    0.018615
-0.26916     0.10014   -0.034004   -0.077853    -0.34582   0.0033489    0.050121
-0.19738    0.080328   -0.030106    -0.11813   -0.026858     0.02641    0.076431
-0.093769     0.05272   -0.030106    -0.14996     0.21123    0.021213    0.081952
-0.0011985    0.031932   -0.027508     -0.1714     0.36259  -0.0015233    0.067011
0.049472    0.027385   -0.017114    -0.18471     0.41943   -0.031406     0.03518
0.055643    0.042975   0.0026992    -0.19186     0.39637   -0.059664  -0.0047713
0.055968    0.079354    0.023812    -0.19641     0.33465   -0.080451   -0.046022
0.09462     0.13002    0.033231     -0.2094       0.296   -0.097017   -0.081426
0.18524     0.18264    0.024137    -0.23149     0.33303    -0.10709    -0.10579
0.30055     0.21967   0.0023744    -0.25033     0.46847   -0.096367    -0.11098
0.38207     0.22324   -0.016464    -0.24708       0.677    -0.04992   -0.090196
0.3759     0.19693   -0.016464    -0.20648     0.88065     0.03518   -0.043423
0.26579     0.16315   0.0078962    -0.13599     0.99044     0.13749    0.014392
0.073182     0.13879     0.05142   -0.051868     0.95861     0.23364    0.069285
-0.15548      0.1258    0.098517    0.027385     0.82479     0.30639     0.11346
-0.36271     0.11183      0.1362    0.093321     0.67505     0.34797     0.14464
-0.49588    0.087799     0.15406     0.13944     0.57923     0.36226     0.16445
-0.52089    0.054668     0.14854     0.15601     0.54578     0.35187     0.16543
-0.43189    0.028359     0.11638     0.13749     0.54675     0.31484     0.14302
-0.24286    0.016666    0.062789    0.083901     0.51979     0.25475    0.098517
0.015042   0.0095202  -0.0054209   0.0023744     0.29697     0.18394    0.045574
0.30542 -0.00054884   -0.076879   -0.085648    -0.35784     0.11086   0.0017248
0.60489  0.00042559    -0.13794    -0.15808     -1.4706    0.033231   -0.021337
0.91573    0.041351      -0.174    -0.19446     -2.7315   -0.050244   -0.015815
1.225      0.1362     -0.1753    -0.17757     -3.6579     -0.1269    0.022512
1.4627     0.26482    -0.14054    -0.10579     -3.8411    -0.18569    0.087474
1.5251     0.38078   -0.083375  0.00075039     -3.1713    -0.21882     0.15731
1.3468     0.43534   -0.021337     0.10534     -1.8997    -0.22272      0.2096
0.95731     0.41066    0.021863     0.17777    -0.47477    -0.19056     0.22487
0.47464     0.31939     0.03583     0.20798     0.65784    -0.11975     0.20343
0.048172     0.19304    0.026735     0.20603      1.2935   -0.022961     0.15958
-0.22012    0.067336    0.009845     0.19239      1.5608    0.072533     0.11086
-0.32633   -0.027508   0.0072465     0.18069      1.6956     0.14561    0.069285
-0.3312   -0.077853    0.025761     0.17842      1.8668     0.18784    0.041676
-0.30035   -0.088896    0.057917     0.18589      2.1214       0.207    0.029333
-0.27241   -0.081751    0.090722     0.19628       2.404     0.21382    0.029009
-0.26851   -0.076879     0.11476     0.19888      2.5995      0.2135    0.033231
-0.2932   -0.084349      0.1271     0.18751      2.6171     0.20928    0.038103
-0.33315   -0.097341      0.1271     0.16413      2.4349     0.19888    0.043625
-0.37505    -0.10838     0.11736     0.13522       2.086     0.18622    0.046548
-0.42117    -0.11715     0.10274     0.10631      1.6199     0.17615    0.042975
-0.47444    -0.13015    0.080653    0.074806      1.0625      0.1651    0.024786
-0.51927    -0.14769    0.046873    0.033231     0.38045     0.14074   -0.010293
-0.53323    -0.16653   0.0049729   -0.022311    -0.49685    0.088448   -0.053492
-0.49783    -0.17335    -0.03238   -0.084674       -1.52   0.0075714   -0.097341
-0.40688    -0.15678   -0.055766    -0.14216     -2.4473   -0.084349    -0.12885
-0.26819    -0.11845   -0.062587    -0.17724     -2.9449    -0.16035    -0.13794
-0.10286   -0.072656    -0.05739    -0.18569     -2.7754    -0.19771    -0.12398
0.051745   -0.043099    -0.04992    -0.17465     -1.9439    -0.19576    -0.10416
0.15114   -0.043099   -0.047971    -0.15093    -0.72065     -0.1701   -0.097341
0.17192   -0.069733   -0.052518    -0.12365     0.49446    -0.14769    -0.11488
0.11801    -0.10806    -0.05804    -0.10189       1.375    -0.14866    -0.15191
0.023162    -0.13957   -0.060313   -0.088572      1.8561    -0.16945    -0.19478
-0.072981    -0.15158   -0.059339   -0.080127      2.0285    -0.18829    -0.23149
-0.13989    -0.13762   -0.059989   -0.069733      2.0172    -0.18277    -0.25033
-0.17302    -0.10449   -0.060313   -0.055441      1.9119    -0.14087    -0.24058
-0.18731   -0.061613   -0.058689   -0.036602      1.7625   -0.072331    -0.20323
-0.19738   -0.022636   -0.051219   -0.016789      1.6111  0.00010078    -0.15451
-0.20583   0.0085458   -0.036927  0.00010078      1.4819    0.056617    -0.10871
-0.20843    0.033231   -0.017439   0.0085458      1.3757    0.087474   -0.077528
-0.2133    0.054668  -0.0011985   0.0036737      1.2785    0.096244   -0.063886
-0.22856    0.074482   0.0056225    -0.01549      1.1801    0.089423   -0.063886
-0.25487     0.09462   0.0039985   -0.040175      1.0911    0.075456   -0.067784
-0.28248     0.11833  0.00010078    -0.04862      1.0375    0.058891   -0.067134
-0.2997     0.14269  -0.0028225   -0.021661      1.0405    0.046548   -0.057715
-0.29353     0.15796  0.00042559    0.039727      1.0629    0.038753   -0.045047
-0.26787     0.15276    0.008221     0.11086      1.0284    0.033231   -0.036602
-0.23831     0.12483    0.020564     0.16348     0.90014    0.027709   -0.034329
-0.21687    0.082927    0.040377     0.18751     0.72507    0.027709   -0.038227
-0.212    0.036804    0.065387     0.19369     0.55682    0.037778   -0.044073
-0.21979  -0.0063954    0.088448     0.19076     0.40806    0.055318   -0.044723
-0.23506   -0.046022     0.10177     0.18199      0.2541    0.069285   -0.039851
-0.24968   -0.083375    0.098193     0.16543    0.076106    0.067661   -0.029457
-0.25715    -0.11131    0.079029     0.14139    -0.11975    0.045899   -0.021337
-0.24513    -0.12527    0.048497     0.11476    -0.31042   0.0095202   -0.022311
-0.20063    -0.11975    0.018615    0.093645    -0.47899   -0.027183   -0.023935
-0.11618   -0.088247   0.0036737    0.086175    -0.62613   -0.051544   -0.017439
-0.0028225   -0.037577   0.0069217    0.091047    -0.76352   -0.062262  -0.0011985
0.11476    0.020239    0.020888    0.096569    -0.90449   -0.062912    0.016666
0.21155    0.071558    0.038103    0.087474     -1.0812   -0.060313    0.024786
0.27391     0.10696    0.046873    0.056617     -1.3284   -0.064211    0.020564
0.29243     0.11638      0.0433    0.011469     -1.6301   -0.077203   0.0065969
0.27164    0.096569    0.024461   -0.033679     -1.9055   -0.097991  -0.0083442
0.22032    0.052395  0.00010078   -0.065186     -2.0605    -0.11813   -0.018088
0.14107   0.0033489   -0.021012    -0.07428     -2.0494     -0.1295   -0.022311
0.038428   -0.025884   -0.031406   -0.058689     -1.8789     -0.1295   -0.021012
-0.076229   -0.022961   -0.026858   -0.021986      -1.583    -0.11683   -0.010293
-0.17919  0.00075039  -0.0060706    0.027385     -1.2082   -0.086623    0.013093
-0.23896    0.017316    0.023162    0.077405     -0.8051   -0.041475    0.045574
-0.24058   0.0078962    0.049147      0.1219     -0.4215   0.0069217    0.078055
-0.18504   -0.023285    0.062464     0.15406    -0.11001     0.04395    0.096569
-0.096692   -0.055116    0.063113     0.17192    0.074806    0.061165    0.095594
0.0010752   -0.064861    0.054019     0.17485    0.095919    0.061165    0.075781
0.082602   -0.046671    0.037129     0.16185     -0.0405    0.051096    0.048172
0.14204   -0.011592    0.019589      0.1349    -0.28281    0.037129    0.025111
0.18297    0.019264   0.0033489     0.10112    -0.54785    0.023487     0.01764
0.21123    0.028684  -0.0063954    0.071234    -0.75183    0.012119    0.023162
0.22324     0.01894  -0.0093186    0.057592    -0.83271   0.0039985    0.033881
0.2122   0.0020496  -0.0044465    0.057917    -0.78463 -0.00054884    0.042326
0.17615   -0.008669   0.0023744    0.066686    -0.66283 -0.00087364    0.045899
0.11898  -0.0096434    0.008221    0.067986    -0.55564   0.0033489    0.042326
0.054668  -0.0050961   0.0065969    0.052395    -0.53648   0.0046481    0.031607
0.0049729  -0.0073698  -0.0044465    0.015692    -0.62808  0.00010078    0.016991
-0.017114   -0.023285   -0.021986   -0.035303    -0.77944   -0.010618   0.0033489
-0.0096434   -0.054467   -0.042124   -0.078827    -0.90871   -0.021012  -0.0015233
0.020239   -0.084999   -0.055766   -0.096367    -0.94964   -0.028482   0.0059473
0.06084   -0.098316   -0.059014   -0.080776      -0.885   -0.034978    0.019914
0.097543     -0.0824   -0.052193   -0.048296    -0.74858   -0.042449    0.032582
0.11054   -0.034329   -0.038551   -0.025559     -0.5917   -0.047971    0.039078
0.091372    0.038753   -0.017764   -0.025884    -0.46048   -0.048945     0.03583
0.053044     0.11898   0.0043233    -0.04992      -0.377   -0.047321    0.024786
0.020888     0.18037     0.01894   -0.084349    -0.31561   -0.044398    0.012768
0.0088706     0.20538    0.021213    -0.11228    -0.21395   -0.039526   0.0043233
0.0091954     0.19011    0.009845     -0.1243   -0.035628   -0.031406   0.0052977
0.0085458     0.14724   -0.007045     -0.1178     0.20311   -0.022311    0.012443
0.003024    0.091696   -0.021337   -0.096692     0.45126   -0.010293    0.023487
-0.0037969    0.041027   -0.025884   -0.062912     0.63477   0.0052977    0.036804
-0.0080194   0.0069217   -0.019388   -0.020037     0.69292    0.021213    0.050771
-0.0024977  -0.0089938  -0.0067202     0.02641     0.60976    0.036479     0.06084
0.014717  -0.0099683   0.0078962     0.06961     0.42657    0.051096     0.06831
0.041676  -0.0028225     0.01894     0.10079     0.22877    0.065062    0.073182
0.071883   0.0043233    0.025436     0.11671     0.11866    0.073182    0.074157
0.09397   0.0065969    0.026085     0.11898     0.17907    0.073832     0.06961
0.097868   0.0052977    0.024137     0.11086     0.43274    0.067336    0.058241
0.082602   0.0046481    0.022512    0.091372     0.82739    0.055643    0.042651
0.057267    0.008221    0.022512    0.060515       1.275    0.049796     0.02641
0.036804    0.019264    0.023162    0.022512      1.6553    0.056292    0.019589
0.034206     0.03518    0.020564    -0.01614      1.8187     0.06831    0.022188
0.051096    0.046223    0.013093   -0.049595      1.6586    0.071883    0.029658
0.079029    0.050121  0.00075039   -0.076229      1.2012    0.058241    0.032257
0.10501    0.047847  -0.0093186   -0.093444     0.61399    0.032582    0.028034
0.12223    0.044275   -0.012242    -0.10026     0.10599   0.0085458    0.020239
0.1362    0.040377  -0.0083442   -0.091495    -0.17724  -0.0060706    0.012443
0.14626    0.039727  -0.0054209   -0.068434    -0.17952   -0.007045   0.0069217
0.15341    0.039078  -0.0099683   -0.035303    0.067336   0.0039985   0.0062721
0.15211     0.03583   -0.020362  -0.0054209     0.45646    0.019264   0.0095202
0.13879    0.029333   -0.029782   0.0088706     0.82089    0.031607    0.014717
0.11573     0.01894   -0.032055   0.0095202     0.94302    0.034206    0.020564
0.088124   0.0026992   -0.029132    0.003024     0.64452    0.021538    0.020239
0.062789   -0.020362   -0.027508  -0.0018481   -0.066485   -0.011267    0.013093
0.046873   -0.046347    -0.03173  -0.0028225    -0.92787   -0.057715   0.0017248
0.03583   -0.069733   -0.039851   0.0043233     -1.5911    -0.10449  -0.0083442
0.027709   -0.087597   -0.044723    0.016991     -1.8455    -0.13567  -0.0096434
0.01894    -0.10189   -0.039526     0.03453     -1.7071    -0.14216  -0.0054209
0.0049729    -0.11326   -0.028482    0.049472     -1.3738    -0.12885  0.00075039
-0.015815      -0.123   -0.020362    0.053044     -1.0643    -0.10156      0.0014
-0.049595    -0.13404   -0.024909    0.041676    -0.91456   -0.073631  -0.0054209
-0.096042    -0.14964   -0.037902    0.015042    -0.99543   -0.060313   -0.017114
-0.15353    -0.17042    -0.04992   -0.017114     -1.3137   -0.069083   -0.027508
-0.21687    -0.19024   -0.047321   -0.042449     -1.8058    -0.09994   -0.037252
-0.27826     -0.2016   -0.028482   -0.054142     -2.3392    -0.15126   -0.052518
-0.33478    -0.19803 -0.00054884    -0.05804     -2.7403    -0.21525     -0.0837
-0.37148    -0.17627    0.021538    -0.05804     -2.8683    -0.28021     -0.1321
-0.36856    -0.14216    0.031932   -0.059014     -2.6805    -0.32925    -0.18634
-0.30424    -0.10514    0.033231   -0.060313      -2.243    -0.34972    -0.22661
-0.17822   -0.068109     0.03453   -0.059014      -1.673    -0.33575    -0.23474
-0.018413   -0.029457    0.042001   -0.044723     -1.0825    -0.28865    -0.20388
0.13522   0.0075714    0.057267   -0.011917    -0.53908    -0.21492    -0.13567
0.25053    0.034855    0.071558     0.03453   -0.067459     -0.1243     -0.0405
0.31094    0.039727    0.074482    0.081627     0.32458   -0.032055    0.059541
0.31386   0.0085458    0.058891     0.11118     0.63283    0.044924     0.14464
0.2593   -0.054142     0.02706     0.11054     0.84525    0.093645     0.19563
0.14886    -0.13372   -0.018088    0.078704     0.95991     0.10826     0.20083
0.0039985    -0.21525    -0.07493    0.022512      1.0301    0.090072     0.15958
-0.13892    -0.29288    -0.14087   -0.048296      1.1473    0.046548    0.090722
-0.23506    -0.35849    -0.21135    -0.12235      1.3718  -0.0037969    0.017316
-0.24221    -0.40039    -0.27858    -0.18049      1.6881   -0.043099   -0.036927
-0.14541    -0.41176    -0.32536     -0.2042      2.0334   -0.054467   -0.054142
0.046548    -0.37505    -0.33315    -0.18407      2.3589    -0.03303   -0.026858
0.29633    -0.27046    -0.29028    -0.12398      2.6752    0.015042    0.039402
0.55552   -0.084999    -0.20615   -0.044073      3.0289    0.074482     0.12613
0.76892     0.17225   -0.098316     0.03453      3.4424     0.13262     0.21058
0.89072     0.46198   0.0072465    0.099492      3.8439     0.19401     0.27326
0.8956     0.72507    0.093645     0.14789      4.0608     0.27067     0.30672
0.78938     0.91281     0.15146      0.1755       3.904     0.36973     0.31776
0.60359     0.99791     0.18524     0.17874      3.2472     0.48017     0.32134
0.3785     0.98589     0.20343     0.15893      2.0854     0.57176     0.32036
0.15958     0.90307     0.21123      0.1219     0.58573     0.61106     0.31159
-0.012567     0.77931     0.20635    0.073507    -0.91878     0.58768     0.29178
-0.11228     0.63835     0.19044    0.021863     -2.1303      0.5159      0.2619
-0.14054     0.49738      0.1677   -0.024909     -3.0362     0.41813     0.22292
-0.123     0.36908     0.14269   -0.065186     -3.7475     0.30412      0.1768
-0.091495     0.26027     0.11541   -0.097017     -4.2997     0.17452      0.1297
-0.069733      0.1716      0.0865     -0.1204     -4.5618    0.031282    0.082927
-0.067134     0.10371    0.057267    -0.13307     -4.3442    -0.11293    0.042001
-0.080776    0.050121    0.031932    -0.12657     -3.5481    -0.23506   0.0085458
-0.099615   0.0059473    0.013093    -0.10384     -2.2459    -0.31724   -0.021661
-0.11586   -0.028157   0.0052977   -0.074605    -0.68557    -0.35686   -0.052518
-0.12722   -0.044723   0.0020496   -0.053817     0.75885    -0.36076     -0.0824
-0.13307   -0.042774 -0.00022403   -0.046022      1.7547    -0.33997    -0.11293
-0.13892   -0.025884  -0.0054209    -0.04992      2.2267    -0.29937    -0.14022
-0.14899  -0.0050961   -0.011267   -0.060963      2.2676    -0.24935    -0.16945
-0.1649   0.0091954   -0.018738   -0.075904      2.0578     -0.2055    -0.19446
-0.18017     0.01017   -0.025234   -0.093444      1.7885    -0.17919    -0.20745
-0.18764  -0.0021729   -0.031081    -0.10774      1.5939    -0.17205    -0.20258
-0.18374   -0.024909   -0.033354    -0.11391      1.4988    -0.17887    -0.18666
-0.1688   -0.051219   -0.033679    -0.11098      1.4396    -0.18342     -0.1675
-0.14704   -0.076554    -0.03238   -0.096042      1.3435    -0.17172    -0.15223
-0.12333   -0.093119   -0.028157   -0.072981      1.1681    -0.13404    -0.14022
-0.097991   -0.098316   -0.021337   -0.049595     0.94172   -0.078827     -0.1295
-0.070058   -0.092469    -0.01549   -0.031406     0.73676   -0.021337    -0.12398
-0.037902   -0.080451   -0.011917   -0.020037     0.61788    0.022512    -0.12235
-0.0096434   -0.070707  -0.0099683  -0.0096434     0.59645     0.05142     -0.1204
0.008221   -0.064536   -0.008669     0.01017     0.63542    0.069285    -0.11391
0.016991   -0.063561  -0.0063954    0.039078     0.66953     0.07773    -0.10546
0.018615   -0.067134  -0.0018481     0.06961     0.65134    0.076106   -0.096042
0.015042   -0.073955   0.0069217    0.090072     0.58021    0.064737   -0.088572
0.0062721     -0.0837    0.015042    0.095919      0.5055    0.046873   -0.084674
-0.0093186   -0.097666    0.016666    0.084551     0.48049    0.025111   -0.083375
-0.029457    -0.11586    0.011469    0.056292     0.51687 -0.00022403   -0.083375
-0.047321    -0.13404    0.003024    0.019914     0.57826   -0.021012   -0.082076
-0.053168    -0.14801   0.0033489  -0.0063954      0.6325   -0.028157   -0.077528
-0.050569    -0.15321    0.017316   -0.008669     0.65914   -0.019063   -0.067784
-0.055766    -0.15451     0.04395    0.015042     0.61691    0.003024   -0.056091
-0.09117     -0.1636    0.073182    0.055318     0.45938    0.027709   -0.045697
-0.16458    -0.18374    0.099492    0.091372     0.18492    0.041676   -0.040825
-0.26397     -0.2133     0.11963     0.10014    -0.14866    0.042326   -0.044398
-0.37018    -0.24545      0.1323    0.066362    -0.45073    0.031932   -0.053492
-0.46567    -0.27144     0.13555   -0.012242    -0.65179    0.015042   -0.062912
-0.52934    -0.28735     0.12515    -0.12203    -0.73104  -0.0024977   -0.067459
-0.53746    -0.29353    0.097218    -0.24091    -0.70116   -0.021337   -0.067784
-0.47379    -0.30197    0.049147    -0.34484    -0.57481    -0.04862   -0.063561
-0.34387    -0.32763   -0.013866     -0.4124    -0.35134   -0.076879   -0.059664
-0.18991    -0.36791   -0.078178    -0.43059   -0.041799   -0.096692    -0.06681
-0.073955    -0.39324    -0.13534    -0.39811     0.30574    -0.10968   -0.090521
-0.030431    -0.36823    -0.17562    -0.32048     0.62471    -0.11228    -0.12527
-0.037902    -0.27501    -0.19154    -0.19998     0.86539    -0.10676    -0.14541
-0.040825    -0.12398    -0.17822   -0.023935      1.0119   -0.088247    -0.12852
-0.0093186    0.042326    -0.13794     0.22487      1.0811    -0.05739   -0.069733
0.042326      0.1742   -0.084024     0.52402      1.0811   -0.022311    0.016016
0.082277     0.23689   -0.032055     0.80757      1.0138    0.013093     0.10534
0.10047     0.23039   0.0046481     0.99629     0.88065    0.041351     0.17355
0.10729     0.17972     0.02641      1.0411     0.67408    0.054993     0.20376
0.11313     0.12158    0.036479     0.94529     0.36616    0.053694     0.19758
0.12093      0.0852    0.045574     0.76048   -0.080127    0.044599     0.17257
0.131    0.078704    0.061814     0.55844    -0.65244     0.03583     0.14724
0.14561    0.089423    0.082602     0.39247     -1.2472    0.033231     0.13035
0.16673     0.10501     0.10274     0.28528     -1.7038    0.035505     0.11898
0.19336     0.12028     0.11021     0.22941     -1.8779    0.033881     0.10664
0.21837     0.13684     0.10242     0.20278     -1.7084    0.023162    0.090397
0.22682     0.15633    0.082277     0.18232     -1.2501   0.0078962    0.074157
0.207     0.17322    0.061489     0.15471    -0.65211 -0.00022403    0.064413
0.1664     0.18069     0.04395      0.1245   -0.097341    0.014068    0.070259
0.13327     0.18329    0.033556    0.099817     0.26677     0.05272    0.091047
0.13132     0.18427     0.03453    0.084551      0.3889     0.10274     0.11866
0.1651     0.18557    0.045574    0.070909     0.29925     0.14561     0.14204
0.21707     0.18557    0.060515     0.05142    0.071234     0.16933     0.15601
0.27132     0.18167     0.06961    0.022512    -0.20908     0.16608     0.15991
0.31451     0.17517    0.069934  -0.0099683     -0.4699     0.14107     0.15763
0.34245     0.16705    0.063438     -0.0405    -0.68719     0.11054     0.14626
0.34764     0.15991    0.054344    -0.06551     -0.8824    0.087799      0.1245
0.32328     0.15601    0.048172   -0.084024     -1.0851    0.074806     0.09397
0.26027     0.14951    0.040702    -0.10156     -1.3043    0.062789    0.058566
0.15114     0.13035    0.028034    -0.11618     -1.5161    0.042001    0.025436
0.0039985    0.092021     0.01017     -0.1269     -1.6772   0.0088706  -0.0047713
-0.15126    0.037129   -0.007045     -0.1308     -1.7415   -0.026533   -0.028482
-0.27761   -0.022311    -0.01549     -0.1256     -1.6785   -0.051219   -0.042124
-0.34582   -0.068434   -0.013866    -0.11098      -1.483   -0.055766   -0.043423
-0.34744   -0.093444  -0.0021729   -0.084999       -1.19   -0.040825   -0.033354
-0.29645   -0.097017    0.016016   -0.051868    -0.86778   -0.015815   -0.017764
-0.22369   -0.084349    0.034855   -0.017439    -0.59332    0.011144  -0.0021729
-0.16003   -0.067784    0.045899   0.0056225    -0.41305    0.028684   0.0095202
-0.123   -0.058365    0.045574   0.0095202    -0.33575    0.036804     0.01764
-0.11748   -0.063886    0.034855  -0.0067202     -0.3377    0.037129    0.027385
-0.1334     -0.0824    0.014068   -0.039526    -0.36985    0.041676    0.038103
-0.15613    -0.10838   -0.012892   -0.082076    -0.38447    0.056292    0.044599
-0.17107    -0.13437   -0.040825     -0.1256    -0.34744    0.079679    0.044599
-0.16912    -0.15386   -0.059989    -0.16133    -0.22824     0.10339    0.041351
-0.14834    -0.15873   -0.064536    -0.17465   -0.015815     0.11313    0.037129
-0.11163    -0.14671   -0.052843    -0.16198     0.24078    0.098517     0.03583
-0.064861    -0.12105   -0.032055     -0.1308     0.45581    0.063438     0.03518
-0.016464   -0.090196   -0.012892   -0.096692     0.54935    0.022188    0.031607
0.022837   -0.063561  -0.0044465   -0.075579     0.50842   -0.012567    0.021538
0.042975   -0.045047  -0.0063954   -0.067784     0.40481   -0.037902   0.0033489
0.0433   -0.037577   -0.013866   -0.066485     0.34407   -0.051868   -0.013541
0.032257   -0.036278   -0.022961   -0.062912     0.38857   -0.054467   -0.026209
0.01894   -0.036602   -0.027833   -0.056741      0.5094   -0.051219   -0.033354
0.012443   -0.033354   -0.027833   -0.051544     0.60099   -0.045372   -0.034654
0.015692   -0.027833   -0.026533   -0.047971     0.57696   -0.046671    -0.03173
0.025436   -0.021986   -0.026858   -0.046671     0.47172   -0.071032   -0.029782
0.038103    -0.01614   -0.026858   -0.049595     0.41618      -0.123   -0.028807
0.047523  -0.0063954   -0.026533   -0.059664      0.5133    -0.19803   -0.035953
0.045249   0.0046481   -0.026533   -0.075579     0.70851    -0.28151   -0.052843
0.029983    0.014392   -0.028482   -0.096042     0.82154    -0.35556   -0.076229
0.0059473    0.019264    -0.03173    -0.12008     0.70591    -0.40363    -0.10059
-0.015165     0.01894   -0.031081    -0.14281       0.347    -0.41143    -0.11293
-0.025884    0.019589   -0.027833    -0.16035     -0.1334    -0.37635    -0.10838
-0.029782    0.023162   -0.020037     -0.1688    -0.56344    -0.30619   -0.084349
-0.033354    0.031607  -0.0060706    -0.16295    -0.81484    -0.21882   -0.050569
-0.050244    0.044599    0.014717    -0.14152    -0.85089    -0.13112   -0.022961
-0.11033    0.059216    0.044924    -0.10579    -0.72649   -0.058365   -0.012567
-0.24838    0.061165    0.080653    -0.06616    -0.53551   -0.011917   -0.024585
-0.46567    0.036479     0.10891   -0.038227    -0.35394   0.0026992   -0.056741
-0.72032   -0.014191     0.12093   -0.033354    -0.22369   -0.013866    -0.10254
-0.94574   -0.084024     0.10794   -0.051544    -0.15418   -0.056091    -0.15678
-1.0666     -0.1597    0.064413    -0.09182    -0.13015    -0.10968    -0.21265
-1.0299    -0.23246   -0.010618    -0.14899     -0.1282    -0.15386     -0.2552
-0.82686    -0.30229    -0.10676    -0.20843    -0.12625     -0.1714    -0.27209
-0.49523    -0.36271    -0.19998    -0.24838    -0.10416    -0.15126    -0.25195
-0.080451    -0.39194    -0.26787    -0.24708   -0.046671   -0.093769    -0.19381
0.38272    -0.36401    -0.29223    -0.19738    0.041676  -0.0060706    -0.10026
0.87481    -0.25422    -0.26916    -0.11358     0.14107    0.098517    0.021538
1.3708   -0.055116    -0.20583   -0.027183     0.23331     0.20148     0.15211
1.796     0.19693    -0.12365    0.031607     0.29762     0.28301     0.26352
2.0425     0.43404   -0.045372    0.049147     0.31094     0.32588     0.32686
2.0298     0.59222    0.013093    0.033231      0.2619     0.32848       0.334
1.7599     0.63705    0.048172   0.0026992     0.16445     0.30152     0.30087
1.311     0.57371    0.062789   -0.018413     0.05142      0.2619     0.25507
0.8014     0.44086    0.062139   -0.017114   -0.027508     0.22584     0.21707
0.34375     0.29405    0.055318    0.010495   -0.036927     0.19986     0.19434
0.014068     0.17777    0.048822    0.051745   0.0043233     0.18654     0.18069
-0.16328     0.11638    0.044275    0.091696    0.055318     0.18004     0.16478
-0.20485     0.11281    0.040052     0.11476    0.098193     0.18102     0.14496
-0.15256     0.15406    0.036154     0.11606     0.14691     0.18849     0.11995
-0.059014     0.20733    0.035505     0.10339     0.21188     0.19921    0.096569
0.027385     0.23559    0.032906    0.089098     0.27002     0.20505    0.079029
0.078055     0.21512    0.025761    0.080003     0.28723     0.20473    0.066686
0.0852     0.14594    0.015042    0.079679     0.24793     0.20668    0.062789
0.055643    0.042651   0.0033489    0.084876     0.14204      0.2161    0.064413
0.0020496   -0.069408  -0.0060706    0.091372   -0.063886     0.23104    0.067986
-0.060313    -0.16003   -0.011592    0.092021    -0.43839     0.23461    0.069285
-0.11748    -0.20583   -0.014191    0.080653     -1.0039     0.21188    0.061814
-0.16295    -0.19738   -0.012567    0.060515      -1.646     0.15926    0.042975
-0.19868    -0.13989  -0.0028225    0.042326     -2.1508    0.089748    0.013743
-0.23409   -0.054792    0.015042    0.036804     -2.3314    0.019914   -0.016789
-0.27274    0.031607     0.03518    0.048172     -2.1082    -0.03238   -0.040175
-0.30619    0.099817     0.05142    0.071883     -1.5405   -0.062587   -0.055116
