0.24598     0.32751     0.11248    -0.15386    -0.36173    -0.23798    0.055318
0.24468     0.32848     0.11866     -0.1269    -0.53973    -0.18731     0.03453
0.23591     0.31127     0.10696    -0.11228     -0.7645    -0.14476   0.0075714
0.22129     0.26742    0.078055    -0.10741    -0.98829    -0.11293    -0.02426
0.207     0.19791    0.032906    -0.10903     -1.1429   -0.094418   -0.060963
0.19888     0.11508   -0.018088    -0.11066      -1.166   -0.086298   -0.094743
0.19304    0.036479   -0.062587    -0.10514     -1.0295   -0.076229    -0.11878
0.1716   -0.032055   -0.090196   -0.087597    -0.75248   -0.053817    -0.11975
0.11638   -0.088572    -0.10026   -0.055766    -0.39324    -0.01484   -0.092794
0.019264    -0.13112   -0.097017  -0.0080194   -0.028482    0.040702   -0.047646
-0.10384    -0.15516   -0.088247    0.054668     0.27489     0.10242   0.0033489
-0.21687    -0.15483   -0.082076     0.11963     0.47984     0.15438    0.045899
-0.28086     -0.1256   -0.078827     0.17355     0.57663     0.18492    0.063113
-0.28021   -0.070382   -0.077853     0.20895     0.57988     0.19141     0.05142
-0.22856  -0.0015233    -0.07428     0.22324     0.52434     0.17972    0.020239
-0.15873    0.069285   -0.066485      0.2187     0.45808     0.16056   -0.011917
-0.10156     0.12775   -0.054142     0.20343     0.42527     0.14659   -0.037252
-0.075579      0.1651   -0.033354     0.18362     0.45516     0.14302   -0.053168
-0.085324     0.17874    -0.01614     0.15958      0.5435     0.14464   -0.061288
-0.1321      0.1742    -0.01614     0.12385     0.66303     0.14367   -0.067784
-0.20355     0.15049   -0.037252    0.074157     0.76567     0.13132   -0.079152
-0.27404     0.11183   -0.072981    0.013743     0.79588     0.10696   -0.096367
-0.32113    0.054344    -0.11163   -0.047971     0.71987    0.073507    -0.11618
-0.33185    -0.02426    -0.13859    -0.10514     0.55227    0.038753    -0.13404
-0.30749    -0.10968    -0.14541    -0.14639      0.3431    0.011794    -0.14639
-0.25715    -0.17627    -0.13502    -0.16393     0.14237   -0.010293    -0.15386
-0.19186    -0.19933    -0.11098    -0.16035   -0.043099   -0.035303    -0.15646
-0.12527      -0.174   -0.081426    -0.14639    -0.27436   -0.072656    -0.15418
-0.064536    -0.11521   -0.055116     -0.1334    -0.62093    -0.12463    -0.14801
-0.0063954   -0.047321   -0.038227    -0.12203     -1.0724    -0.18861    -0.14704
0.048822     0.01017   -0.029457    -0.10871     -1.4986    -0.25877    -0.15418
0.092996    0.053694   -0.023935   -0.094418     -1.7146    -0.32666    -0.16425
0.11313    0.082927   -0.017114   -0.077853     -1.6002    -0.37895      -0.161
0.10826     0.10112   -0.007045   -0.059339      -1.166    -0.40591    -0.13372
0.097543     0.11541    0.010495   -0.045697    -0.55435    -0.41176   -0.081426
0.094945     0.12872    0.037454   -0.042449    0.047847    -0.40169   -0.010943
0.10436     0.14756    0.072533   -0.046347     0.49316    -0.38187    0.065712
0.1232     0.16933     0.10599   -0.048296     0.72247    -0.36011     0.13457
0.14626     0.18459     0.12613    -0.04862     0.74651    -0.34322     0.18134
0.16543     0.18654     0.13197    -0.04862     0.61659    -0.33478     0.20246
0.17192     0.16705      0.1245   -0.052518     0.39312    -0.33283     0.20278
0.15991     0.12353     0.10436   -0.071032     0.13587    -0.33218     0.19076
0.1258    0.060515    0.072858    -0.11618    -0.10156    -0.32698     0.17225
0.074806  -0.0076946    0.036479    -0.19381    -0.27728    -0.31691     0.14626
0.025111    -0.06551   0.0072465    -0.29158    -0.37213    -0.30035     0.11378
-0.0047713    -0.10351  -0.0054209    -0.38577    -0.38869    -0.27111    0.079354
-0.0057458    -0.11813  -0.0021729    -0.45333    -0.35459    -0.22434    0.056617
0.01764    -0.11228    0.009845    -0.48386    -0.30165    -0.15646    0.054344
0.065712   -0.092794    0.025436    -0.48191    -0.23474   -0.074605    0.071883
0.12905   -0.067134    0.039078    -0.45853    -0.13534   0.0056225     0.10112
0.19336   -0.038876    0.046873     -0.4267    0.016666    0.065712     0.12418
0.24598   -0.011592    0.053044    -0.39584     0.21188     0.09462     0.12807
0.27651    0.014392     0.06084    -0.36628     0.42105    0.094295     0.11541
0.28138    0.039402    0.074157     -0.3338     0.60782    0.080328    0.098193
0.26222    0.063113    0.090722    -0.28443      0.7254    0.071883    0.089098
0.22941    0.082602     0.11216    -0.21525     0.74553    0.077405    0.092996
0.19271    0.094945     0.13912    -0.13275     0.67115    0.092671     0.10274
0.15568    0.099167     0.16673   -0.046996     0.53084     0.11216     0.10826
0.11671    0.092996     0.18816    0.037454     0.37006     0.12937     0.10177
0.06961    0.078055     0.19953     0.12548     0.23494     0.15276    0.087474
0.017316    0.058566     0.19628     0.22065     0.16153     0.18557    0.073507
-0.031406    0.043625      0.1781     0.31549     0.15471     0.22389    0.066686
-0.070707    0.037129     0.15731     0.39539     0.20116     0.25507    0.065712
-0.097017    0.036804     0.14432     0.44606     0.27359     0.27164    0.065712
-0.11033    0.036804     0.14334       0.461     0.34862     0.26839    0.064088
-0.10936     0.03518     0.14659     0.45093     0.40871     0.24955    0.056617
-0.097991    0.030957     0.14561     0.42755     0.44411     0.22259    0.044924
-0.080776    0.025111     0.13814     0.40254     0.44704     0.18914    0.028359
-0.057065    0.021863      0.1245     0.38013      0.4165     0.15341   0.0075714
-0.029132    0.021538     0.10664     0.35544     0.35706     0.12548   -0.011592
-0.0021729    0.025761    0.089098     0.32198     0.27716     0.11606   -0.028807
0.015692    0.030957    0.075131     0.27261     0.18654     0.13002   -0.044398
0.023812    0.032582    0.064088     0.20928    0.095269     0.16088   -0.056741
0.024461     0.02641    0.055968     0.14724    0.012119     0.19076   -0.063886
0.020888    0.013093    0.047523     0.10729   -0.052518     0.21025   -0.065835
0.013743  -0.0028225    0.039727    0.093645   -0.092145     0.22097   -0.063237
0.0036737   -0.017439     0.03583     0.10047    -0.11618     0.22584    -0.05739
-0.0093186   -0.028807    0.033881     0.11313    -0.14736     0.22259   -0.051544
-0.021012   -0.036602    0.030308     0.12678    -0.21037      0.2096   -0.055441
-0.033354   -0.042774    0.021863     0.13847    -0.32731     0.18069   -0.072656
-0.044398   -0.045372    0.008221     0.14724     -0.5001     0.13912   -0.096042
-0.053817    -0.04862  -0.0024977     0.16185    -0.70408    0.093645    -0.11521
-0.062262   -0.051868  -0.0099683     0.18719     -0.8876    0.064088    -0.12105
-0.069733   -0.059014   -0.013216     0.22162    -0.99641    0.061814    -0.11293
-0.076229   -0.068758   -0.011592     0.25962      -1.001    0.087474   -0.092469
-0.078178   -0.072981  -0.0083442     0.29568    -0.91131      0.1349    -0.06551
-0.072981   -0.069408  -0.0054209     0.33303    -0.75248     0.19336   -0.040825
-0.063237   -0.059664  -0.0076946     0.37071    -0.55889     0.24273   -0.024585
-0.053817   -0.046996   -0.014191     0.40221    -0.36466     0.26579   -0.020687
-0.045697   -0.032705   -0.024585      0.4204    -0.19413     0.25572   -0.029782
-0.040175   -0.019712   -0.034004     0.42365   -0.061613        0.22   -0.044398
-0.035303  -0.0073698   -0.042774     0.40806    0.033231     0.16998   -0.056416
-0.030431      0.0014   -0.046022     0.37395    0.095919     0.11833   -0.059339
-0.026533   0.0046481   -0.045372     0.32426     0.13295    0.074806   -0.050894
-0.026533  -0.0024977   -0.043099     0.26612     0.14561    0.039727   -0.037252
-0.030431   -0.020362   -0.044723     0.19986     0.12353    0.012119   -0.019063
-0.036927   -0.044073   -0.053492     0.13035    0.066686  -0.0041217 -0.00087364
-0.038227   -0.066485   -0.069733    0.067986  -0.0063954   0.0033489    0.010495
-0.030756   -0.077528   -0.085648    0.024137    -0.06681    0.038753    0.016666
-0.010618   -0.071032   -0.090521  -0.0018481    -0.10059    0.093321     0.01894
0.015042   -0.046996     -0.0837   -0.014191    -0.10579     0.15081    0.016341
0.033556    -0.01549   -0.070707   -0.020037   -0.092145     0.19141   0.0078962
0.037778    0.013418   -0.059014   -0.029132   -0.064211      0.2044  -0.0047713
0.034855    0.032906   -0.054792   -0.046996   -0.023935     0.18979   -0.018413
0.030957    0.036804   -0.059664   -0.068109     0.02706     0.15568   -0.026858
0.029983    0.028034   -0.069733   -0.089546    0.087799     0.11281   -0.026209
0.025436   0.0075714   -0.079802    -0.11131     0.15926    0.066037    -0.01549
0.0085458   -0.017439   -0.086623     -0.1308     0.25507    0.015692  -0.0041217
-0.026209   -0.038876   -0.086948    -0.13957      0.3837   -0.040175 -0.00087364
-0.071682   -0.051219   -0.078178     -0.1321     0.53668   -0.093769  -0.0057458
-0.11715   -0.051868   -0.063886    -0.11293     0.68577    -0.12917  -0.0080194
-0.15646   -0.042449   -0.043748   -0.090521     0.80173    -0.13242   0.0085458
-0.18894   -0.027833   -0.022961   -0.075579     0.86571   -0.093444    0.048822
-0.21622  -0.0083442  -0.0024977   -0.077528     0.87026   -0.019063     0.10599
-0.23376    0.015042    0.017965   -0.097341     0.81602    0.065062     0.16185
-0.23701    0.041351    0.033231    -0.13047     0.70948     0.12288     0.19661
-0.22142    0.062789    0.042001    -0.17172      0.5539     0.12743     0.19369
-0.18536    0.070584    0.045574    -0.21525     0.34147    0.073507     0.15406
-0.12885    0.058241    0.049147    -0.25812    0.044924   -0.027833    0.097218
-0.053168    0.023487    0.053369    -0.29547    -0.33835    -0.15158    0.047198
0.029009   -0.020362    0.054668    -0.32178    -0.76255    -0.26916    0.017316
0.095269   -0.051544    0.048172    -0.34257     -1.1484    -0.35654    0.010819
0.12125   -0.052843    0.028359    -0.36011      -1.419    -0.39844    0.016991
0.10534   -0.021012 -0.00054884    -0.36726     -1.5206    -0.38707    0.024786
0.071883     0.03518    -0.02426    -0.35459     -1.4404    -0.32146    0.035505
0.056617     0.10209   -0.030106    -0.31659     -1.2134    -0.20648    0.048172
0.080978      0.1638   -0.016789     -0.2591    -0.89247   -0.064536    0.064088
0.14886     0.21025   0.0056225    -0.19186    -0.53616     0.07773    0.080978
0.2502     0.24533    0.031607    -0.12203    -0.20128     0.19434    0.094945
0.36064     0.27684     0.05207   -0.054792    0.070259     0.27326     0.10047
0.44931     0.30185    0.060515   0.0020496      0.2528     0.31581    0.097543
0.49381     0.30802    0.056292    0.045249     0.33887     0.32816    0.089748
0.48569     0.28853    0.044275    0.075131     0.34017     0.32458    0.081952
0.43209     0.23948    0.030957    0.094295     0.27229     0.31451    0.078379
0.33985     0.16868    0.024137     0.10859     0.13782     0.30152    0.083251
0.22389    0.088448    0.026735     0.12125   -0.045372     0.27684    0.092021
0.10404     0.01017    0.033881      0.1362    -0.22207     0.22617    0.096893
0.003024   -0.056091    0.037129     0.15309     -0.3338     0.14854     0.09397
-0.058689   -0.097991    0.031932     0.17192     -0.3442    0.064088    0.085525
-0.081101    -0.10644    0.016991     0.19141    -0.26169 -0.00022403    0.074806
-0.074605   -0.079152  -0.0047713     0.21155    -0.11878   -0.030431    0.067986
-0.052193   -0.030756   -0.025559     0.23006     0.03453   -0.043099    0.064088
-0.024909    0.018615   -0.035628     0.24923     0.15146    -0.06616    0.057267
0.0020496    0.050446    -0.03238     0.26742     0.20603    -0.11196    0.042326
0.023487    0.054019   -0.023935     0.28008     0.19791    -0.16523     0.01829
0.033231    0.033881    -0.01484     0.28756     0.14724    -0.20096   -0.011267
0.02641   0.0036737  -0.0073698     0.29048    0.080978     -0.2068   -0.036278
0.0088706   -0.024909 -0.00087364      0.2895    0.021863    -0.18894   -0.055441
-0.0096434   -0.041799   0.0039985     0.28398   -0.013216    -0.16588   -0.069733
-0.025234   -0.046022   0.0091954     0.27326  -0.0060706    -0.15418   -0.081751
-0.036927   -0.045047     0.01764      0.2606    0.054668    -0.16523   -0.087922
-0.043748   -0.040825    0.026735     0.24858     0.16705    -0.20453   -0.084349
-0.044723   -0.028807    0.032582     0.23689     0.30867    -0.27111   -0.066485
-0.039851   -0.010293    0.033231     0.21642     0.44021    -0.35069   -0.035628
-0.027833   0.0065969    0.028034     0.18459     0.52596    -0.42735  -0.0011985
-0.013866    0.015692    0.012443     0.14529     0.56851    -0.48289    0.027709
-0.0057458    0.012443   -0.019063     0.10729     0.61139    -0.50855    0.041676
-0.0096434  -0.0015233   -0.058689    0.073507     0.70071     -0.5001    0.039727
-0.028482   -0.021986   -0.096367    0.046223     0.84168    -0.46015    0.027709
-0.062912   -0.042774    -0.12625     0.02706     0.99304    -0.40006    0.011794
-0.10644   -0.060313    -0.14671    0.018615      1.0976     -0.3312    0.003024
-0.15029   -0.070058    -0.15808    0.018615      1.1217    -0.26592   0.0075714
-0.18114   -0.074605    -0.16295    0.023812      1.0616    -0.21232    0.024461
-0.19089   -0.077203     -0.1649    0.028359     0.93685    -0.17627    0.041676
-0.18277   -0.080127    -0.16523    0.030633     0.78256    -0.15776    0.048497
-0.16165   -0.083375    -0.16458    0.028359     0.62925    -0.14964    0.042001
-0.1334   -0.088247    -0.16393    0.020564     0.49283    -0.14119    0.029658
-0.10351   -0.087597    -0.16393    0.010495     0.37818    -0.11456    0.016016
-0.069083   -0.075579    -0.16588  0.00042559     0.29373   -0.063237   0.0043233
-0.027833   -0.048296    -0.16685   -0.008669     0.24695    0.017316  -0.0060706
0.018615  -0.0067202    -0.16425   -0.018413     0.22812     0.12418   -0.011267
0.06896    0.042651    -0.15808   -0.030756     0.21382     0.24046  -0.0089938
0.11541    0.082602    -0.14834   -0.046671     0.17582     0.34472  -0.0034721
0.14626    0.098193    -0.13599    -0.06616     0.10144     0.41943   0.0033489
0.15341    0.084226    -0.12268    -0.09117   0.0010752     0.45256   0.0069217
0.13782    0.050771    -0.11033    -0.11845   -0.094743     0.44151   0.0046481
0.10729    0.016341   -0.098641    -0.14379     -0.1597     0.39702  -0.0050961
0.072533   -0.008669   -0.088247    -0.16295    -0.18407      0.3366    -0.02361
0.038753   -0.020037    -0.07428    -0.17335    -0.17627     0.27489   -0.047321
0.0069217   -0.022961   -0.054142    -0.17594    -0.14346     0.22194   -0.068758
-0.021661   -0.022961   -0.027833     -0.1675    -0.08305     0.18394   -0.086948
-0.048296    -0.02426   0.0023744    -0.15029    0.012768     0.16056   -0.097991
-0.067784   -0.029457    0.037778    -0.12852      0.1336     0.14204   -0.097666
-0.075904   -0.037577    0.076431    -0.11131     0.24176     0.11378   -0.087272
-0.071032   -0.044723     0.11378    -0.10124     0.26937    0.067336   -0.076229
-0.061288   -0.044723     0.14399   -0.096367     0.14107  0.00075039   -0.071682
-0.055441   -0.036278     0.16445   -0.095393    -0.18309   -0.077528   -0.079152
-0.058365   -0.021661     0.17257   -0.094418     -0.6742    -0.15776    -0.09182
-0.066485  -0.0080194      0.1716   -0.092469     -1.2387    -0.22759    -0.10286
-0.074605  -0.0015233     0.16835   -0.088572      -1.736    -0.28735    -0.11001
-0.081101  -0.0060706     0.17257   -0.093444     -2.0215    -0.33445    -0.10968
-0.087272   -0.019712     0.18784     -0.1191     -2.0247    -0.36856    -0.10936
-0.10221   -0.036278     0.21025     -0.1649     -1.7863    -0.39584    -0.11163
-0.12982   -0.046996     0.23299    -0.21849     -1.4216    -0.41955    -0.11845
-0.16653    -0.04927     0.24923    -0.27241     -1.0614    -0.43774    -0.12917
-0.20583   -0.047646     0.25313    -0.32763    -0.79081    -0.44294    -0.14281
-0.23214   -0.044723     0.24566    -0.37895     -0.6258    -0.43547     -0.1597
-0.23766   -0.046022     0.22422     -0.4241    -0.52544    -0.41565    -0.17367
-0.22272   -0.055441     0.19239    -0.45625    -0.44164     -0.3835    -0.17822
-0.19154   -0.068434     0.15731    -0.47542     -0.3744    -0.33607     -0.1636
-0.13697   -0.076879     0.12678    -0.47802    -0.37635    -0.27566    -0.12852
-0.062262   -0.068434     0.10534    -0.46048    -0.49133    -0.21232   -0.080451
0.017316   -0.037252    0.099167    -0.42085    -0.68492    -0.15581   -0.035628
0.084876   0.0095202     0.10501    -0.35914    -0.85219    -0.11261  -0.0076946
0.12937    0.055968     0.11703    -0.28476    -0.87655    -0.08305  -0.0011985
0.15179    0.088448     0.12613    -0.20453    -0.71513   -0.057065  -0.0083442
0.16283     0.10242     0.12255    -0.11748    -0.41598   -0.024585   -0.014191
0.17485     0.09462     0.10501   -0.025234   -0.079802    0.016666  -0.0024977
0.18687    0.067336    0.076431    0.068635     0.20213    0.066362    0.029009
0.18557     0.02706     0.04395     0.15861     0.38532     0.11508    0.065387
0.15958   -0.013216   0.0091954     0.24403     0.48082     0.15211     0.09462
0.10794   -0.043748   -0.033679     0.31679     0.51882     0.17225     0.11281
0.047523   -0.061288   -0.094093     0.36811     0.53214     0.17939     0.12385
-0.0057458   -0.067459    -0.17952     0.38695     0.53636     0.17517      0.1297
-0.041475   -0.068434    -0.28638     0.37233     0.53376     0.16023     0.12548
-0.060313   -0.072006    -0.39292      0.3314     0.51784     0.13977     0.10794
-0.06681   -0.084349    -0.46567     0.27099     0.49024     0.12125    0.076106
-0.068109    -0.10709    -0.47769       0.207     0.46458     0.10826    0.035505
-0.069733    -0.13242    -0.42475     0.14886     0.45451     0.10404  -0.0060706
-0.072331    -0.14996    -0.32893    0.094945     0.47107     0.10664   -0.045372
-0.073631    -0.15126    -0.22239    0.043625     0.51622     0.10859   -0.079477
-0.070382    -0.12852    -0.12885  -0.0080194     0.57826     0.10436    -0.10351
-0.061288   -0.084024   -0.062912   -0.056741      0.6325    0.091047    -0.11131
-0.045372   -0.026858   -0.031081   -0.094418     0.65166    0.068635    -0.10156
-0.028157    0.029658   -0.030106    -0.10774     0.62016    0.045249   -0.078503
-0.0093186    0.070259   -0.053817   -0.089221     0.54513    0.031932   -0.050244
0.019264    0.086175   -0.093769   -0.042449     0.44476    0.034855   -0.021012
0.069285     0.07708    -0.13697     0.01829     0.34375    0.049796   0.0020496
0.13879    0.051096    -0.17367    0.074806     0.26027    0.069934    0.014392
0.22519    0.028359    -0.19478     0.11703     0.20213    0.087149    0.015692
0.31386     0.02641    -0.19511     0.14432      0.1677    0.095594   0.0075714
0.38727    0.052395     -0.1701     0.15926     0.14496    0.095269  -0.0024977
0.41748     0.10177     -0.1217     0.16738     0.12743     0.09462  -0.0041217
0.37623     0.14919   -0.056741      0.1703     0.11281     0.10631    0.017965
0.25118      0.1755    0.014717      0.1651    0.096893     0.14009    0.069934
0.061814      0.1703    0.080653     0.14789    0.080653     0.19758     0.14237
-0.14996     0.14009      0.1323     0.11703    0.076431     0.26547     0.21512
-0.34062    0.092346     0.15828    0.070909    0.099492     0.32296     0.26222
-0.48126     0.03453     0.14984    0.010495     0.15503     0.35382     0.27391
-0.5524   -0.027183     0.11151   -0.064536     0.22552       0.347     0.25443
-0.55077   -0.083375    0.066037    -0.14606     0.26222     0.30834     0.21675
-0.48321    -0.12495    0.037454     -0.2172     0.21058     0.25215     0.18199
-0.36173    -0.14704     0.03583    -0.27014    0.064088     0.19239     0.16315
-0.2081    -0.15353     0.05272    -0.30197    -0.12852       0.131     0.15633
-0.046996    -0.15288    0.074806    -0.31171    -0.29807    0.070259     0.14561
0.092346    -0.14639    0.092021      -0.301    -0.39454    0.015692     0.12255
0.19369    -0.11715     0.10566    -0.27079    -0.39519   -0.024909    0.089098
0.25475     -0.0405     0.12515    -0.22564    -0.30782   -0.044398    0.050771
0.27879    0.087799     0.14951    -0.17075    -0.16555     -0.0405    0.015042
0.26709     0.23948     0.17095    -0.11651   -0.015165    -0.01614  -0.0083442
0.22747     0.36583     0.18459    -0.06616     0.11054    0.024137   -0.016789
0.169      0.4308     0.18946   -0.014516     0.20635     0.07773   -0.018088
0.092996     0.42365     0.18849    0.041027     0.28496     0.13977   -0.017114
0.0065969     0.35576     0.18264     0.10761     0.34375     0.20895   -0.013541
-0.084674     0.24825     0.17322     0.18427     0.35641     0.27781  -0.0060706
-0.17465     0.13002     0.15731     0.25962     0.28788     0.33725    0.003024
-0.26137    0.026735     0.13555     0.31322     0.13035      0.3772    0.008221
-0.33737   -0.045372     0.10469     0.32783   -0.072981     0.39409    0.008221
-0.38999   -0.076554    0.066686     0.30152    -0.24708     0.38922   0.0056225
-0.40526   -0.070058    0.030957     0.24793    -0.33218     0.37071   0.0049729
-0.36856   -0.039526   0.0049729     0.18946    -0.30035     0.34635    0.010495
-0.27858  -0.0031473  -0.0031473     0.14302    -0.16165     0.31809    0.023487
-0.14249    0.028359   0.0065969     0.11638     0.05207     0.28268    0.039078
0.024786    0.056292    0.026735     0.11183     0.28398     0.23071    0.047523
0.20603    0.089423    0.049796     0.12515     0.47335      0.1651    0.045899
0.38435      0.1336    0.066686     0.14951     0.57176    0.092996    0.040702
0.54091     0.18427     0.07773     0.17485     0.56332     0.01764    0.040702
0.65102     0.23234    0.084876     0.19693      0.4649   -0.067784    0.048497
0.69356     0.26677    0.087799     0.22259     0.31419    -0.17042    0.054019
0.66498     0.27391    0.085525     0.26157     0.15146    -0.28833    0.047523
0.57728     0.24663    0.082277     0.31776 -0.00087364    -0.41013    0.027709
0.45743     0.19206    0.082602     0.38565    -0.14022    -0.52706  0.00010078
0.33563     0.12223    0.090397     0.45516    -0.27793    -0.63815   -0.028482
0.23721    0.057267     0.10274     0.51265    -0.42312    -0.74761   -0.052193
0.16933    0.011794     0.11736     0.55195    -0.55954    -0.85934   -0.064211
0.13002   -0.010943     0.13327     0.56981    -0.65114    -0.97075   -0.068434
0.10209   -0.017439     0.14529     0.57014    -0.66608     -1.0649   -0.072981
0.067011   -0.019712     0.14561      0.5552    -0.57708     -1.1234   -0.087272
0.019264   -0.031081     0.12385     0.52109    -0.36856     -1.1351    -0.11261
-0.033679   -0.058689    0.077405     0.46165   -0.065186     -1.0994    -0.15029
-0.080776   -0.098316    0.013418     0.37428     0.27261     -1.0185    -0.19121
-0.10871    -0.14216   -0.057065      0.2593     0.56949    -0.89539    -0.22467
-0.10936    -0.18082    -0.11715     0.12775     0.76632    -0.73104    -0.23214
-0.081426    -0.20388    -0.15256 -0.00087364     0.82933    -0.53875    -0.20518
-0.035953    -0.20388    -0.15938    -0.11228     0.75625    -0.34257    -0.15158
0.015367    -0.17919    -0.14119    -0.20323     0.56104     -0.1597   -0.088896
0.066686    -0.13177    -0.10546    -0.28281     0.25767  -0.0034721   -0.035628
0.11638   -0.069733   -0.061937    -0.35686    -0.12592     0.12678 -0.00054884
0.15926  -0.0031473   -0.020687    -0.42475    -0.53323     0.23981     0.01894
0.19661    0.063113   0.0078962    -0.48256     -0.8798     0.34277     0.03453
0.21642     0.12028    0.017965    -0.52511     -1.0805     0.44281    0.057917
0.20311     0.15341    0.011144     -0.5459     -1.0942     0.54253    0.090072
0.14789     0.15796  -0.0044465    -0.54005    -0.93697     0.63997     0.13002
0.056617     0.13717   -0.020362     -0.5092     -0.6807      0.7267     0.16933
-0.055116    0.099492   -0.029782    -0.45918     -0.4189     0.78678     0.19791
-0.15873    0.054668   -0.033354    -0.40006    -0.22694     0.80855      0.2083
-0.23214    0.015042   -0.036927    -0.34257    -0.13372      0.7949     0.19856
-0.26527   -0.013541   -0.043748     -0.2906    -0.12398     0.76242     0.17777
-0.25975   -0.024909   -0.052518    -0.24448    -0.16068     0.72605     0.15341
-0.22791   -0.023935   -0.055116    -0.20355    -0.20193     0.68577     0.13197
-0.18471   -0.019388   -0.048945     -0.1662    -0.21882     0.63867     0.11054
-0.13989   -0.021012   -0.034978     -0.1243     -0.2133     0.57339    0.083901
-0.097341   -0.027833   -0.017439   -0.072006    -0.19478     0.48504    0.057917
-0.062262   -0.035303 -0.00022403  -0.0076946    -0.17172     0.38078     0.03518
-0.038551   -0.041799    0.015692    0.065712    -0.15646     0.27586     0.01829
-0.030431   -0.046347    0.031607     0.14237    -0.16035     0.18167   0.0062721
-0.035953   -0.047646    0.044924     0.21285    -0.18049     0.10794  -0.0050961
-0.048945   -0.046671     0.05142     0.27359    -0.20063    0.061165   -0.011917
-0.061288   -0.042449    0.053694     0.32491    -0.20713    0.039727   -0.011267
-0.068434   -0.037577    0.057267     0.36648    -0.18894    0.036804  -0.0024977
-0.07493   -0.037252    0.062139     0.39767    -0.14899    0.044924    0.009845
-0.084999   -0.044073    0.063438     0.41975    -0.10124    0.057917    0.015367
-0.098965   -0.055116    0.064413     0.43469   -0.051219    0.072858    0.011469
-0.11326   -0.063886    0.065387     0.43859    0.011469    0.086175  0.00075039
-0.12333   -0.065186    0.066686     0.42885    0.093645    0.090072  -0.0093186
-0.12755   -0.061288    0.063763     0.41033     0.20083    0.084226   -0.013866
-0.12398   -0.054467    0.056942     0.38013     0.32556    0.067661   -0.011267
-0.11358   -0.046022    0.035505     0.33368     0.45093    0.042975  -0.0037969
-0.10026   -0.040825   -0.008669     0.27164      0.5552   0.0091954   0.0056225
-0.088247   -0.042774   -0.072981     0.19986     0.62081   -0.032055    0.010819
-0.081101    -0.04992    -0.13892      0.1232      0.6377   -0.076879   0.0085458
-0.077853   -0.061937    -0.18699    0.047523     0.61366    -0.12592      0.0014
-0.075579   -0.076229     -0.2055   -0.017114     0.57339    -0.17952   -0.010943
-0.07428   -0.084674    -0.19738   -0.064536      0.5435    -0.22824   -0.029782
-0.072981   -0.085324    -0.16685   -0.089221     0.53538    -0.26137   -0.051868
-0.07493   -0.078178    -0.12495   -0.091495     0.54545    -0.27469   -0.073306
-0.078827    -0.06551   -0.082725   -0.077528     0.55974    -0.26949   -0.089221
-0.084024   -0.053168   -0.047321   -0.053817     0.56202     -0.2565   -0.098316
-0.084674   -0.043423   -0.025234   -0.030431     0.53798    -0.24286    -0.10026
-0.079152   -0.035303    -0.01549   -0.017764     0.47757    -0.22726   -0.095393
-0.070382   -0.027833    -0.01614   -0.015165     0.38402     -0.2081   -0.090521
-0.063237   -0.026209    -0.02361   -0.020687     0.27002    -0.18699   -0.087922
-0.05804   -0.031406   -0.035303   -0.028482     0.15276     -0.1636   -0.090521
-0.051219   -0.043423   -0.045697   -0.034329    0.044599    -0.13957   -0.094093
-0.041799   -0.058365   -0.050569   -0.036602   -0.051544    -0.11553   -0.095068
-0.034654   -0.071682    -0.04862   -0.032055     -0.1256   -0.093769   -0.090196
-0.03238   -0.079802   -0.040825   -0.023285     -0.1649   -0.077203   -0.079802
-0.034329   -0.078503    -0.03173   -0.011267    -0.16263    -0.06551   -0.062912
-0.035953   -0.070058   -0.025559 -0.00054884    -0.12592   -0.056091   -0.043423
-0.03303   -0.057715   -0.024909   0.0069217   -0.079802    -0.04862   -0.029782
-0.026209    -0.04992   -0.027183    0.012119   -0.051544   -0.050569   -0.026533
-0.017114    -0.04992   -0.030431    0.015692   -0.062587   -0.064536    -0.03173
-0.0076946   -0.057715   -0.035953    0.016341    -0.10871   -0.088572   -0.042124
-0.0024977   -0.067784   -0.044073   0.0072465    -0.18017    -0.11813   -0.053492
0.00042559    -0.07428   -0.053168   -0.014516    -0.27891    -0.14249   -0.063561
0.0062721   -0.069408   -0.061613   -0.039526    -0.41143    -0.15516   -0.071357
0.019914   -0.046671    -0.06616   -0.063886    -0.58065    -0.15418   -0.076229
0.036479  -0.0047713   -0.063886   -0.088247    -0.78723    -0.14249   -0.075904
0.041027     0.04395   -0.054142    -0.11748     -1.0013     -0.1243   -0.069733
0.023812    0.084226   -0.040825    -0.15483     -1.1708    -0.10611   -0.059339
-0.012567     0.10274   -0.027183    -0.19771     -1.2403   -0.088572   -0.045372
-0.055116     0.10047   -0.013216     -0.2448     -1.1692   -0.071032   -0.029132
-0.087597    0.083251   0.0023744    -0.28995    -0.94834   -0.052518   -0.012892
-0.10124    0.059216    0.017965    -0.32601    -0.61703   -0.033354  -0.0031473
-0.092469    0.033231    0.033231    -0.34874    -0.24903   -0.019388  -0.0018481
-0.067784   0.0056225    0.048172    -0.35394    0.071883   -0.010293  -0.0060706
-0.031406   -0.018738    0.062464     -0.3442     0.28626   0.0020496   -0.012567
0.015367   -0.030431    0.075781    -0.32601      0.3824    0.022512   -0.018088
0.065387   -0.023935    0.087149    -0.31106     0.38922     0.05142   -0.022961
0.11573  0.00075039    0.097868    -0.30457     0.34992    0.081303   -0.029457
0.16121    0.035505     0.10664    -0.30457     0.30672     0.10079   -0.037577
0.19823    0.066362     0.10566    -0.30749     0.28138     0.10794   -0.041475
0.2187    0.077405    0.089423    -0.31042     0.26709     0.10794   -0.033354
0.22097    0.061165    0.056617    -0.31529     0.22292     0.10761   -0.015165
0.20798    0.022512    0.013418    -0.32211    0.088773     0.10956   0.0026992
0.18492    -0.02361   -0.026858    -0.32633    -0.15321     0.10794    0.011469
0.15633   -0.057715   -0.062262    -0.32373    -0.44131    0.096893    0.014717
0.12905   -0.061613   -0.088896    -0.30814    -0.66348    0.070909    0.019914
0.10436   -0.022636    -0.10741    -0.27436    -0.71837    0.038428    0.034855
0.075781    0.051745    -0.11618    -0.22174     -0.5891    0.014392    0.064088
0.040702     0.14074    -0.11293    -0.15776      -0.339    0.012443     0.10664
0.012443     0.21642    -0.10091   -0.089546    -0.07428     0.03583     0.15601
0.0078962     0.26125   -0.078827   -0.026209      0.1206    0.065387      0.2044
0.037454     0.26872    -0.04927    0.031932      0.2174    0.081303     0.24111
0.088124     0.24566   -0.017764    0.084876     0.23754    0.065712     0.26255
0.14074     0.20538    0.014392     0.13165     0.21707    0.013093     0.26644
0.18134      0.1664    0.042975     0.16803      0.1729   -0.067459      0.2593
0.20863     0.14204    0.070259     0.19434     0.11573    -0.16393     0.24241
0.22714     0.13002    0.096893     0.20798     0.07708    -0.26299     0.22097
0.23818      0.1219     0.11736      0.2109    0.091047    -0.35914     0.19596
0.23721     0.11216     0.12483     0.20765     0.17615    -0.44976      0.1651
0.22292     0.10339     0.12093     0.20246     0.31419    -0.52511     0.12905
0.20018    0.097543     0.11054     0.19758     0.45386    -0.56864    0.093645
0.17745    0.090722    0.094945     0.18816     0.54578    -0.56604    0.063763
0.16445    0.077405    0.073507     0.16868     0.56007    -0.51277    0.038428
0.15991    0.055318    0.044275     0.13944     0.48276    -0.41793    0.013418
0.15633    0.023812    0.012768     0.10469     0.32134      -0.301   -0.011917
0.14464   -0.015165   -0.015165     0.07708    0.098517    -0.17984   -0.035628
0.12223   -0.053817   -0.034329    0.067661    -0.13859   -0.067134   -0.057715
0.095594   -0.084024   -0.052193    0.074157    -0.33283    0.031607   -0.080127
0.073507   -0.098316   -0.075579    0.094295    -0.43936     0.11248    -0.10124
0.056292   -0.097017    -0.11066      0.1258    -0.44878     0.17842      -0.123
0.040052   -0.087922    -0.14769     0.16088    -0.38967     0.23039    -0.14054
0.015692   -0.076229    -0.17172     0.19499    -0.30879     0.26969    -0.15191
-0.020687   -0.068434    -0.17659     0.22357    -0.24383     0.28918    -0.14866
-0.067784    -0.06681    -0.16458     0.24176    -0.20615     0.27651    -0.12657
-0.1178   -0.068758    -0.13827      0.2489    -0.18147     0.22389   -0.087597
-0.16653   -0.070707    -0.10676      0.2502    -0.14411     0.13392   -0.041799
-0.21525   -0.068109   -0.079152      0.2502   -0.076879    0.013093  -0.0080194
-0.26299   -0.056416   -0.057715     0.24955    0.024137    -0.12527   0.0020496
-0.29905   -0.037902   -0.038227     0.24825     0.14464    -0.26234   -0.008669
-0.31334    -0.01549   -0.018413     0.23786      0.2554    -0.38155   -0.030431
-0.30327   0.0072465   0.0026992     0.20213     0.33011    -0.47282   -0.052843
-0.27176    0.027709     0.01829      0.1336     0.34829    -0.52544   -0.062912
-0.23019    0.037129    0.021538    0.036154      0.3012    -0.53616   -0.057065
-0.18699    0.029333    0.011794   -0.075255     0.20376    -0.50855   -0.035953
-0.14704   0.0059473  -0.0063954    -0.18439     0.09397    -0.44586  -0.0047713
-0.11261   -0.026533   -0.028482    -0.27664   0.0065969    -0.34842    0.027385
-0.085648   -0.059339   -0.045047    -0.34842   -0.051219    -0.21752    0.056292
-0.064536   -0.078178   -0.046347    -0.40234   -0.096692   -0.060963    0.082277
-0.044073   -0.070707   -0.030431    -0.44586    -0.15093     0.10534     0.11054
-0.026858   -0.034004  0.00042559    -0.47867     -0.2159     0.26125     0.14269
-0.021661    0.023162    0.039078     -0.4975    -0.26332     0.38727     0.17225
-0.03238    0.079679    0.078055    -0.48906    -0.25617     0.47497     0.18979
-0.055116     0.11963     0.11281    -0.44001    -0.17887     0.52531     0.19271
-0.077203      0.1336     0.13977    -0.34939   -0.049595     0.54578     0.18037
-0.093119      0.1232     0.15731    -0.23831    0.087149     0.55065     0.15471
-0.10676    0.092996      0.1677    -0.13534     0.20213     0.55747     0.11606
-0.12235    0.054344      0.1677   -0.060638     0.29762     0.57111    0.066037
-0.14152    0.019589     0.16056   -0.019063     0.40611     0.58865   0.0091954
-0.15646   0.0017248     0.14496  -0.0034721     0.54123     0.61041   -0.041475
-0.15548  -0.0028225     0.12418  0.00010078     0.68804     0.63867   -0.077528
-0.13599  -0.0099683    0.095919 -0.00087364      0.8027     0.67408   -0.097017
-0.10481   -0.027833    0.061165   0.0020496     0.83518     0.70916    -0.10416
-0.066485   -0.051219    0.027709     0.01829     0.75268     0.73709   -0.095068
-0.018088   -0.061613   0.0033489    0.054668     0.55065     0.75528   -0.067134
0.046548   -0.051219   -0.014191     0.10794     0.24728     0.75398   -0.016789
0.12872   -0.019712   -0.034329     0.16575    -0.11715     0.72377    0.046548
0.2148    0.021538   -0.070382     0.21675      -0.466     0.65556     0.10436
0.28301    0.060515     -0.1282       0.258    -0.72747     0.54838     0.13749
0.31711    0.089098    -0.20193     0.28853    -0.85772     0.40449     0.14172
0.31257     0.10664    -0.27858     0.30997    -0.84732     0.23461     0.12288
0.27781     0.11281    -0.33672     0.32523     -0.7096    0.054344    0.098517
0.22844     0.10761    -0.35751      0.3392    -0.48614     -0.1204    0.080653
0.17874    0.091372    -0.33348     0.35447    -0.22954    -0.28183    0.067011
0.13522    0.065712    -0.26819     0.36648    0.009845    -0.43677    0.054668
0.10664     0.03518    -0.17659     0.36876     0.20473    -0.58878    0.037129
0.09462   0.0075714   -0.079477     0.35512     0.35576    -0.73104    0.012443
0.091696  -0.0047713   0.0062721     0.32523     0.46977    -0.83693   -0.021012
0.083251     0.01017    0.073832     0.28528     0.55065    -0.87948   -0.060638
0.053369     0.05272     0.12515     0.24403     0.59775    -0.84277   -0.098965
0.0020496     0.10826     0.16056       0.207     0.61366    -0.73007    -0.12398
-0.05739     0.15341     0.18297     0.17355     0.59937    -0.56441    -0.12463
-0.11033     0.16835     0.19369     0.14009      0.5526    -0.38187    -0.10319
-0.14541     0.14594     0.18914     0.10696     0.47335    -0.22402   -0.076554
-0.16003    0.093321       0.169    0.076106     0.36778    -0.11651   -0.065186
-0.15711    0.021863     0.13977    0.050771     0.25085   -0.059664   -0.078178
-0.14184   -0.046022     0.10859    0.027385     0.13879   -0.040175    -0.10221
-0.1191   -0.094093    0.083576   0.0069217    0.031607   -0.034004    -0.12008
-0.093444    -0.11651    0.066686  -0.0076946   -0.072331   -0.026858    -0.12203
-0.067134    -0.11683    0.059865   -0.018413    -0.17497   -0.011592    -0.10806
-0.044398    -0.10416    0.061814   -0.035303    -0.26851    0.011144   -0.084999
-0.030431   -0.086948    0.067986   -0.064211    -0.33283    0.032906   -0.060638
-0.030106   -0.071357     0.06831    -0.10838    -0.34127    0.048172   -0.037252
-0.035303   -0.060638    0.061489    -0.15905    -0.28898    0.056617   -0.013541
-0.037577   -0.052193    0.052395    -0.19933    -0.21492    0.058566   0.0069217
-0.030431   -0.042774    0.047847    -0.22044    -0.18407    0.049472    0.024461
-0.011917   -0.025234    0.047847    -0.22467    -0.23766    0.025761    0.037129
0.010819  0.00075039    0.044275    -0.21849    -0.35264  -0.0096434    0.043625
0.027385    0.028034    0.036154     -0.2081    -0.46113    -0.04862    0.042651
0.036479    0.044275    0.025761    -0.19381    -0.48906   -0.084024    0.032582
0.039727    0.045249    0.015367    -0.18017    -0.40006    -0.10384    0.016991
0.041351    0.029983   0.0062721    -0.16555    -0.21167    -0.10221 -0.00022403
0.03583   0.0052977 -0.00054884    -0.14574    0.014392   -0.079477   -0.018413
0.025436   -0.019063  -0.0063954    -0.11683     0.21545   -0.046022    -0.03303
0.016016   -0.037252   -0.013541   -0.078503     0.35674  -0.0080194   -0.042124
0.011144    -0.04862   -0.020037    -0.03238     0.43372    0.032257   -0.042449
0.009845   -0.056416   -0.024909    0.022188     0.45288    0.067011   -0.032705
0.013093   -0.060963   -0.026533    0.084226     0.42462    0.088124    -0.01614
0.021538   -0.062262   -0.023935     0.15373     0.36064    0.096244   0.0039985
0.030957   -0.059339   -0.014191     0.22519     0.27424    0.098193    0.020564
0.036479   -0.052518   0.0020496     0.28788     0.18492    0.099167    0.032906
0.031282    -0.04862    0.023162     0.33303     0.11541    0.099492    0.042326
0.018615   -0.050894      0.0433     0.36064    0.077405    0.097218    0.050121
0.0085458   -0.056741    0.062464      0.3733    0.074157    0.093321    0.051096
0.003024   -0.063561    0.081952      0.3798     0.10469    0.091372    0.042001
0.00042559   -0.069408    0.098842       0.385     0.15276    0.091047    0.024786
-0.00054884   -0.072981     0.10956     0.39279     0.19563    0.088448   0.0059473
0.0014   -0.070058     0.11411     0.39896     0.21512    0.080328  -0.0089938
0.0043233   -0.062262     0.11054     0.40124     0.20603    0.067011   -0.016789
0.0046481   -0.053492     0.10177     0.39604     0.16965    0.049147   -0.019063
0.0014   -0.046996    0.087149     0.38467     0.11476    0.033881   -0.021986
-0.0041217   -0.042774    0.069934     0.37006    0.059541    0.028359   -0.031406
-0.0096434   -0.038227    0.056942     0.35739    0.016016    0.032257   -0.045697
-0.014516   -0.032705    0.048822     0.35187    -0.01484    0.041027   -0.056416
-0.016789   -0.026209    0.047198     0.36226   -0.045047    0.044924   -0.062262
-0.016464   -0.020362    0.054668     0.39052    -0.08305    0.040377   -0.061937
-0.016464   -0.016789     0.06896     0.42755    -0.11618    0.027385   -0.059014
-0.017439   -0.014516    0.084876     0.45873    -0.10124    0.016016   -0.058689
-0.018738   -0.015165    0.095919     0.46587    0.010819    0.013743   -0.062587
-0.018088   -0.016789    0.099817     0.43924     0.23201    0.018615   -0.067784
-0.013541   -0.017114    0.095919     0.37395     0.52304    0.029009   -0.071682
-0.0047713   -0.013216    0.091047     0.27099     0.79458    0.039727   -0.068434
0.011794  -0.0067202    0.089098     0.14854     0.95081    0.039078   -0.056091
0.029009  -0.0021729    0.089098     0.02706     0.93002     0.01829    -0.04115
0.029009  -0.0047713    0.087799   -0.080127     0.72799   -0.027508   -0.029457
-0.0050961   -0.018088    0.079029    -0.17497     0.38207   -0.096367   -0.033354
-0.078503   -0.045372    0.062464    -0.25292   -0.046347    -0.17627   -0.052843
-0.18049   -0.082725    0.044599    -0.30912    -0.48711    -0.24513   -0.075579
-0.288     -0.1204    0.030633    -0.33932    -0.87038    -0.28898   -0.084349
-0.37635    -0.14606    0.022837     -0.3442     -1.1497    -0.30912    -0.06551
-0.42994    -0.15743    0.014717    -0.32925     -1.3089    -0.31171   -0.023285
-0.44586    -0.15905  -0.0024977    -0.31042     -1.3634      -0.301    0.025436
-0.43254    -0.15743   -0.033354    -0.29482     -1.3384    -0.27079    0.054993
-0.39487    -0.14964   -0.070382    -0.28443     -1.2462    -0.20972     0.05142
-0.33023    -0.12657    -0.10124    -0.27793     -1.0977    -0.11163    0.020888
-0.23051   -0.081751     -0.1191    -0.27728    -0.91586    0.012443   -0.015815
-0.083375   -0.012892     -0.1217    -0.28378    -0.73396     0.15114   -0.034654
0.10209    0.067336    -0.10871    -0.29093    -0.58228     0.29048   -0.023285
0.29145     0.13327   -0.077853     -0.2958    -0.46437     0.41391    0.012768
0.43892     0.15601   -0.036927    -0.30359    -0.35881      0.5081    0.051745
0.51232     0.13197  0.00010078    -0.32276    -0.23409     0.56202    0.076106
0.50842    0.080653    0.021538    -0.34972   -0.079802     0.57469     0.07773
0.44639     0.02641    0.019914     -0.3796    0.081627     0.55162    0.066362
0.36129   -0.015165  -0.0015233    -0.40006     0.22194     0.50323    0.055968
0.29178   -0.040825   -0.032055    -0.40201     0.31549     0.43567     0.06084
0.26547   -0.056416   -0.063237    -0.38869     0.34894     0.35122    0.088773
0.29015   -0.069733   -0.093444    -0.37018     0.32978     0.25507     0.13944
0.35284   -0.077528    -0.12333    -0.35394     0.28853     0.15406     0.19596
0.4204   -0.060963    -0.14996    -0.33445     0.27196    0.057917     0.24306
0.46068   0.0017248     -0.1623      -0.301     0.32134   -0.027183     0.27099
0.45223     0.11281    -0.15029    -0.24221     0.44054    -0.10189     0.27944
0.40221     0.25345    -0.11293    -0.15158     0.57371    -0.16328     0.27911
0.334     0.39312   -0.062262   -0.039526     0.62341    -0.21395     0.28398
0.27586      0.5042   -0.015815    0.073507     0.52109    -0.25877     0.30412
0.24241     0.56429    0.013418     0.16835     0.28723    -0.30424     0.33205
0.22877     0.56754     0.02641     0.23169    0.019589    -0.35329     0.35284
0.2174     0.52369    0.027385     0.26319    -0.16912    -0.41111     0.34992
0.18881     0.44834     0.01764     0.26157    -0.21492    -0.47932     0.32101
0.13652     0.36031   0.0010752     0.23169    -0.11748     -0.5511     0.27099
0.06896     0.27716   -0.014516     0.18297    0.069285    -0.60599     0.21512
0.0056225      0.2096   -0.030106     0.12255     0.25507    -0.62678      0.1677
-0.037577     0.16575   -0.046347    0.056617     0.33725    -0.60567     0.13522
-0.051544     0.13912   -0.062262   -0.011267     0.24695    -0.55045     0.11021
-0.043423     0.11931   -0.082076   -0.072006    -0.01549    -0.47477    0.083576
-0.027508    0.098517    -0.10741    -0.12333    -0.36693    -0.40071    0.051096
-0.019063    0.073507    -0.13664    -0.16945    -0.68849    -0.34712    0.014068
-0.025234    0.046548    -0.16588    -0.21167    -0.88565    -0.32276   -0.025559
-0.046347    0.021538    -0.18926     -0.2487    -0.92235     -0.3286   -0.061613
-0.076229  -0.0015233    -0.20193    -0.28183    -0.81582    -0.35524   -0.089871
-0.10254   -0.023285    -0.20323    -0.31139    -0.61736    -0.38999    -0.10774
-0.11975   -0.042774    -0.19576    -0.33997    -0.39487    -0.41046     -0.1178
-0.1243   -0.056091    -0.17919    -0.36401    -0.20388    -0.39779     -0.1269
-0.11715   -0.065186    -0.15223    -0.37798   -0.072006    -0.34192    -0.13957
-0.10579   -0.070707    -0.11618    -0.37603   0.0033489    -0.24968    -0.15418
-0.098316   -0.077853   -0.073631    -0.36011    0.037778    -0.13957    -0.16555
-0.10091   -0.085648   -0.028157    -0.33218    0.044599   -0.033354    -0.17075
-0.12138   -0.094093    0.017316    -0.29223    0.030957    0.054668    -0.17042
-0.1597    -0.09994    0.056292    -0.23993   0.0043233     0.12385    -0.16393
-0.2068    -0.10059    0.087474    -0.17627   -0.027833      0.1755    -0.15483
-0.24903   -0.097017     0.11248    -0.10059   -0.058689      0.2122    -0.14704
-0.27274   -0.094418     0.12937   -0.020687   -0.083375     0.23754    -0.14476
-0.27111   -0.097666     0.14204    0.055968    -0.09929       0.258    -0.14314
-0.24156    -0.10319     0.15244      0.1206    -0.10319     0.27391    -0.14022
-0.19186    -0.10514     0.16121     0.16835   -0.088896     0.28561    -0.14249
-0.14184    -0.10189     0.16088     0.19823   -0.056416     0.29568    -0.14996
-0.10319   -0.090845     0.14821     0.21058   -0.018413     0.29957      -0.161
-0.088247   -0.075255      0.1219     0.20765    0.010819      0.2908    -0.17042
-0.095717   -0.061937    0.087474     0.19369    0.018615     0.27164    -0.17757
-0.11651   -0.054792    0.052395      0.1729   0.0072465     0.24501    -0.18634
-0.13275   -0.054467    0.021538     0.15146  -0.0041217      0.2174    -0.19348
-0.14087    -0.05804  0.00010078     0.13555    0.003024     0.19206    -0.19738
-0.14704   -0.064536   -0.010943     0.12937    0.040377     0.17355    -0.19641
-0.15191   -0.069408   -0.015815     0.13425     0.10891     0.16315    -0.19024
-0.15223   -0.071357   -0.019063     0.15081     0.19758     0.16315    -0.17952
-0.14931   -0.067784   -0.022961     0.17452     0.29015     0.17095    -0.16068
-0.14022   -0.059664   -0.025234     0.19921     0.36161     0.18167    -0.13502
-0.12787   -0.046996   -0.027183     0.21805     0.39604     0.18751    -0.11098
-0.11326   -0.036927   -0.030431     0.22747     0.38467     0.18167   -0.093119
-0.095393   -0.031081   -0.034654     0.22682     0.32686     0.16348   -0.085324
-0.073955   -0.029782   -0.037252     0.21935     0.23169      0.1362   -0.088572
-0.055766   -0.029132   -0.037902     0.20928     0.11931     0.10371   -0.095393
-0.045697   -0.027508   -0.033354     0.19726    0.019914    0.067661   -0.099615
-0.045372   -0.024585   -0.021661     0.18362   -0.039201    0.033231   -0.097341
-0.051544    -0.02426  0.00010078     0.16738   -0.037577   0.0049729   -0.092794
-0.05739   -0.025559    0.026085     0.14951    0.028684   -0.010943    -0.09182
-0.05804   -0.027833    0.049796     0.13457     0.14269   -0.014516   -0.095717
-0.048945   -0.026858    0.067336     0.12385     0.27424  -0.0089938   -0.099615
-0.030431   -0.022961    0.078704     0.11476     0.39344   0.0036737   -0.097017
-0.0063954   -0.017114    0.085525     0.10339     0.47464     0.01764   -0.085324
0.016666    -0.01484    0.091372    0.094945      0.5042    0.031932   -0.062587
0.033881   -0.012892    0.097868    0.095594     0.48179    0.047198   -0.028482
0.044599  -0.0076946     0.10859     0.10501     0.42138    0.065387   0.0095202
0.050446      0.0014      0.1271      0.1232      0.3366    0.083251    0.045899
0.048172    0.012119     0.14951     0.14334     0.23331     0.09397    0.072533
0.036479    0.018615     0.17062     0.15828     0.11963    0.090072    0.081303
0.019914    0.020564     0.18459     0.16023   0.0078962    0.072858    0.073507
0.010495     0.01894     0.19011     0.14626   -0.083375     0.05207    0.056292
0.018615    0.015367     0.18687     0.12353    -0.14964    0.037778    0.036154
0.038428   0.0052977     0.17062    0.092671     -0.2029    0.037454    0.016666
0.054019    -0.01484     0.13717    0.055318     -0.2591     0.05272   0.0043233
0.05272   -0.045372    0.089748     0.01829    -0.33185    0.082927   0.0062721
0.031607   -0.077203    0.037778   -0.013866    -0.42929      0.1336    0.024461
0.00075039    -0.09929  -0.0015233   -0.035628    -0.55857     0.20408    0.058566
-0.029132    -0.10254   -0.021337   -0.043423    -0.72357     0.28723    0.099492
-0.053492   -0.087272   -0.021986   -0.040825    -0.92235     0.37233     0.13327
-0.064861   -0.061937   -0.012567   -0.034329     -1.1409     0.44379     0.15373
-0.056091   -0.033354  -0.0076946   -0.035303     -1.3498     0.49153     0.16023
-0.029457  -0.0047713   -0.017439   -0.044723     -1.4937     0.51427     0.15503
0.0088706    0.022188   -0.038551   -0.059014     -1.5077     0.52077     0.14139
0.050771    0.045574   -0.062912   -0.067134     -1.3485     0.52207      0.1297
0.0865    0.063763   -0.080451   -0.060963     -1.0182     0.52369      0.1219
0.11313    0.078704   -0.090521   -0.040175    -0.57286     0.51557     0.12028
0.13262    0.087799   -0.095393  -0.0099683    -0.11228     0.47822     0.11606
0.14269    0.088124    -0.10124    0.022837     0.27196     0.39637     0.10664
0.14139    0.080653    -0.10774     0.05207     0.53311     0.27521    0.092996
0.13035    0.068635    -0.11488    0.073182     0.67148     0.12905    0.082602
0.10696    0.055318    -0.11813    0.087799     0.71435   -0.018738    0.080003
0.073182    0.045899    -0.11651    0.092996     0.69616    -0.14899    0.084226
0.031607    0.041351    -0.11423    0.095594     0.65556    -0.24773    0.087799
-0.0073698    0.039727    -0.11586    0.095919     0.63445    -0.31366     0.08585
-0.035628    0.041027    -0.12463    0.084226     0.65784    -0.35102     0.07708
-0.048945    0.041676    -0.13404    0.055643     0.71663    -0.36953    0.061489
-0.046996    0.037454    -0.14346    0.015692     0.77054    -0.38285    0.042326
-0.035628    0.024137    -0.14931    -0.02361     0.78321    -0.40461    0.029658
-0.021986   0.0075714    -0.15126   -0.042124     0.74229    -0.44391    0.029658
-0.013541  -0.0063954    -0.14964   -0.034329     0.65621    -0.49556    0.037129
-0.010618   -0.013866    -0.14541  -0.0063954     0.54188      -0.542    0.046223
-0.0099683    -0.01549    -0.13664    0.028034     0.42008    -0.57546    0.052395
-0.0067202   -0.012892      -0.123    0.057592     0.30932    -0.59267    0.054019
0.0043233  -0.0063954    -0.10416    0.072533     0.22519    -0.60014    0.048172
0.022512      0.0014   -0.086298    0.070909     0.18784    -0.59982     0.03518
0.042651    0.011144   -0.076554    0.058891     0.22259    -0.58488    0.016341
0.057267    0.016991   -0.077853    0.042001     0.32978     -0.5498 -0.00022403
0.063113     0.01764   -0.083375    0.025111     0.48082    -0.49068  -0.0096434
0.061489    0.011794   -0.084024    0.009845     0.61659    -0.40721   -0.010618
0.06019   0.0010752   -0.069083  0.00010078      0.6783    -0.30457  -0.0031473
0.062789  -0.0089938   -0.042449   -0.007045     0.62438    -0.19283    0.013743
0.06831  -0.0093186  -0.0099683   -0.018738     0.46003   -0.088572    0.038753
0.074806  0.00075039    0.019264   -0.042449     0.24143  -0.0057458    0.067986
0.079679    0.017965    0.036479   -0.077853    0.034855    0.044275    0.091696
0.080653    0.036154    0.039402    -0.11845    -0.12008    0.058241     0.10306
0.079679    0.049147    0.036154    -0.15029    -0.22304    0.043625     0.10079
0.075131    0.055643    0.033231     -0.1662    -0.28865     0.01764    0.089748
0.066362    0.056292    0.030633    -0.16295    -0.32016   -0.010618    0.078379
0.054019    0.053044    0.029658    -0.14411    -0.31918   -0.028807    0.069934
0.039727    0.048822    0.030957    -0.11553     -0.2958   -0.035303    0.064737
0.027709    0.044924    0.034855   -0.083375    -0.25682    -0.03303    0.061489
0.021213    0.038753    0.036804   -0.051544    -0.20843   -0.029457    0.062139
0.022188    0.033881    0.034855   -0.022961    -0.15288   -0.025884    0.064413
0.029658    0.030957    0.028359   0.0026992   -0.088896   -0.018738    0.066037
0.041027    0.029983    0.021538    0.028359   -0.027183  -0.0093186    0.065387
0.05142    0.031932    0.016666     0.05207  -0.0073698 -0.00022403    0.061489
0.055643     0.03453    0.015042    0.072208   -0.071682   0.0065969    0.056942
0.055968    0.038428    0.018615    0.084876    -0.22207   0.0069217    0.050771
0.054993    0.042001    0.024786    0.093321    -0.40169  -0.0015233    0.042326
0.056942    0.042326     0.02706     0.10729    -0.52901   -0.016464    0.034206
0.063438    0.039402    0.025436     0.13847    -0.54103    -0.03238    0.029658
0.06896    0.034206    0.029009     0.18816    -0.42832    -0.04115    0.028359
0.067661    0.030308    0.041027     0.24825    -0.22856   -0.035953    0.025436
0.059865    0.025111    0.057267     0.30282  -0.0054209    -0.02361    0.014717
0.045249     0.01829    0.076755     0.34245     0.19076  -0.0093186  -0.0047713
0.026085   0.0095202    0.093645     0.36941      0.3431  -0.0031473   -0.030106
0.003024  -0.0024977     0.10306     0.39084     0.45386  -0.0083442    -0.05739
-0.021661   -0.017114     0.10371     0.41358     0.53311   -0.020687   -0.078827
-0.039851   -0.024909    0.097868     0.43794     0.58053    -0.02426   -0.088572
-0.042124    -0.02361    0.088124     0.46068     0.59645   -0.010618   -0.084024
-0.029457   -0.016464    0.080328     0.48017     0.58183    0.016991   -0.067784
-0.0073698   -0.007045    0.079354     0.49576     0.53961    0.044924   -0.047971
0.015042  -0.0031473      0.0852      0.5055     0.47335    0.061489   -0.028482
0.030308   -0.007045    0.089423     0.50258     0.38597    0.064737   -0.018738
0.036479   -0.012892    0.090397     0.48212     0.28561    0.059216   -0.019712
0.033231   -0.012567     0.08585     0.43729     0.18232     0.05272   -0.028807
0.024137   0.0020496    0.079354     0.36324    0.086824    0.048497   -0.039851
0.015042    0.027709    0.076431     0.26125   0.0049729     0.04395   -0.046996
0.015367    0.057592    0.076106     0.13295   -0.059664    0.039078   -0.047321
0.024137    0.084551    0.073507   -0.017114    -0.10774    0.044599   -0.045047
0.032582     0.10047    0.065712    -0.18309    -0.14346    0.069934   -0.042124
0.030633     0.10339    0.054668    -0.36141    -0.17335     0.11703     -0.0405
0.020564    0.099167    0.040052    -0.54525    -0.20031     0.17485   -0.038876
0.010819    0.091696    0.023162    -0.72584    -0.21914     0.23234   -0.034978
0.0046481    0.080978   0.0036737    -0.89832    -0.22889     0.27619   -0.026533
-0.0057458     0.06084   -0.020687      -1.052    -0.23376     0.29438   -0.014516
-0.027833    0.025761   -0.051544     -1.1686    -0.23961     0.28723   0.0010752
-0.059014   -0.021661   -0.083375     -1.2283    -0.24773     0.26384    0.022837
-0.085648   -0.072981    -0.11066     -1.2273     -0.2578     0.23104    0.050771
-0.10514    -0.11456    -0.12138     -1.1725    -0.26234     0.18557    0.080653
-0.1217    -0.13599    -0.11196     -1.0812    -0.25162      0.1219     0.10079
-0.14119    -0.13404   -0.083375    -0.97595    -0.21785    0.031932     0.10047
-0.1662    -0.11553   -0.045047    -0.86876    -0.15223   -0.084999    0.076106
-0.19251   -0.097991   -0.008669    -0.75865   -0.057715    -0.22239    0.028359
-0.2146    -0.10546    0.011469    -0.64009    0.038753    -0.36498    -0.03303
-0.23214    -0.14476   0.0075714    -0.51504     0.10306    -0.48646   -0.090845
-0.23441    -0.20583   -0.012567    -0.38577      0.1219    -0.56117    -0.12755
-0.20583    -0.26299   -0.037252    -0.25357     0.10891    -0.56799    -0.12917
-0.13924    -0.28281   -0.048945    -0.12495    0.080978    -0.50238   -0.092469
-0.04115     -0.2487   -0.042449  -0.0031473    0.041676    -0.37895   -0.024585
0.067336    -0.16263   -0.021012     0.10566   -0.013541    -0.22726    0.053694
0.15731   -0.039526   0.0078962     0.19499    -0.09182   -0.076879      0.1245
0.2083     0.10177    0.038753     0.26222    -0.19966    0.051745     0.17225
0.21123     0.23624    0.070584     0.30899      -0.339     0.14659     0.18946
0.17907     0.34147    0.098193      0.3353    -0.49588     0.20928     0.18069
0.13555     0.40059     0.11833     0.34147    -0.64269     0.24598     0.15731
0.090722     0.40189     0.12645     0.33108     -0.7515     0.26125     0.12613
0.038753     0.34927     0.11703     0.31386    -0.80152     0.26027    0.086824
-0.026209      0.2619    0.096893     0.29827    -0.76839     0.24273    0.037778
-0.096367      0.1664    0.081627      0.2934    -0.64204      0.2174   -0.019712
-0.14769    0.091696    0.078379     0.30574    -0.43254     0.19466   -0.075255
-0.14444    0.054993    0.083576      0.3353    -0.17205     0.18719    -0.11391
-0.068758    0.055968    0.089098     0.37428    0.087474     0.19726    -0.12008
0.064088    0.075456    0.086824     0.41423     0.29503     0.22065   -0.094418
0.2135    0.093321    0.077405     0.44671     0.42235     0.25248   -0.047646
0.3366    0.092671    0.063113     0.47789     0.46912     0.28593   0.0095202
0.41098    0.070909     0.05142     0.52044     0.45938     0.31419    0.065712
0.43664    0.036154    0.049147     0.57631     0.41553     0.33108     0.11054
0.4217   0.0059473    0.054993      0.6286     0.33952     0.32783     0.13327
0.37655  -0.0093186    0.063763     0.65686     0.23754     0.30217     0.12483
0.31451  -0.0096434    0.065062     0.64907     0.11573     0.25897    0.083901
0.25345  -0.0063954    0.047198     0.60099  -0.0083442      0.2057    0.023162
0.2057  -0.0073698   0.0091954     0.52142    -0.11066     0.15503   -0.037902
0.1664   -0.015165   -0.034978     0.42625    -0.16815     0.11476   -0.076879
0.12645   -0.024585   -0.066485       0.334     -0.1675    0.091047   -0.090521
0.070584   -0.025884   -0.072656      0.2606    -0.11293    0.080328   -0.085324
-0.011592  -0.0067202   -0.051868      0.2083    -0.01484    0.083576   -0.071032
-0.10968    0.032257   -0.014191      0.1677     0.11151    0.099492    -0.04862
-0.20193    0.080653    0.023812      0.1219      0.2528     0.11866   -0.029132
-0.26592     0.11898    0.049472    0.061165     0.40773      0.1336    -0.01549
-0.29158     0.13002    0.056942   -0.017114     0.58216     0.14432   -0.010293
-0.28053     0.11151    0.045249    -0.11001     0.75788     0.15276   -0.011917
-0.2461    0.072858    0.016991     -0.2029     0.89689     0.15763   -0.015165
-0.20096     0.02641   -0.021012     -0.2867     0.95114     0.15438   -0.018088
-0.15841   -0.014191    -0.06551    -0.35134     0.86019     0.13392   -0.016464
-0.12138   -0.043423    -0.11326    -0.39097     0.58216    0.081303  -0.0099683
-0.09182   -0.059664    -0.15483    -0.40363     0.14107  -0.0076946  -0.0044465
-0.068109   -0.064211    -0.18504    -0.39909    -0.34809    -0.12592  -0.0063954
-0.051544   -0.059014    -0.20031    -0.38577    -0.72552    -0.25845   -0.019712
-0.038876    -0.04927     -0.2029    -0.36758    -0.87331    -0.38187     -0.0405
-0.025559   -0.040825    -0.19446    -0.34907     -0.7632    -0.48029   -0.060638
-0.0093186   -0.034004    -0.17659     -0.3312     -0.4647    -0.53811   -0.069408
0.0072465   -0.025884    -0.15483    -0.30294    -0.09117    -0.55629   -0.062587
0.021863   -0.013216    -0.13112     -0.2578      0.2515    -0.54265   -0.042774
0.026085  0.00010078    -0.10774    -0.19933     0.47952    -0.51017   -0.021337
0.012768   0.0065969   -0.088896    -0.13924     0.53766    -0.47412   -0.010943
-0.013541  0.00042559   -0.076554   -0.089221     0.38825    -0.44424   -0.012892
-0.04115    -0.01484   -0.067134   -0.056416    0.046223     -0.4202   -0.027833
-0.060313   -0.031081    -0.04992   -0.037252    -0.41825    -0.39681   -0.046022
-0.070382   -0.048296    -0.02426   -0.021986    -0.89442    -0.36758   -0.059664
-0.067459   -0.065835  0.00042559  -0.0015233     -1.2624    -0.32925   -0.060313
-0.052518   -0.081101    0.016016    0.025761     -1.4368    -0.28086    -0.04992
-0.027508   -0.091495    0.019264    0.058891     -1.3923    -0.22434   -0.040175
0.0023744   -0.092794    0.016666    0.090722     -1.1731    -0.16523   -0.041799
0.023487     -0.0837    0.014717     0.12093    -0.86486    -0.10968   -0.059014
0.029658   -0.068434    0.019589     0.14691    -0.55824    -0.05804    -0.08305
0.024461   -0.051868    0.032906     0.16933    -0.31626   -0.013216    -0.10221
0.014068   -0.039201    0.051745     0.18297    -0.16458    0.028359    -0.10838
0.0052977   -0.028482     0.06896     0.18654   -0.094743    0.069285    -0.10059
0.0010752   -0.020037    0.073182     0.17387   -0.080127     0.10989   -0.084999
0.00010078   -0.010943    0.053694     0.14919   -0.088896     0.14529   -0.075579
-0.0011985  -0.0015233   0.0052977     0.11898    -0.10611     0.17192   -0.081101
-0.0080194   0.0056225   -0.075255    0.094945     -0.1269     0.17842   -0.097991
-0.019388   0.0059473    -0.17659      0.0865    -0.14606     0.16056    -0.11845
-0.033354  -0.0028225    -0.27469    0.095594    -0.16003      0.1219     -0.1334
-0.048945   -0.020037    -0.33835      0.1206      -0.161    0.079679    -0.13307
-0.060638   -0.045047    -0.34842     0.15179    -0.14346    0.045574    -0.11553
-0.070707    -0.07493    -0.30132     0.18687    -0.10449    0.022512    -0.08305
-0.0824    -0.11001    -0.20485     0.22747    -0.04927   0.0078962   -0.043748
-0.095393    -0.14281   -0.085324     0.27034    0.010819 -0.00022403  -0.0099683
-0.11033    -0.16198     0.02641     0.30607    0.070259  -0.0054209    0.016666
-0.1282    -0.16198     0.10729     0.32913     0.12255    -0.01614    0.031932
-0.15223    -0.14541     0.15276     0.33725     0.17387   -0.036927    0.036154
-0.17854    -0.12008      0.1677     0.33368     0.22227    -0.06551    0.030957
-0.20193   -0.092145     0.15698     0.32004     0.26384   -0.097341    0.017316
-0.21622   -0.069733     0.13165     0.29957     0.28723     -0.1256  -0.0024977
-0.20972   -0.053492     0.10631     0.26872     0.29113    -0.14346   -0.021012
-0.17952   -0.043099    0.092021     0.23039     0.28723    -0.14346   -0.031081
-0.13015   -0.035303    0.090722     0.19174     0.28756     -0.1217   -0.025559
-0.068109   -0.027183    0.098842     0.16348     0.30737     -0.0824  -0.0073698
-0.0073698   -0.010943     0.11443     0.15341     0.35187   -0.036602    0.014068
0.043625    0.012119     0.12937     0.16218     0.42495   0.0039985    0.028684
0.07773    0.037454     0.13717     0.18394     0.51102    0.032582    0.032582
0.095269    0.056942     0.13067     0.20603     0.57469    0.051096    0.029333
0.10177    0.065062     0.10956     0.21772     0.58183    0.068635     0.02641
0.10209    0.058566    0.083901     0.21772     0.52239    0.093321    0.030633
0.098193    0.043625    0.066362     0.20928      0.4165     0.12775    0.042975
0.0852    0.028034    0.065712     0.20473      0.2999     0.17095     0.06019
0.063763    0.016666    0.077405     0.21382     0.19791     0.21415    0.075456
0.041676    0.009845     0.09462     0.23429     0.12515      0.2489      0.0865
0.024786   0.0088706     0.11118     0.25735    0.082602     0.27879    0.093321
0.016666    0.012768     0.12548     0.27196     0.06896     0.30867    0.097218
0.016666    0.021863      0.1323     0.26677    0.084226     0.33498     0.10371
0.01894    0.037778     0.12872     0.23624     0.12353     0.35544     0.11476
0.019264    0.056617     0.11768     0.17745      0.1768     0.36356     0.12775
0.015042    0.068635     0.10469    0.098193     0.22454     0.35641     0.13684
0.0075714    0.066686    0.091372    0.011469     0.25507     0.34115     0.13879
0.00075039    0.050121    0.078704   -0.076229     0.27099     0.32296     0.13327
-0.0018481    0.023812    0.065062     -0.1675     0.28658     0.31062     0.12223
0.0043233  -0.0093186     0.05142    -0.26267     0.31906      0.3051     0.10761
0.016016   -0.041475    0.037129    -0.34939     0.37883     0.30769    0.093645
0.026085   -0.068109    0.024137    -0.41468     0.45581     0.30672    0.078055
0.02706   -0.088572    0.014068    -0.45073     0.52142      0.3025     0.06084
0.019264    -0.10384   0.0085458    -0.46243     0.54513      0.2986    0.042001
0.0069217    -0.11488   0.0010752    -0.46275     0.51167     0.29892    0.023487
-0.0041217     -0.1217  -0.0096434    -0.45625     0.42495     0.29633   0.0049729
-0.011917     -0.1204   -0.021337    -0.44846     0.30412     0.28073   -0.016464
-0.018088    -0.10416    -0.03173    -0.43709      0.1638     0.24825     -0.0405
-0.027508   -0.068434   -0.038876     -0.4189   0.0023744     0.20181    -0.05804
-0.045697  -0.0080194   -0.035953    -0.39129    -0.18244     0.15081   -0.059664
-0.073955    0.070584   -0.030106    -0.35329     -0.3783     0.10047   -0.046347
-0.10871     0.15016   -0.026209    -0.31269    -0.55759    0.045249   -0.027508
-0.14216     0.21058   -0.026858    -0.27274    -0.68459   -0.012892   -0.014516
-0.16263     0.24338   -0.034329     -0.2448    -0.74955   -0.066485  -0.0096434
-0.15646     0.24566   -0.048945    -0.23506    -0.78918    -0.10709    -0.01484
-0.11618     0.22487   -0.066485    -0.23733    -0.85025    -0.13145   -0.023285
-0.050244     0.19661   -0.078503    -0.23928    -0.93372    -0.14801   -0.030756
0.029983     0.17322   -0.082725    -0.23246    -0.98731    -0.16555   -0.032705
0.1232     0.15926   -0.075255     -0.2172    -0.93599    -0.19446   -0.025234
0.23104     0.15503   -0.055766    -0.19868    -0.74273    -0.24578  -0.0063954
0.33887     0.15016   -0.030431    -0.18309    -0.42767    -0.32666    0.017965
0.42073     0.13392  -0.0093186    -0.18147   -0.069408    -0.43319    0.038753
0.45516     0.10112 -0.00054884    -0.20096     0.22259    -0.56019    0.050446
0.43957    0.061489  -0.0047713    -0.23896     0.35252    -0.69694    0.056292
0.38825     0.02641   -0.010618    -0.28183     0.28171      -0.834    0.062464
0.31581   0.0046481  -0.0067202    -0.31691     0.04395    -0.95776    0.074482
0.22941  -0.0018481   0.0091954    -0.33802    -0.27014      -1.061     0.08585
0.1362  -0.0015233    0.032906    -0.34257    -0.57221     -1.1341    0.091047
0.048172  -0.0018481    0.049796    -0.33153    -0.82199     -1.1705    0.081303
-0.023285  -0.0041217    0.058241    -0.30619      -1.001     -1.1526    0.056942
-0.069733  -0.0015233    0.064413    -0.26527     -1.0961     -1.0623    0.030308
-0.091495    0.018615    0.078379    -0.20193     -1.0903    -0.88922    0.017316
-0.093769    0.057267    0.097543    -0.12365    -0.98796    -0.64919    0.029658
-0.079802    0.099817     0.11995   -0.036927    -0.81841    -0.38155    0.063113
-0.059339     0.12645     0.13847    0.047523     -0.6245    -0.13307     0.10274
-0.04115      0.1258     0.14886     0.11801    -0.44943    0.053044     0.13035
-0.033354    0.099492     0.14626     0.16705    -0.31399     0.16218     0.14139
-0.037577    0.059541     0.13295     0.19336    -0.21232     0.20928     0.14074
-0.045372    0.021213     0.10956     0.20538    -0.11326     0.22617     0.13457
-0.0405  -0.0089938    0.078379     0.21415    0.012443     0.23851      0.1245
-0.01614   -0.027833    0.040052     0.22389     0.17972     0.26222     0.11183
0.019914   -0.038876  -0.0054209     0.23396     0.36811     0.30087    0.094295
0.047523   -0.046671   -0.059014     0.23754     0.54513     0.34764    0.071558
0.05272   -0.053168    -0.11423     0.23591     0.68577     0.39702    0.050121
0.051096   -0.053168    -0.15516     0.23689     0.78354     0.44834    0.033231
0.061489   -0.044723    -0.16815     0.24663      0.8407     0.50485    0.025436
0.093321   -0.023935    -0.14931     0.26482     0.85857     0.56462    0.036804
0.13782    0.012119    -0.11131     0.28593      0.8524     0.61204    0.069285
0.1742    0.058566   -0.069733     0.30445     0.86896     0.62893     0.11248
0.18719     0.10274   -0.034654     0.31744      0.9638     0.60717     0.14496
0.16348     0.13067  -0.0089938     0.32393      1.1655     0.54968     0.15049
0.10209     0.13132   0.0046481     0.32556      1.4487      0.4701      0.1258
0.014717    0.098517   0.0049729     0.31939      1.7281      0.3837    0.082277
-0.0824    0.039402  -0.0011985     0.30282       1.909     0.30412    0.033881
-0.174   -0.027833  -0.0093186     0.27749      1.9122     0.24403  -0.0057458
-0.24156   -0.082725   -0.010943     0.24728      1.6966     0.21058   -0.029132
-0.27664    -0.11098  -0.0024977     0.21707       1.275     0.20181   -0.037252
-0.27599    -0.11196    0.016341     0.19628     0.70136     0.21707   -0.034004
-0.23863   -0.094418    0.039078     0.18459    0.067986     0.25443   -0.028807
-0.17854   -0.071357    0.057267     0.17972    -0.51732     0.29665    -0.03173
-0.10936   -0.050894    0.063113     0.16933    -0.98504     0.31906   -0.047971
-0.041799     -0.0405    0.047523     0.14626     -1.3095     0.30217   -0.071032
0.026085    -0.04115    0.009845     0.10371     -1.4823     0.23851   -0.093444
0.10177   -0.043748    -0.04115    0.044599     -1.4963      0.1323    -0.11001
0.18167   -0.039201   -0.096042   -0.018738     -1.3456  -0.0041217    -0.11651
0.24923   -0.022961    -0.14671   -0.071357     -1.0386    -0.15776    -0.11423
0.28528    0.003024    -0.18601    -0.10286    -0.62288    -0.30717    -0.10384
0.28301    0.033556     -0.2081    -0.11326    -0.18374    -0.42962   -0.092145
0.24598    0.062464     -0.2107    -0.10871     0.15373     -0.5105   -0.079477
0.18524    0.081627     -0.2029   -0.095393     0.25345    -0.54915   -0.067459
0.11833    0.087149    -0.19121   -0.084999    0.067336    -0.55629   -0.059014
0.058891    0.076431    -0.17789   -0.079802    -0.32048    -0.54915   -0.055441
0.013093    0.057267    -0.16588    -0.07428    -0.73169    -0.53811   -0.053817
-0.017764    0.047523    -0.15386   -0.069083    -0.98601    -0.52414   -0.049595
-0.03303    0.061814    -0.13372   -0.068434    -0.99349    -0.49718   -0.040825
-0.038876     0.10501    -0.10319   -0.080451    -0.78333    -0.43936   -0.027833
-0.040825      0.1664    -0.06551    -0.10709    -0.46697    -0.34225   -0.015165
-0.044398     0.22032   -0.030106    -0.14509     -0.1753    -0.21297   -0.007045
-0.052193     0.24143  -0.0021729    -0.18569   0.0062721   -0.067459  -0.0031473
-0.063561      0.2187    0.017316    -0.22142    0.075781    0.070259  -0.0076946
-0.077203     0.16185    0.025436    -0.24643    0.094295     0.17939   -0.022636
-0.090521    0.089748    0.025436    -0.25292     0.12743      0.2476   -0.043099
-0.09929    0.020239    0.021863    -0.24156     0.20311     0.27326   -0.060313
-0.098641   -0.035628    0.019589    -0.21395     0.31062      0.2606   -0.064211
-0.086298   -0.076879    0.024461    -0.17367     0.41618     0.22552   -0.057065
-0.067134    -0.10384    0.038753    -0.12365     0.47887     0.18297   -0.041475
-0.051544    -0.11683    0.057592   -0.064536     0.46133     0.14496   -0.027183
-0.04992    -0.12105    0.075131  -0.0044465     0.35901     0.11573   -0.021986
-0.061288     -0.1191    0.080978    0.049147     0.20765     0.10144   -0.028157
-0.077203    -0.11715    0.075131    0.091372    0.059541     0.10144   -0.039526
-0.086948     -0.1204    0.062789      0.1245   -0.041475     0.11248   -0.050569
-0.08305    -0.12592    0.048822     0.15568   -0.076879     0.13035   -0.061288
-0.065835    -0.12787    0.039078     0.18589   -0.050244     0.16153   -0.071357
-0.0405    -0.11618     0.03583     0.21123    0.015692     0.21545   -0.081101
-0.012892   -0.087597    0.040377     0.22584    0.095269     0.29762   -0.085973
0.013093   -0.044073    0.055318     0.22682     0.16673     0.40091   -0.078827
0.033881   0.0017248    0.078379      0.2135      0.2161     0.50193   -0.060313
0.049796    0.037454     0.10534     0.18881     0.24143     0.57436   -0.034329
0.066362    0.057592      0.1245     0.15958     0.24695     0.59612   -0.008669
0.078379    0.059216     0.13002     0.13262     0.24143     0.56202   0.0069217
0.075131     0.04395     0.12125     0.10469     0.23429     0.48212   0.0065969
0.050446    0.016341     0.10144    0.073182     0.23039      0.3733   -0.007045
0.009845   -0.017764    0.071883    0.037454     0.23169     0.25443    -0.02426
-0.030106   -0.050894    0.038103   0.0059473     0.23331     0.13847   -0.038227
-0.04992   -0.073631   0.0088706   -0.014516     0.23591    0.037454   -0.042774
-0.045047   -0.079802  -0.0096434   -0.023935     0.24111   -0.047971   -0.043423
-0.02361   -0.063237   -0.012567   -0.023285      0.2489    -0.12235   -0.046671
-0.00054884   -0.030431  -0.0054209   -0.018413      0.2567    -0.19056   -0.052518
0.011794   0.0052977   0.0046481   -0.013866     0.26644    -0.24773    -0.05804
0.0049729    0.029333    0.012119   -0.013216     0.27586     -0.2932   -0.062587
-0.019388    0.039402    0.011144   -0.013216     0.28333    -0.32666   -0.068434
-0.04992    0.042326  -0.0047713  -0.0096434     0.28626    -0.35037   -0.076879
-0.079802    0.032906   -0.029132  -0.0034721     0.28171    -0.36011   -0.086298
-0.10481   0.0017248   -0.051868   0.0046481     0.26612    -0.34517   -0.093769
-0.12073   -0.055766   -0.061937    0.016016     0.23591    -0.30359   -0.093119
-0.12592     -0.1321   -0.053168    0.037454     0.19011    -0.23766   -0.086948
-0.12073     -0.2146   -0.029457    0.073182     0.14139    -0.15581   -0.075904
-0.11033     -0.2945   0.0069217     0.12028     0.10404   -0.072006   -0.060313
-0.10481    -0.36693    0.050121      0.1716    0.080653   0.0039985   -0.044723
-0.11066    -0.43059    0.086175     0.21935    0.061165    0.065387   -0.033354
-0.12365    -0.47639     0.11118     0.26092    0.034855     0.11021   -0.022636
-0.13762    -0.49426      0.1271     0.29438  -0.0047713     0.14074  -0.0099683
-0.14411    -0.47737      0.1336     0.31614   -0.053817     0.16608   0.0091954
-0.13924    -0.42117     0.12905     0.32426    -0.10514     0.19401    0.037454
-0.1295    -0.33055     0.11541     0.31744    -0.14639        0.22    0.071558
-0.1217     -0.2133    0.092996     0.30607    -0.17465     0.23299     0.10339
-0.11943   -0.074605    0.062789      0.2986    -0.19543     0.22129     0.13002
-0.1217     0.06831    0.028034     0.29503    -0.22044     0.18199     0.14659
-0.13015     0.19563  -0.0093186     0.28723    -0.25227      0.1271     0.15438
-0.14281     0.29113   -0.045697     0.27002     -0.2945    0.067986     0.15763
-0.15418     0.34635   -0.081751     0.24241    -0.34452    0.012443     0.15958
-0.15418     0.36616    -0.11456      0.2083    -0.39681   -0.033679     0.16121
-0.13794     0.36681    -0.13859     0.17907    -0.43969   -0.069408     0.16673
-0.10449     0.36811    -0.15223      0.1638    -0.46178   -0.096042     0.17355
-0.053492     0.38662    -0.15353     0.16575     -0.4595    -0.11748     0.17452
0.011144     0.43047    -0.14152     0.17712    -0.43547    -0.13372     0.16121
0.078055     0.48959    -0.11878     0.18524    -0.39259    -0.13957     0.13425
0.13717     0.53993   -0.095068     0.17712    -0.33023     -0.1295     0.10209
0.18362     0.55844   -0.074605     0.15114    -0.24578    -0.10384    0.078055
0.21675     0.52694   -0.060963     0.11346    -0.13957   -0.068109     0.06831
0.23559     0.44476   -0.052193    0.074157   -0.017439   -0.028807    0.072858
0.24143     0.32783   -0.048296    0.034855     0.10631   0.0091954      0.0852
0.23364     0.20148   -0.047646  -0.0093186      0.2096    0.037778     0.10112
0.20635    0.088773   -0.046996   -0.061613     0.27489    0.054668     0.11638
0.16543   0.0023744   -0.046671    -0.12333     0.30022    0.064413     0.12645
0.12158   -0.053492   -0.045697    -0.19089     0.28333    0.072208       0.131
0.082602   -0.081751   -0.041475    -0.26137        0.22    0.084226     0.13197
0.055643   -0.089871   -0.035628    -0.33607      0.1258    0.096244      0.1323
0.046223   -0.084999   -0.027833    -0.41793    0.025436     0.10664      0.1297
0.053694   -0.071682   -0.019388    -0.49913   -0.060638     0.10956     0.12353
0.072858   -0.053168   -0.011592    -0.56247    -0.11748     0.10177     0.11411
0.098193   -0.031081  -0.0024977    -0.59787    -0.13989    0.083576     0.10112
0.1245   -0.012242   0.0065969    -0.61476    -0.13567    0.059216    0.084226
0.14821  -0.0031473    0.012443    -0.62645    -0.12203    0.029983    0.063438
0.16478  -0.0063954     0.01017    -0.64074    -0.11586  -0.0031473    0.037454
0.16738    -0.01614    0.008221    -0.65536    -0.12463   -0.039526   0.0065969
0.15633   -0.027508    0.011794    -0.66153    -0.14249   -0.080127   -0.022961
0.13457   -0.036927    0.017316    -0.65374    -0.16068      -0.123   -0.050569
0.10371   -0.044398    0.020564     -0.6323    -0.18277    -0.16263   -0.073955
0.071558   -0.050244    0.020564    -0.60372    -0.22791    -0.19219   -0.092145
0.044275   -0.057715    0.019264    -0.56864    -0.30879    -0.21167    -0.10351
0.026735   -0.070058    0.014068    -0.52154      -0.415    -0.22044    -0.10806
0.024137   -0.088572   0.0033489     -0.4556    -0.51245    -0.22207    -0.10059
0.038428    -0.11423   -0.013866    -0.36758    -0.56182    -0.21655   -0.079152
0.060515    -0.14281    -0.03173     -0.2591    -0.54363    -0.20648   -0.050244
0.07773    -0.16653     -0.0405    -0.14216    -0.46665    -0.19316   -0.025559
0.075456    -0.17594   -0.038876   -0.030106    -0.35524    -0.18082   -0.019063
0.053044     -0.1714   -0.029132    0.055643    -0.23636    -0.17335   -0.033679
0.01829    -0.16263   -0.015165     0.10371    -0.13047    -0.17172   -0.060313
-0.012567    -0.15841   0.0036737     0.11573   -0.046022    -0.17724   -0.084674
-0.030431    -0.15873    0.018615     0.10631    0.019589    -0.18829   -0.098641
-0.03238    -0.15158     0.02706    0.090397    0.080003    -0.20225    -0.09994
-0.02361    -0.12073    0.034206    0.081303     0.14529    -0.22077   -0.094418
-0.012242   -0.057065    0.047198    0.081952     0.21935    -0.24448   -0.089871
-0.0041217    0.024137     0.06831    0.087149     0.29275    -0.26981   -0.094743
-0.0034721    0.098193    0.094295    0.090397     0.35284    -0.28703    -0.10709
-0.0099683     0.14107     0.11768    0.090072     0.38662    -0.28995    -0.11813
-0.022311     0.14529     0.12807    0.087149      0.3889    -0.27436    -0.12365
-0.038876     0.11151     0.11443    0.091372     0.36194    -0.23961      -0.123
-0.061288     0.05272    0.075456     0.11183     0.30737    -0.19089    -0.11586
-0.090845    -0.01549    0.025436     0.15893        0.22    -0.13502   -0.097666
-0.11683   -0.077203   -0.012242     0.23071    0.095269   -0.078827   -0.068758
-0.11813    -0.12073   -0.022636     0.31451   -0.059664   -0.029782   -0.029457
-0.080451    -0.14606  -0.0047713     0.39149    -0.23344   0.0095202    0.014392
-0.007045    -0.15776    0.025436     0.44476    -0.40493    0.031932    0.051096
0.083901    -0.14866     0.05207     0.46685    -0.55305    0.031932    0.073832
0.16543    -0.10806     0.06896     0.46003    -0.66218    0.012119    0.081952
0.2135   -0.035303    0.078704     0.43924    -0.71707   -0.019063    0.074806
0.21642    0.053044    0.085525     0.41131    -0.70895   -0.052518    0.048822
0.17582     0.12872    0.089423     0.37915     -0.6336    -0.08305    0.011794
0.10989      0.1664    0.082927     0.33887    -0.48419    -0.10254   -0.026209
0.037778     0.16056    0.063113     0.28756    -0.25487    -0.10254   -0.051868
-0.02426     0.11671    0.032582     0.22649    0.038103   -0.081101   -0.055116
-0.069408     0.05142  -0.0037969     0.16608      0.3366   -0.048296   -0.031081
-0.096042   -0.014516   -0.034654     0.11508     0.55097   -0.014516    0.012768
-0.11196   -0.060313   -0.054792    0.078055     0.61724    0.013093     0.06084
-0.12138   -0.069408    -0.05804    0.053694     0.53993    0.037778    0.097218
-0.13015   -0.044398   -0.046022     0.03583     0.38337    0.063763     0.11248
-0.13989   0.0017248   -0.023935     0.01894     0.23396    0.091696     0.11054
-0.15191    0.050121   0.0033489  -0.0021729     0.15114      0.1219    0.096893
-0.1623    0.083576    0.025111   -0.029132     0.14984     0.15276    0.081303
-0.1623    0.086824    0.031282   -0.064211     0.20408     0.17842    0.064413
-0.14574    0.056942     0.01894   -0.099615     0.27554     0.18881    0.041351
-0.11261   0.0059473   -0.010618     -0.1269     0.32621     0.17842   0.0056225
-0.069733   -0.041475   -0.043099    -0.13664     0.34017     0.14756   -0.042124
-0.034654   -0.060638   -0.064211    -0.12592     0.32296    0.092996   -0.092469
-0.026533   -0.040175    -0.05739   -0.096367     0.28236     0.01894    -0.13664
-0.059014   0.0078962   -0.021986   -0.054142      0.2161   -0.062912    -0.16718
-0.12495    0.063763    0.028034  -0.0089938     0.12937    -0.13697    -0.18082
-0.19673     0.10729    0.076431    0.031282    0.040052    -0.18374    -0.18017
-0.2435      0.1284     0.10469    0.059216   -0.025884    -0.19641    -0.16718
-0.25552     0.12093     0.10112    0.073182   -0.060313    -0.18439    -0.14314
-0.23961    0.087799    0.066037    0.074157   -0.066485    -0.15873    -0.10838
-0.20615    0.036479    0.012768    0.069285   -0.053168    -0.13047   -0.063886
-0.1675   -0.020037   -0.034004     0.06896   -0.022311    -0.10449   -0.012892
-0.13632    -0.07428    -0.05804    0.076431    0.033556   -0.086948    0.034855
-0.12235    -0.12105   -0.058689    0.091696     0.11898   -0.085648    0.065712
-0.12138    -0.16035     -0.0405     0.11118     0.22129    -0.10481    0.080653
-0.1256    -0.18407   -0.011917     0.13392     0.31451    -0.13729     0.08585
-0.12235    -0.18374    0.016016     0.16023     0.37136    -0.16977    0.085525
-0.10221    -0.15873    0.030957     0.18946     0.37655    -0.18894    0.084876
-0.055116    -0.11261     0.02641     0.21935     0.33011    -0.18147      0.0865
0.030633   -0.056416   0.0039985     0.24955      0.2463    -0.13827    0.094945
0.15211  -0.0011985   -0.023285     0.28463     0.14269   -0.059989     0.11606
0.28885    0.051096   -0.039526     0.32718    0.038753    0.044275     0.14789
0.40286     0.10404   -0.036927      0.3811   -0.040825     0.15309     0.17972
0.45743     0.16056   -0.020037     0.43502   -0.073631     0.24306     0.19791
0.43859     0.21967   0.0033489     0.47984   -0.050569     0.30185     0.19304
0.36324     0.27034    0.026085     0.51135    0.012768     0.32848     0.16575
0.27196     0.30217    0.042975     0.52466    0.082277     0.33075     0.12872
0.20993     0.30867     0.05142     0.51525     0.12093     0.32004    0.094295
0.19499     0.29015    0.047198     0.47399     0.11476     0.30769    0.072208
0.21577     0.25378    0.032257     0.39669    0.079354      0.2999    0.062139
0.24598      0.2109    0.014068     0.28268    0.042651     0.29925    0.058566
0.26157      0.1703  -0.0018481     0.13717    0.014717     0.29762    0.053044
0.2567     0.13652    -0.01484   -0.029132   -0.024585     0.28138    0.044599
0.22974     0.10566    -0.02426    -0.19803    -0.09994     0.23786    0.028359
0.18914    0.076106   -0.030431    -0.34679    -0.20713     0.16803   0.0033489
0.14496    0.048172   -0.029457     -0.4582    -0.32113    0.089423   -0.031406
0.10177    0.024461   -0.021012    -0.52057    -0.40916    0.024786   -0.063561
0.06896   0.0078962  -0.0054209    -0.53648    -0.45495   -0.010943   -0.081426
0.050446  -0.0015233   0.0095202    -0.51829    -0.47607   -0.019388   -0.080776
0.041676  -0.0018481    0.018615    -0.48191    -0.51407   -0.008669    -0.06681
0.03583   0.0043233    0.015367    -0.43839    -0.60956   0.0020496   -0.050244
0.025436    0.009845   -0.007045    -0.38934    -0.77554  -0.0011985   -0.038551
0.011794    0.012443   -0.041475     -0.3338    -0.97952   -0.022311   -0.032705
-0.00087364    0.013093   -0.075255    -0.27144     -1.1614   -0.046347   -0.031081
-0.0099683     0.01017   -0.090521    -0.21167     -1.2576   -0.056741   -0.027833
-0.013866   0.0056225    -0.08305    -0.16588     -1.2209   -0.048945   -0.022311
-0.017764  -0.0015233   -0.059014    -0.14281     -1.0338   -0.028482   -0.021012
-0.025234  -0.0076946   -0.027833    -0.13924    -0.70603  -0.0083442   -0.027833
-0.035628   -0.012892 -0.00022403    -0.13924    -0.25585   0.0065969   -0.045372
-0.043099   -0.016464    0.021863    -0.12625     0.28853     0.01829   -0.065186
-0.04862   -0.017764    0.039078    -0.09117     0.86441    0.032906   -0.075904
-0.052518   -0.016789     0.05272   -0.041799       1.377    0.055643    -0.07493
-0.056416   -0.013216    0.060515   0.0095202      1.7278      0.0852   -0.067459
-0.062912  -0.0073698    0.064413    0.055318      1.8258     0.12028   -0.058689
-0.072981 -0.00022403    0.065062    0.089423       1.615     0.15146   -0.055116
-0.084999   0.0049729     0.06831     0.10956      1.1272      0.1716   -0.055441
-0.094418   0.0052977    0.076106     0.12028     0.49965     0.17712   -0.050894
-0.092794    0.003024    0.086175     0.12483   -0.070707      0.1677    -0.03303
-0.081101   0.0010752    0.095594     0.12807      -0.428     0.14659   -0.010293
-0.066485   0.0026992    0.098193      0.1323    -0.53811     0.12093    0.008221
-0.055116   0.0075714    0.094945     0.13782    -0.48744    0.096569    0.016016
-0.047971    0.012443    0.090397     0.14009    -0.41923    0.079029    0.012443
-0.045047    0.014068    0.093645     0.13652    -0.42767    0.068635      0.0014
-0.049595    0.012443     0.10826     0.12775    -0.51569    0.056617  -0.0093186
-0.059664   0.0056225     0.12807     0.11606    -0.62191    0.038103   -0.018413
-0.073955  -0.0031473     0.14269     0.10209    -0.67647   0.0059473   -0.025884
-0.088247  -0.0096434     0.15049    0.087149    -0.64139   -0.046347   -0.035953
-0.097991   -0.013866     0.14984    0.073832    -0.52316    -0.13047   -0.048945
-0.10059   -0.014191     0.13782    0.062789    -0.36076     -0.2448   -0.060313
-0.096692   -0.011267     0.12028    0.055318    -0.19836     -0.3822    -0.06616
-0.090845   -0.008669    0.097218     0.05142   -0.061613    -0.51992   -0.063886
-0.083375  -0.0096434    0.072533    0.049796    0.041027    -0.63165    -0.04992
-0.075579    -0.01549    0.044924    0.045899     0.11216    -0.69726   -0.029782
-0.063237   -0.021661    0.015692    0.033556     0.15049      -0.707  -0.0093186
-0.04862   -0.022961   -0.011917    0.013093     0.16348    -0.65828    0.010495
-0.035303   -0.017764    -0.03173   -0.012892     0.16705    -0.55402    0.026085
-0.025884  -0.0089938   -0.039201   -0.034654     0.17485    -0.40851     0.03583
-0.020362  -0.0021729   -0.037577   -0.047646     0.19628    -0.23798    0.039727
-0.019712  -0.0015233   -0.033679    -0.04992     0.23234    -0.05804    0.040702
-0.021986  -0.0067202   -0.030431    -0.04115     0.27781     0.11801      0.0433
-0.02426   -0.016789   -0.033679   -0.029457     0.32328     0.27684    0.048497
-0.024909   -0.026533   -0.041475   -0.018738     0.35966     0.40903    0.051096
-0.024909   -0.034329   -0.049595  -0.0083442     0.38045     0.50615    0.045249
-0.028807   -0.036602   -0.057715  0.00075039     0.38532     0.56494    0.029658
-0.03238   -0.035303    -0.06551   0.0095202     0.38467     0.58248   0.0085458
-0.033679   -0.034329   -0.077203    0.014068     0.38727     0.55747  -0.0096434
-0.03238   -0.034329    -0.09117    0.011144     0.39019     0.49283   -0.018413
-0.030106   -0.035303    -0.10968   0.0062721     0.38987     0.39864   -0.017439
-0.026533   -0.037902    -0.13632   0.0023744     0.38207      0.2895  -0.0089938
-0.022636   -0.042449    -0.17854      0.0014     0.36356     0.18004   0.0033489
-0.016789   -0.047321    -0.24058   0.0059473     0.33108    0.074806    0.012768
-0.011917   -0.048296    -0.31918    0.010819     0.28138   -0.034654    0.015692
-0.010618   -0.046347    -0.40039    0.018615     0.21642    -0.15093    0.011469
-0.013541   -0.046022    -0.45983    0.023812      0.1362    -0.26007   0.0020496
-0.021012    -0.04927    -0.47802    0.023812    0.044924     -0.3364   -0.008669
-0.030756    -0.05804    -0.44326    0.010819   -0.052518    -0.36011    -0.01549
-0.038551   -0.069733    -0.35979   -0.014191    -0.16425    -0.32828   -0.016789
-0.040825   -0.079152    -0.24968   -0.046671    -0.29385    -0.25617   -0.013541
-0.04115   -0.082076    -0.13664   -0.086948    -0.43384    -0.16912   -0.007045
-0.042774   -0.079477   -0.044723    -0.13307     -0.5498   -0.084999  0.00010078
-0.04862    -0.07428    0.019589    -0.17465    -0.60209   -0.018088   0.0056225
-0.055766   -0.072331    0.056617    -0.20193    -0.57448    0.030633   0.0085458
-0.05804   -0.073306    0.072533    -0.20648    -0.47964    0.063438    0.011469
-0.055441   -0.071032    0.078055    -0.19154    -0.35004    0.085525     0.01764
-0.050569   -0.063237     0.08585    -0.16523      -0.212     0.10079    0.026735
-0.046671   -0.046671    0.097868    -0.14346   -0.071682     0.11248    0.036804
-0.042774   -0.021661     0.10891    -0.13437    0.071558     0.12613    0.048822
-0.037252   0.0088706     0.10859    -0.13924     0.21512     0.14919    0.061489
-0.030431    0.036479    0.097218    -0.14866     0.34764     0.18622    0.072208
-0.023285    0.055968    0.070909    -0.15321     0.45321     0.23721    0.083901
-0.013866    0.061165    0.033556    -0.15158     0.53084       0.296    0.094945
-0.00054884    0.053369  -0.0044465    -0.14346       0.588     0.35479     0.10501
0.019264    0.034855   -0.034004    -0.13567     0.62568     0.40319     0.11216
0.042326   0.0072465   -0.054792    -0.13632      0.6364      0.4282     0.10794
0.06019   -0.021661   -0.071357    -0.14444     0.61821      0.4191    0.094295
0.070584   -0.039526     -0.0824    -0.14996     0.57274     0.37038    0.074482
0.074482   -0.038227   -0.086623    -0.14444     0.50842     0.29275     0.05272
0.06896   -0.018413   -0.083375    -0.12592     0.43729     0.21382    0.035505
0.055968   0.0072465   -0.075579   -0.098641     0.36941     0.15503     0.02641
0.040377    0.021213   -0.066485   -0.071032     0.31257     0.11898    0.022837
0.030308    0.016991   -0.060963   -0.050244     0.26547    0.092671    0.013418
0.032906  -0.0021729   -0.061937     -0.0405     0.20765    0.062789  -0.0041217
0.051096   -0.021337   -0.066485   -0.038876    0.096893    0.019264   -0.023285
0.08585   -0.024909   -0.069083   -0.038227    -0.10319   -0.032705   -0.035628
0.1336  -0.0044465   -0.064861   -0.028482    -0.39389   -0.079802   -0.030431
0.18167    0.037454   -0.046671  -0.0073698       -0.72    -0.10579  -0.0067202
0.20993    0.084226   -0.019063    0.021213    -0.98212    -0.10709    0.026085
0.20635     0.11638    0.011144    0.054019     -1.0835    -0.10124    0.054993
0.16998     0.11606    0.037778    0.087474    -0.97789    -0.11001    0.065062
0.10989    0.081303    0.054019     0.11638    -0.69206    -0.14476    0.055318
0.045249    0.030957    0.058566     0.14042    -0.31301    -0.19706    0.039727
-0.00054884   -0.007045     0.05272     0.15926    0.056942    -0.25422    0.030957
-0.019063    -0.01484    0.039402      0.1703     0.33205    -0.30457    0.037129
-0.013541   0.0095202    0.026735     0.17257     0.46782    -0.34842    0.054344
0.0065969    0.050121    0.018615     0.16965     0.45451    -0.38804    0.070909
0.032582    0.088124    0.017316     0.16608     0.32393    -0.42507    0.075781
0.059216     0.10924    0.025761     0.16185      0.1258    -0.45853    0.066686
0.081627     0.11151    0.044599     0.15536   -0.082076    -0.47607    0.046548
0.094295    0.096893    0.073832     0.14984    -0.25455      -0.466    0.024461
0.09397    0.071558     0.10371     0.14367    -0.36628     -0.4215   0.0039985
0.079354    0.039402     0.12613     0.13652    -0.41208    -0.35394  -0.0089938
0.049796   0.0046481     0.13425     0.12613    -0.40396    -0.27664   -0.011592
0.010495   -0.027183     0.12548     0.10469    -0.36336     -0.2055      0.0014
-0.027508   -0.055116     0.10112    0.062789    -0.30944    -0.15029    0.031607
-0.058689   -0.076554    0.064737  -0.0015233    -0.26169    -0.11715    0.074157
-0.078827   -0.093119    0.020239   -0.076229    -0.22109   -0.098316     0.11931
-0.08305    -0.11066   -0.023935    -0.14509    -0.16458   -0.081101     0.15958
-0.068758    -0.12365   -0.056741    -0.19154   -0.067134   -0.049595     0.19304
-0.0405    -0.12203    -0.06551    -0.20713    0.083901  -0.0018481        0.22
-0.010293   -0.093444   -0.046022    -0.19576     0.29113    0.051096     0.23494
0.0039985   -0.038876  0.00042559     -0.1727     0.55032    0.092346     0.23104
-0.0099683    0.025761    0.064088    -0.15516     0.83583     0.11508     0.20668
-0.04862    0.081952     0.12872    -0.14899      1.0872     0.12905      0.1625
-0.095717     0.11606     0.17907    -0.15516      1.2412     0.14626     0.10794
-0.13404      0.1206     0.20863    -0.16782      1.2568     0.18102    0.053044
-0.15483     0.10371     0.22129    -0.17497       1.134     0.23721    0.012443
-0.15516    0.081952     0.22519    -0.16523     0.89722      0.3012  -0.0041217
-0.13632    0.063763     0.22812    -0.13794     0.57956     0.35187  0.00075039
-0.097666    0.054668     0.23786    -0.10156     0.21252     0.36876    0.009845
-0.0405    0.056617     0.25183   -0.059664    -0.17432     0.34732   0.0052977
0.034855    0.075131      0.2619   -0.010618    -0.54947     0.30087   -0.021661
0.12028     0.10696     0.26644    0.050121    -0.88013     0.24955   -0.064211
0.19531     0.14042     0.26027      0.1219     -1.1263     0.20733    -0.10644
0.23721     0.15991     0.23559     0.19499     -1.2628     0.17907    -0.13307
0.23039     0.15016     0.19174      0.2528      -1.291     0.15503    -0.14314
0.17939     0.11086     0.13814     0.28593     -1.2491     0.12385    -0.14022
0.10436    0.048822    0.088448      0.3012      -1.201    0.076106    -0.13469
0.023812   -0.017439    0.050771     0.30802     -1.1848   0.0078962    -0.13892
-0.047646   -0.071357    0.028684     0.32004     -1.1858   -0.064861    -0.15808
-0.10059   -0.098316    0.020888     0.34342     -1.1582    -0.11651    -0.18569
-0.12885   -0.094093    0.025761     0.37753     -1.0617    -0.12235    -0.20648
-0.1308   -0.069083    0.037454     0.41488    -0.88922   -0.074605    -0.20615
-0.10936   -0.036927    0.050446     0.44509     -0.6755   0.0088706    -0.18439
-0.066485   -0.011917     0.06019     0.46165    -0.47996     0.09462    -0.14964
-0.0076946   0.0010752    0.064088       0.461     -0.3442     0.14659    -0.11975
0.061814    0.014068    0.060515     0.44476    -0.26364     0.14984    -0.10221
0.13035    0.040052    0.048172     0.41715    -0.19089     0.11346   -0.092794
0.18557    0.081952    0.028034     0.37655   -0.080127    0.055968   -0.084024
0.21577     0.12645  -0.0021729     0.32296    0.076431  -0.0021729   -0.073631
0.21935     0.15438   -0.052193     0.25118      0.2463   -0.050894   -0.066485
0.2057     0.15016    -0.12073     0.16088     0.39149   -0.088572   -0.065186
0.18687     0.10826    -0.19089    0.055318     0.47464    -0.12008    -0.06616
0.17745    0.042326    -0.23831   -0.051219     0.47172    -0.14736   -0.063237
0.18654   -0.021986    -0.24903    -0.14671     0.35349    -0.17237   -0.043099
0.2174   -0.064211    -0.22012    -0.22434     0.10404    -0.19413  -0.0024977
0.2554   -0.079802    -0.16588    -0.28443    -0.24188     -0.2133    0.049147
0.27521    -0.07493    -0.10838    -0.33153    -0.57903    -0.23019    0.091696
0.25572   -0.064861   -0.063886    -0.36888    -0.77002    -0.24318     0.10891
0.19206   -0.058365   -0.038551    -0.40136     -0.7226    -0.24415     0.10112
0.096244   -0.054792   -0.024585    -0.42475    -0.44001    -0.22369    0.080978
-0.011917   -0.048945   -0.013216    -0.43352  -0.0047713    -0.18959    0.064088
-0.11196   -0.030431   0.0036737    -0.42442     0.47529    -0.15743     0.06084
-0.19446    0.003024    0.022188    -0.40039     0.90436    -0.14022    0.070909
-0.25455    0.044275    0.038103    -0.36076      1.2185    -0.13534    0.087149
-0.28573    0.078704    0.046223    -0.30749      1.3874    -0.14249     0.10306
-0.2867    0.092996    0.043625    -0.24026      1.4153    -0.15873     0.11866
-0.2578    0.083576    0.033556    -0.15873      1.3396    -0.18277     0.12872
-0.2146    0.055643    0.022512   -0.064861      1.2055    -0.20843     0.12807
-0.16815    0.020239    0.012443    0.038428      1.0518    -0.22207     0.10924
-0.1308   -0.014191    0.008221     0.13879     0.89787    -0.21005    0.071558
-0.10384   -0.038227    0.014392     0.22974     0.74911    -0.16425    0.021213
-0.090845   -0.048296     0.02641     0.30639     0.60944   -0.089546   -0.029782
-0.089221   -0.045372     0.03583     0.36648     0.47757 -0.00054884   -0.071357
-0.098965   -0.037902    0.043625     0.41488     0.35024    0.080328   -0.096042
-0.11521   -0.034004    0.048822     0.45451     0.23071     0.13944    -0.10384
-0.13437   -0.040175    0.046223     0.48699     0.12158     0.17062   -0.097341
-0.15321   -0.054142    0.036154     0.50648    0.028034     0.17517   -0.085648
-0.1649   -0.072331    0.016666     0.51037   -0.046022     0.16153   -0.076879
-0.1623   -0.091495   -0.010293     0.49218    -0.10871     0.13457   -0.075904
-0.14444    -0.10676   -0.037577     0.44801    -0.17042    0.099167   -0.084674
-0.11813    -0.11358    -0.05739     0.38045    -0.23961    0.061814   -0.096367
-0.09117    -0.10579   -0.064861     0.29762    -0.31691    0.031282    -0.10644
-0.070707   -0.080776   -0.056741     0.21025    -0.39162   0.0085458    -0.11228
-0.054467    -0.04115   -0.039201     0.12613    -0.45171  -0.0060706    -0.11683
-0.03303      0.0014    -0.02426    0.048172    -0.49328    -0.01614    -0.11683
0.0010752    0.033881   -0.024909    -0.03173    -0.51504   -0.019063    -0.11033
0.045899    0.045574   -0.042774    -0.11618    -0.51115   -0.016464   -0.093444
0.093645    0.036154   -0.071032    -0.19998    -0.47996  -0.0096434   -0.068109
0.1284    0.016016   -0.099615    -0.27469    -0.42767      0.0014   -0.040825
0.13847  -0.0063954    -0.12268    -0.33445    -0.36758    0.016666   -0.020037
0.12028   -0.020362    -0.13697    -0.37473    -0.30717    0.030957   -0.011267
0.082277   -0.022961    -0.13924    -0.38934     -0.2513    0.042975  -0.0096434
0.038753   -0.014191    -0.12852    -0.37473    -0.19803    0.053369   -0.011592
0.0020496   0.0069217    -0.10903    -0.33607    -0.13469     0.06019  -0.0073698
-0.024585    0.039402   -0.085648    -0.28151   -0.044723    0.060515   0.0033489
-0.045047    0.070909   -0.061288    -0.21882    0.074806    0.057917    0.023487
-0.057065    0.087149   -0.043099    -0.15353     0.21837    0.056617    0.044275
-0.05804     0.08585   -0.037902   -0.088896      0.3759    0.057267    0.058891
-0.046347    0.070584   -0.043423   -0.038551     0.53798    0.055643    0.057917
-0.026209    0.047198   -0.053168   -0.012892     0.68739    0.053044    0.041027
-0.0076946    0.023162   -0.058689  -0.0099683     0.80367    0.049147     0.01829
0.0026992   0.0072465   -0.055766   -0.018413     0.87253    0.043625  -0.0028225
0.0046481   0.0017248   -0.046022   -0.035953       0.893    0.032582   -0.019388
-0.0057458    0.008221   -0.034004   -0.058689     0.86961    0.013093   -0.036602
-0.028482    0.020564   -0.023935     -0.0837     0.80465   -0.013866   -0.055116
-0.057715    0.033231   -0.021012    -0.11488     0.70558   -0.040175   -0.070707
-0.080776    0.039078   -0.029132    -0.14996     0.57274   -0.055116   -0.078827
-0.090196     0.03583   -0.044073    -0.18244     0.40156   -0.052193   -0.071032
-0.08305    0.032582   -0.057715    -0.20388     0.19921    -0.03238   -0.047971
-0.062587    0.034206   -0.062912     -0.2081   -0.014516  -0.0024977    -0.01484
-0.032705    0.042651    -0.05739    -0.19348      -0.212    0.024461    0.020564
0.0017248    0.058891   -0.043423     -0.1662    -0.36661    0.038103    0.045899
0.042001     0.07708   -0.022636     -0.1321    -0.47087    0.033231    0.056942
0.092671    0.091047  0.00042559   -0.098965    -0.52998    0.016991    0.059865
0.15016    0.091047    0.015692   -0.069083    -0.55727 -0.00054884     0.06084
0.2057    0.072208    0.021213   -0.043748    -0.56636   -0.012242    0.061165
0.24403    0.037778    0.020239   -0.017764    -0.57838    -0.01549    0.057917
0.25735  -0.0031473    0.019589    0.015367    -0.61249   -0.013216     0.05207
0.24988   -0.039526     0.01894    0.057267    -0.68135  -0.0073698    0.047198
0.22584   -0.069408    0.018615     0.10664    -0.78626 -0.00054884    0.042975
0.18816   -0.094743    0.019264     0.15698    -0.90124   0.0043233    0.034206
0.13652    -0.11488    0.022837     0.20148    -0.98147   0.0095202    0.020564
0.071558    -0.12657    0.026085     0.23786    -0.98959    0.020239   0.0075714
0.0010752    -0.13112    0.024786     0.26255    -0.91001     0.03583   0.0023744
-0.062912    -0.12657    0.018615     0.27196    -0.75703     0.05142    0.008221
-0.10774    -0.11423    0.011794     0.26579    -0.56019    0.059865    0.023487
-0.12625   -0.093444   0.0059473      0.2489    -0.35134    0.056617    0.042651
-0.11586   -0.060313   0.0023744     0.22389    -0.16328    0.044599    0.054344
-0.084349   -0.011917  0.00010078     0.19271   -0.017114    0.031607    0.051745
-0.050894    0.042326  0.00042559     0.15633    0.081627    0.019264    0.038428
-0.028482    0.092021   0.0069217     0.11573     0.13912   0.0088706     0.01894
-0.020687     0.12872     0.01829    0.073182     0.16153  0.00042559   0.0020496
-0.018413     0.15211    0.029009    0.034855     0.16413  -0.0050961  -0.0063954
-0.014191     0.16348    0.036804   0.0049729     0.15568  -0.0096434 -0.00022403
-0.0028225      0.1625    0.041676   -0.017114     0.13067   -0.015165    0.014392
0.017965     0.15276    0.046873    -0.03238    0.075781   -0.020037    0.033556
0.045249     0.13555    0.055643   -0.038876   -0.010943   -0.023285    0.049796
0.065387     0.11378    0.065387   -0.038227    -0.11358   -0.024585     0.06084
0.071558      0.0852    0.071234   -0.025234    -0.20615   -0.026533    0.066037
0.065712    0.053694    0.067336   0.0017248    -0.26007   -0.032055    0.065387
0.053044    0.023487    0.052395    0.036479    -0.25942   -0.041799    0.062139
0.040377 -0.00087364    0.032257    0.062789    -0.20258    -0.04927    0.057267
0.033231   -0.016789    0.011144    0.071558    -0.10871    -0.04927    0.053044
0.037778   -0.022636  -0.0044465    0.067011  -0.0093186   -0.045047    0.051745
0.056942   -0.018088   -0.013866    0.062464    0.065387   -0.040825    0.049796
0.084226  -0.0047713   -0.017114    0.065387     0.10079   -0.039201     0.04395
0.10534    0.013418   -0.019388    0.073832     0.10177   -0.038876    0.036479
0.11281    0.029009   -0.022311    0.080653    0.081627   -0.040175    0.026735
0.10794     0.03583   -0.027183    0.085525    0.058241   -0.040175    0.019264
0.096244    0.033556   -0.033354    0.089748    0.048172   -0.034329    0.015042
0.084876    0.024461   -0.037577    0.094295    0.058241   -0.019712    0.011469
0.073507    0.015367   -0.037252    0.095919    0.090397  0.00010078   0.0069217
0.056617    0.010819   -0.028807     0.09462     0.13944    0.020564   0.0059473
0.02706    0.014392   -0.012892    0.093321     0.19758    0.042001     0.01894
-0.01484    0.022512     0.01017    0.095919     0.25248    0.061165    0.045899
-0.063561    0.029333    0.034855     0.10209     0.28983    0.072208     0.07773
-0.11326    0.031607    0.055318     0.10956      0.3025    0.071234    0.099492
-0.15581    0.025761     0.06961     0.11508     0.28171    0.054993    0.098517
-0.18082    0.013743    0.075781     0.11573     0.22227    0.025111    0.079029
-0.18439  0.00075039    0.075781     0.10989     0.13879   -0.013216    0.048822
-0.16912   -0.012892    0.070909    0.096244    0.050446    -0.04862    0.018615
-0.14509   -0.023285    0.061165    0.080003   -0.018738   -0.072981  -0.0093186
-0.11975   -0.028482    0.045249    0.064088   -0.041799     -0.0837   -0.030431
-0.09929   -0.026858    0.028034    0.047523   -0.010943   -0.086623   -0.047321
-0.084999   -0.017439    0.013743    0.033556    0.069934   -0.090521   -0.056091
-0.074605  -0.0021729    0.008221    0.022188     0.18069    -0.09994   -0.056091
-0.059664    0.015042   0.0072465    0.011469     0.28593     -0.1178   -0.052518
-0.035953    0.028359   0.0059473  0.00075039     0.34407    -0.14444   -0.047321
-0.0063954     0.03583      0.0014   -0.013216     0.33628    -0.17172   -0.042774
0.025111    0.033881  -0.0063954   -0.032055     0.26839    -0.18504   -0.039851
0.049147    0.024786  -0.0093186   -0.048945     0.17225    -0.17627   -0.037902
0.06019    0.013418  -0.0037969   -0.056741    0.082277    -0.14541   -0.036927
0.056942   0.0010752   0.0059473    -0.04992    0.022837    -0.10124   -0.033679
0.045899   -0.008669    0.016341   -0.036278  -0.0037969   -0.054467   -0.028482
0.039727   -0.010943    0.024461   -0.024585   -0.023935   -0.014191   -0.021337
0.042975  -0.0031473    0.030308   -0.023285   -0.070707   0.0078962   -0.011267
0.049472    0.011794    0.031932   -0.033354    -0.15061   0.0078962  -0.0024977
0.055643    0.029009    0.030957   -0.046347    -0.23181   0.0020496   0.0026992
0.06084    0.041027    0.025111   -0.054792    -0.26429    0.012119    0.003024
0.062789      0.0433    0.012119   -0.056416     -0.2159    0.050771  -0.0041217
0.06019    0.037129  -0.0028225   -0.051544   -0.094093     0.11151   -0.016464
0.047847     0.02641   -0.018413   -0.043099    0.055968      0.1768   -0.027183
0.023812    0.009845   -0.034654   -0.035628     0.18654     0.23851   -0.033354
-0.011917   -0.011592   -0.050569    -0.03238     0.26092     0.29503   -0.030756
-0.053492   -0.035628   -0.064211   -0.035628     0.26904     0.34894   -0.020687
-0.096692   -0.059989   -0.070058   -0.043099     0.22584     0.41131 -0.00087364
-0.13697     -0.0824   -0.068758   -0.051544     0.15926     0.48374    0.027385
-0.17042    -0.10481   -0.061288   -0.057065    0.099817     0.55325    0.053044
-0.19738    -0.12268   -0.051219   -0.058365    0.071558     0.60164    0.064088
-0.22109    -0.14087   -0.046671   -0.059014    0.072208     0.61561     0.06019
-0.24253    -0.16003   -0.053492   -0.062587    0.083901     0.58865    0.045249
-0.25552    -0.18179   -0.064536   -0.069733    0.074806     0.53019    0.029009
-0.25682     -0.2016   -0.070707    -0.07493    0.016666     0.45483    0.022188
-0.24805     -0.2107   -0.068434   -0.072981   -0.084999     0.37623    0.028034
-0.23668    -0.19706   -0.059339   -0.063237    -0.17952     0.31257    0.048497
-0.22856    -0.15483   -0.044073   -0.047646    -0.20453     0.26872    0.079354
-0.21362   -0.086948   -0.022636   -0.032055    -0.13275     0.24728     0.11508
-0.17887   -0.008669  0.00010078   -0.022311    0.018615     0.23364     0.15114
-0.11521    0.059541    0.018615   -0.019712     0.20116     0.20408     0.17647
-0.024909     0.10306    0.028034   -0.026533     0.37136     0.13684     0.18199
0.090397      0.1206    0.028359   -0.039851     0.49478    0.021863      0.1651
0.22     0.12158    0.023487    -0.04862     0.53019    -0.13599      0.1323
0.3431     0.11995    0.022512   -0.046671     0.44021    -0.32016    0.097868
0.43632     0.12353    0.029333   -0.034329     0.22779    -0.50725    0.067986
0.48471     0.13067    0.040702   -0.010618   -0.034004    -0.67355    0.042001
0.48406     0.13847    0.052395    0.022188    -0.24123     -0.8025    0.016666
0.43697      0.1362    0.061814    0.061165    -0.32503     -0.8876   -0.011917
0.35706     0.11866    0.071234    0.097218    -0.28833    -0.93405   -0.039201
0.26547    0.085525    0.086175     0.12353     -0.2081    -0.95321    -0.05739
0.18979    0.054993     0.11021     0.13457    -0.20388    -0.95288   -0.060313
0.14626    0.046223     0.14107     0.13035    -0.37375    -0.94022   -0.038227
0.13587    0.072208     0.16965     0.11054    -0.72389    -0.92138   0.0078962
0.14464      0.1284     0.18492    0.080978     -1.1432    -0.90059    0.070584
0.15698     0.19499     0.18037    0.050771      -1.457     -0.8759     0.13425
0.16738     0.25378     0.16056    0.020564      -1.547    -0.83368     0.18394
0.18134     0.29308     0.13717    -0.01614     -1.4232    -0.76352     0.21285
0.2044     0.31094      0.1219   -0.063561     -1.1887    -0.66088      0.2174
0.22584     0.30672     0.11801    -0.11715    -0.94866    -0.53518     0.19888
0.23266     0.28203     0.11736     -0.1688     -0.7502    -0.40039     0.15926
0.21155     0.23429     0.11086    -0.21297    -0.57253    -0.27501     0.10566
0.16088     0.16218    0.086824       -0.25    -0.37733    -0.17822    0.042326
0.092996    0.064413    0.040377    -0.28151    -0.16263    -0.12073    -0.02361
0.023487   -0.051868   -0.023285    -0.30977    0.029333   -0.098316   -0.083375
-0.038551    -0.16912    -0.09182    -0.33607     0.13587   -0.096042    -0.12917
-0.093444    -0.26299    -0.15321    -0.35134     0.14464    -0.09182      -0.161
-0.13957    -0.30814    -0.19316    -0.34939     0.12483   -0.068758    -0.18147
-0.17302    -0.29645    -0.20875    -0.32925     0.18557   -0.017764    -0.18796
-0.18634    -0.23798    -0.20258    -0.29612     0.38532    0.053694    -0.17724
-0.17692    -0.15418    -0.17984    -0.26202     0.69616     0.13684    -0.15386
-0.15029   -0.064536    -0.15288    -0.23246      1.0291     0.22162    -0.12203
-0.12008    0.011794     -0.1321     -0.2146      1.2954     0.30542   -0.086298
-0.096367    0.066037    -0.12138      -0.212      1.4364     0.38207   -0.057065
-0.082725     0.10209    -0.12203    -0.22499       1.439     0.44509   -0.041799
-0.072331     0.12288     -0.1308    -0.25195      1.3279     0.48959   -0.039526
-0.058689     0.13392    -0.14346    -0.29093      1.1411     0.52174   -0.044398
-0.042774     0.13067    -0.15321    -0.33478     0.92061     0.55487   -0.051219
-0.027183     0.10761    -0.15646    -0.36888     0.70623      0.5984   -0.054142
-0.014516    0.063763    -0.15061     -0.3848     0.53116     0.65199   -0.050894
-0.0089938    0.012119    -0.13599    -0.37927     0.41261     0.71663    -0.04927
-0.010943   -0.037252    -0.11748    -0.35069     0.34894     0.77964   -0.051544
-0.021012   -0.072981   -0.095393    -0.30165     0.32393     0.82609   -0.058689
-0.042774   -0.086948   -0.072656    -0.23506     0.31711      0.8381   -0.071682
-0.072006   -0.082725    -0.04927    -0.15126     0.31322     0.80952   -0.083375
-0.10319   -0.068109   -0.026533   -0.051868     0.30055     0.73319   -0.088896
-0.12982   -0.056416  -0.0073698    0.056292     0.27164     0.61269   -0.081751
-0.14801   -0.059014   0.0056225     0.15861     0.22292     0.45873   -0.064536
-0.15743   -0.079152     0.01017     0.24273     0.15666     0.28756   -0.044723
-0.16003    -0.11098   0.0036737     0.31062    0.077405     0.11378   -0.029132
-0.15223    -0.14736   -0.014516     0.36324  -0.0067202   -0.052518   -0.019388
-0.12917    -0.17887   -0.039851     0.40286   -0.090196    -0.19966   -0.008669
-0.093444    -0.19381   -0.060963     0.43404    -0.16653    -0.31659    0.010495
-0.053817    -0.18212   -0.069733     0.45613    -0.22629    -0.39227    0.037454
-0.018088    -0.14606   -0.068109     0.46035    -0.26267    -0.42442    0.065062
0.008221    -0.10059    -0.06681     0.44281    -0.27793    -0.41695    0.081303
0.024137   -0.062912   -0.082076     0.40546    -0.28898    -0.38415    0.076755
0.029333   -0.046996     -0.1256     0.35512    -0.29905     -0.3416    0.051096
0.024786   -0.052193    -0.18666     0.29925    -0.28313    -0.29515    0.011469
0.0039985   -0.068758    -0.24643     0.24825    -0.21362    -0.24253   -0.031081
-0.03173   -0.088247    -0.27923     0.20863   -0.084999    -0.17692    -0.06616
-0.073955    -0.10124    -0.27014     0.17712    0.061814    -0.10319   -0.091495
-0.11326    -0.10286     -0.2159     0.14172       0.169   -0.025234    -0.10644
-0.14281   -0.089871    -0.13177    0.099817     0.19758    0.054668    -0.10903
-0.15873   -0.063886    -0.04115    0.061489     0.14594     0.13749   -0.092145
-0.15873   -0.030106    0.035505    0.040377    0.046223     0.22032   -0.053492
-0.13892   0.0010752    0.087799    0.040052   -0.053168     0.29925  -0.0031473
-0.10676    0.027385     0.11541    0.063113    -0.12203     0.36129    0.041027
-0.070382    0.046548     0.12288     0.10144    -0.14704     0.39312    0.065387
-0.039201    0.057917     0.11411     0.14107    -0.14152     0.39084    0.065712
-0.017764    0.061489    0.096893     0.16705     -0.1243     0.36064    0.049796
-0.0060706     0.06019    0.081952     0.17062    -0.11001     0.31451    0.029658
0.00075039    0.055968     0.07708     0.16056    -0.10774     0.26417    0.017965
0.0065969    0.048497    0.083901     0.15958    -0.12235     0.22097    0.020239
0.0078962    0.039078     0.10112     0.18199    -0.15223     0.18946    0.026085
0.0033489    0.031607     0.12385     0.22292    -0.19154     0.17095    0.029658
-0.0067202    0.026735     0.14659     0.26482    -0.23571     0.16088    0.032257
-0.015815    0.025761     0.16088     0.29178    -0.27566     0.15438    0.037129
-0.018088    0.035505     0.16705     0.29373    -0.30294     0.14756    0.044924
-0.013216    0.054668     0.16575     0.26839    -0.31366     0.13457    0.056292
-0.00054884    0.080003     0.16088     0.22129    -0.30587     0.11606    0.066037
0.017316     0.10242     0.15536      0.1638    -0.28216    0.087799     0.06896
0.039402     0.11768     0.15698     0.10469    -0.24286    0.049147    0.064088
0.061814      0.1219     0.16413    0.050446    -0.19413   0.0033489     0.05207
0.078379     0.11638     0.17355    0.011469    -0.14509   -0.037252    0.036804
0.081952     0.10306     0.17777  -0.0060706    -0.10091   -0.064536    0.020564
0.073832     0.08585     0.17127  -0.0080194   -0.062587   -0.075904   0.0059473
0.057592    0.067986     0.15991  -0.0063954   -0.030431   -0.072006  -0.0047713
0.040702    0.053694     0.14919  -0.0089938  -0.0031473   -0.053492  -0.0099683
0.034206    0.043625     0.14367   -0.016789    0.021538   -0.026209  -0.0050961
0.040702    0.041676     0.14626   -0.026858    0.041351   0.0088706   0.0075714
0.057917    0.045574     0.15406   -0.030431    0.057267    0.049796    0.021538
0.079679    0.053044      0.1638   -0.022961    0.070584    0.094295    0.029658
0.099492     0.06084     0.17322  -0.0063954    0.080328     0.14172    0.027709
0.11346    0.064737     0.18264    0.016016    0.079029     0.18362    0.018615
0.11833    0.062789     0.19369    0.037454    0.056942      0.2161   0.0085458
0.10826    0.056617     0.20148    0.050771   0.0046481     0.23331  -0.0021729
0.084876    0.046548     0.20408    0.056292   -0.082076     0.22519    -0.01614
0.055318    0.033231     0.19726     0.06019    -0.19056     0.18394   -0.032055
0.030308     0.01894     0.18427    0.066037    -0.28768     0.10242   -0.046671
0.014392   0.0059473      0.1677    0.069934    -0.34452   -0.012892   -0.053817
0.0056225  -0.0011985     0.15341    0.070259    -0.34647    -0.14152   -0.052193
-0.00087364 -0.00022403     0.14432    0.063113    -0.29677    -0.26007   -0.040825
-0.0037969    0.008221     0.13977    0.047523    -0.21914    -0.35881   -0.025559
-0.0044465    0.019589      0.1336    0.028034    -0.13437    -0.44586   -0.011267
-0.0041217    0.031282     0.12613   0.0072465   -0.059339    -0.53486 -0.00087364
-0.0011985    0.039727     0.11573  -0.0093186  -0.0041217    -0.62483   0.0017248
-0.00022403    0.042651     0.10339   -0.019712    0.023812    -0.69759  -0.0060706
-0.0034721    0.037454      0.0852   -0.022636    0.023162    -0.72812   -0.021661
-0.010618    0.025761     0.06019   -0.017114  0.00010078    -0.70116   -0.043099
-0.017439    0.011469    0.025436  -0.0021729   -0.034654    -0.62645   -0.065835
-0.020362  -0.0054209   -0.014516     0.01894   -0.067459    -0.53031   -0.086623
-0.019388   -0.021337   -0.056741      0.0433    -0.09182    -0.43514   -0.097666
-0.01484   -0.035953   -0.090845    0.067661    -0.10871    -0.35296   -0.096367
-0.0076946   -0.045047    -0.11131    0.092346    -0.12008    -0.28833   -0.089871
-0.0063954   -0.043099     -0.1178     0.11573    -0.12365    -0.24286   -0.085324
-0.012892   -0.027833    -0.10936     0.13814     -0.1217    -0.21622   -0.081426
-0.021337  -0.0015233   -0.087597     0.15828    -0.11553    -0.20583   -0.077203
-0.028157    0.025436   -0.060313     0.17939    -0.10838    -0.20518   -0.073306
-0.03238    0.042326   -0.039201     0.19921   -0.097666    -0.20875   -0.069408
-0.035628    0.041027   -0.035628      0.2096   -0.079802    -0.21135   -0.064536
-0.034004    0.016341    -0.04862     0.20635   -0.053817    -0.21167   -0.054792
-0.024585   -0.029782   -0.072006     0.19563   -0.021012    -0.20388   -0.034004
-0.0044465   -0.089871   -0.094418     0.18881    0.015367    -0.18471  -0.0028225
0.021538    -0.15093    -0.11098     0.19239    0.054019    -0.15743    0.031282
0.046873    -0.19608    -0.12008     0.20083     0.08585     -0.1282    0.059541
0.065712     -0.2172    -0.12495     0.20408     0.10436    -0.10189    0.074482
0.075781    -0.21265     -0.1295     0.19336     0.10826   -0.078827    0.070909
0.077405    -0.18179    -0.13307     0.16673    0.097218   -0.062587    0.050446
0.07773    -0.12463    -0.12917     0.13392    0.070259   -0.052193    0.025761
0.078379   -0.046022    -0.11878     0.10177    0.030633   -0.046996   0.0078962
0.081952    0.044275    -0.10026    0.076431   -0.010293   -0.042774   0.0017248
0.092996     0.13197   -0.076879    0.054993   -0.035953   -0.036927   0.0059473
0.11151     0.20116   -0.056091    0.032582   -0.040825   -0.027183    0.012768
0.13587     0.24013   -0.046347   0.0065969   -0.030431   -0.017439    0.017316
0.1664     0.24436    -0.04992   -0.024585   -0.019712  -0.0057458    0.015367
0.19466     0.21707   -0.064861   -0.059014   -0.012242    0.010495   0.0078962
0.2083     0.17127   -0.087272   -0.092145   -0.010293     0.03518 -0.00054884
0.19304     0.12288    -0.11066    -0.11553   -0.012242     0.06831  -0.0073698
0.14854    0.082927    -0.12592    -0.12527   -0.020362     0.11411   -0.012567
0.084226    0.058566    -0.12592    -0.12203   -0.034654     0.17225    -0.01484
0.016991    0.050446    -0.11228    -0.10838   -0.051868     0.23883   -0.010618
-0.038876     0.05207   -0.092469   -0.096042   -0.070382     0.30867  -0.0018481
