-0.020037   -0.024909 -0.00054884   -0.095717     -0.8785   -0.030756   0.0049729
-0.036927   -0.037902 -0.00087364    -0.10514    -0.88857    -0.04862   -0.020362
-0.051868   -0.059339  -0.0031473    -0.10124    -0.65244   -0.063237   -0.048945
-0.058365   -0.079802  -0.0076946    -0.09182    -0.21687   -0.072656   -0.070382
-0.056416   -0.089871   -0.016789     -0.0824     0.27781   -0.078178   -0.075904
-0.052518   -0.086948   -0.027508   -0.071032      0.6822   -0.078178   -0.063561
-0.046671   -0.069733   -0.034329   -0.051219     0.92061   -0.067459     -0.0405
-0.037577   -0.043423   -0.035953   -0.020687       1.008   -0.043748   -0.014516
-0.023935   -0.012567   -0.030106    0.023162       1.008   -0.014191   0.0072465
-0.0089938    0.015692   -0.017114    0.072533     0.98719    0.009845    0.019589
0.0056225     0.03583   0.0017248     0.11606     0.98005    0.021538     0.01894
0.022837    0.039727    0.021213     0.14204      0.9781    0.019589   0.0046481
0.042001     0.02641    0.037129     0.14691     0.95179   0.0095202   -0.016789
0.066362  -0.0041217    0.041676      0.1336     0.88098  -0.0018481   -0.036927
0.096893   -0.043423    0.033231     0.10242      0.7673   -0.010293    -0.04992
0.13327   -0.077203    0.016991    0.062464     0.63055   -0.012567   -0.051544
0.16868   -0.093444   0.0020496    0.028034     0.49511  -0.0073698   -0.043099
0.19011   -0.093444   -0.010618   0.0091954     0.38013   0.0020496   -0.028807
0.17874   -0.085648   -0.021986     0.01017     0.29795    0.011794   -0.016464
0.12743   -0.077203   -0.029132    0.025436      0.2515     0.01894  -0.0083442
0.044924   -0.071682   -0.029782    0.042651     0.23656    0.023812 -0.00022403
-0.048296   -0.067134   -0.025559    0.048822     0.23981     0.02706   0.0091954
-0.14054   -0.059014   -0.016789    0.042001     0.24923    0.028684    0.016991
-0.21817   -0.044073  -0.0037969    0.027709     0.25605    0.030633    0.021863
-0.27339   -0.030106   0.0065969    0.015367      0.2606    0.034206     0.02706
-0.29515   -0.026858   0.0095202    0.012443     0.26709    0.040377    0.032257
-0.28086   -0.041475   0.0065969    0.021213     0.27391    0.049796    0.040052
-0.23474    -0.06681   0.0043233     0.03518     0.27684    0.059541    0.045249
-0.1675   -0.089546   0.0075714    0.043625     0.27002    0.064413    0.049147
-0.095393   -0.097017    0.019589    0.042651     0.24338    0.062464     0.05207
-0.039201   -0.084674     0.03583    0.036154     0.18134    0.053369    0.050121
-0.0018481   -0.056091    0.046548    0.028359    0.081952    0.041676    0.042326
0.019589   -0.024909    0.046223    0.026735   -0.035953    0.035505    0.032582
0.031932  -0.0031473    0.037454     0.02641    -0.14509    0.036479    0.026085
0.037778   0.0065969    0.024461    0.023487    -0.22499    0.045249    0.023487
0.036154   0.0023744    0.008221    0.014392    -0.26429    0.057267    0.022837
0.023487  -0.0096434  -0.0076946 -0.00022403    -0.26397    0.065387    0.021863
0.00010078   -0.017439   -0.019712   -0.014191    -0.23409    0.064737    0.024786
-0.028157  -0.0041217   -0.025559   -0.025884    -0.18536    0.058241    0.029983
-0.048945    0.040702    -0.02361   -0.033354    -0.13177    0.048172     0.03518
-0.050569     0.10631   -0.011917   -0.037577   -0.087922     0.03583    0.039402
-0.034329     0.15536   0.0065969   -0.036602   -0.055116    0.025111    0.041676
-0.0099683     0.15536    0.023162   -0.032055   -0.026533    0.017316    0.046873
0.013743    0.099492    0.032906   -0.026209    0.014717    0.014717    0.054019
0.034855    0.008221    0.036804   -0.022311    0.082602    0.016991    0.062789
0.05207   -0.079152     0.03453   -0.026209     0.18557    0.017316    0.067011
0.063763    -0.12625    0.028684   -0.036278     0.31776    0.016341    0.061489
0.068635      -0.123     0.01894   -0.045372     0.45483    0.013093    0.044924
0.064088   -0.087922   0.0062721   -0.048296     0.56754   0.0069217     0.02706
0.05272   -0.041799   -0.010618   -0.046996      0.6338  -0.0021729    0.012119
0.039727   0.0062721   -0.027508   -0.042774     0.64257   -0.012892      0.0014
0.028034     0.06831   -0.042124   -0.034654     0.59872   -0.020687  -0.0054209
0.020564     0.15309   -0.053492   -0.021012     0.51557   -0.022636  -0.0080194
0.019589      0.2463   -0.059014  -0.0018481     0.41228   -0.022961  -0.0080194
0.024137     0.31809   -0.054142    0.022837     0.31257   -0.024909  -0.0057458
0.031607     0.34472     -0.0405     0.05142     0.23624   -0.026858  0.00042559
0.03583     0.32361   -0.019063    0.075131     0.19304   -0.025884   0.0078962
0.029983     0.27489   0.0036737    0.085525     0.18199    -0.02361    0.010495
0.008221     0.21967    0.016991    0.081303     0.19336   -0.023285   0.0023744
-0.023935     0.17745    0.016666    0.067986     0.21025   -0.024585   -0.011917
-0.053492     0.15373   0.0095202    0.050771      0.2187   -0.025559   -0.024585
-0.072331     0.14334   0.0052977    0.035505      0.2122   -0.024585   -0.030431
-0.071357     0.13262    0.008221    0.025111     0.18557    -0.02361   -0.027833
-0.051544     0.11313    0.015692    0.019914     0.13684   -0.023935   -0.016464
-0.018088    0.086824    0.026085    0.020239    0.065062   -0.021661  0.00010078
0.020239    0.061489    0.036804    0.031282   -0.022961   -0.016464    0.018615
0.053694    0.038753    0.044924    0.051096    -0.11391  -0.0083442    0.033556
0.072208    0.015042    0.047847    0.069934    -0.19836  -0.0044465    0.041351
0.077405   -0.010293    0.046548    0.078379    -0.26949  -0.0063954    0.041027
0.081952   -0.034329    0.038428    0.074482    -0.32341   -0.011917    0.037129
0.099167   -0.054792    0.029333    0.064413    -0.36368   -0.014516    0.040052
0.13165   -0.066485     0.02706    0.055643    -0.39389  -0.0083442    0.051745
0.16803   -0.070382    0.032582    0.054019    -0.42312   0.0052977    0.067011
0.19401   -0.068109    0.042651    0.053369    -0.45463    0.019589    0.079679
0.19921    -0.06616    0.050771    0.048822    -0.48094    0.026085    0.081952
0.18264   -0.064861    0.051745    0.033556    -0.49556    0.020239    0.070909
0.15276   -0.059664    0.042651    0.011469     -0.4962   0.0056225    0.051096
0.11833   -0.047971    0.025436  -0.0073698    -0.48256  -0.0067202    0.029658
0.08585   -0.032705   0.0085458   -0.020687    -0.44716    -0.01614    0.012768
0.056942   -0.021986 -0.00022403   -0.028157    -0.38317   -0.021012   0.0075714
0.034855   -0.011917   0.0023744   -0.031406    -0.29872   -0.022311    0.014392
0.021213  0.00042559    0.012443   -0.032055    -0.22921   -0.019712    0.027709
0.016016     0.01894    0.021538   -0.030431    -0.21297   -0.015815    0.042001
0.016991    0.036804    0.025761   -0.025559    -0.26429   -0.011267    0.050446
0.016016    0.047523    0.026085   -0.019063    -0.35946  -0.0073698    0.050771
0.012443    0.047523    0.028684   -0.010618    -0.46015  -0.0034721    0.046873
0.0088706    0.040702    0.034206  -0.0015233    -0.53583   0.0010752    0.041676
0.0091954    0.029658    0.041676   0.0059473    -0.57318  0.00075039    0.036479
0.014392     0.01829    0.045899    0.009845    -0.58163 -0.00022403    0.032906
0.016991    0.011469    0.041027   0.0088706    -0.57318 -0.00054884    0.030308
0.013093    0.009845    0.028034   0.0036737    -0.54915   0.0036737    0.023812
0.00010078    0.010819    0.013093  -0.0024977    -0.50205   0.0078962    0.014717
-0.020037    0.011469   0.0033489   -0.013216     -0.4202    0.009845   0.0065969
-0.044073    0.015042  -0.0028225   -0.027508     -0.2971   0.0072465    0.003024
-0.067459    0.019914   -0.010618   -0.036278    -0.13794 -0.00054884  -0.0031473
-0.085324    0.019264   -0.025559   -0.030756    0.042001   -0.011267   -0.012567
-0.098316   0.0075714   -0.042124  -0.0093186     0.22552   -0.018738   -0.019712
-0.10741   -0.020687   -0.055766    0.023487     0.39149   -0.017114   -0.017439
-0.11521   -0.060638   -0.062912     0.05272     0.51525  -0.0050961  -0.0076946
-0.12268    -0.10611   -0.060963    0.063438     0.58151    0.009845   0.0046481
-0.1269    -0.13697   -0.051219    0.056292     0.58378    0.020888    0.014068
-0.12138    -0.14119   -0.038551    0.038753     0.53214    0.025436    0.016991
-0.10611    -0.12495   -0.028157    0.020888     0.44346    0.022837    0.010819
-0.084024    -0.11293   -0.019063    0.010819     0.33433    0.013093  -0.0067202
-0.057715    -0.11748  -0.0080194   0.0095202      0.2187  -0.0044465   -0.026533
-0.026533    -0.11748   0.0088706    0.017965     0.10859   -0.026209   -0.038227
0.0062721   -0.086298    0.029333     0.03583    0.010819   -0.042449   -0.034978
0.035505   -0.022961    0.045899    0.053369   -0.073631   -0.047646   -0.019388
0.055318    0.049796     0.05272    0.065387    -0.13989   -0.042449  0.00075039
0.065712    0.097218    0.045574     0.06831    -0.19186   -0.035953    0.016016
0.06896    0.096569    0.027385    0.063113    -0.23474   -0.030756    0.023162
0.069934    0.049796   0.0046481    0.053044    -0.27599   -0.027508    0.024461
0.066686   -0.018413   -0.010943    0.038103    -0.31626   -0.027833    0.021538
0.059541   -0.078503   -0.017439    0.023162    -0.34907   -0.029132    0.015367
0.049147    -0.11001    -0.01614    0.009845    -0.36953   -0.029782   0.0056225
0.038428    -0.11066   -0.010293   0.0023744    -0.37473   -0.027833  -0.0041217
0.030633   -0.085648  -0.0044465 -0.00054884    -0.36238   -0.023285  -0.0060706
0.026085   -0.042774  0.00042559   0.0010752    -0.33737   -0.018738   0.0069217
0.024786   0.0069217   0.0075714   0.0026992    -0.30522   -0.011592    0.029658
0.028034    0.049147    0.015367   0.0020496    -0.27306  -0.0024977     0.05142
0.031282    0.071234    0.021863  0.00075039    -0.24253   0.0072465    0.063113
0.031932    0.070259    0.023487   0.0026992    -0.21557    0.014068    0.062464
0.028684    0.048822    0.023812   0.0088706    -0.18894    0.016666    0.053369
0.023812    0.017965    0.022512    0.016341    -0.15711    0.015367    0.039727
0.020564  -0.0099683     0.01764    0.021538    -0.11748    0.011144    0.028684
0.017965   -0.028807   0.0078962    0.022512   -0.070382   0.0049729    0.019264
0.017316   -0.043748  -0.0031473    0.019589   -0.017764  0.00075039    0.016016
0.01829   -0.056741  -0.0080194    0.018615      0.0433  -0.0021729    0.016341
0.019914   -0.063561  -0.0057458     0.01829     0.11021  -0.0060706    0.017316
0.022512   -0.051219 -0.00054884    0.016991       0.169   -0.014191    0.016016
0.020564   -0.019388   0.0020496    0.013093     0.19206   -0.026209   0.0095202
0.011794    0.024786  0.00075039     0.01017     0.15698   -0.039201  -0.0031473
-0.0028225    0.064413 -0.00022403   0.0085458    0.072858   -0.048945    -0.01549
-0.020037    0.090397  0.00010078    0.011144   -0.031406   -0.053168   -0.024585
-0.036602    0.096893  -0.0018481    0.019914    -0.11878   -0.051219   -0.026533
-0.048296    0.089423  -0.0076946    0.030633    -0.16458    -0.04992   -0.020687
-0.055441    0.073182   -0.017439    0.038753    -0.16295   -0.051219  -0.0080194
-0.059339    0.053044   -0.027183    0.044924     -0.1243   -0.054142   0.0026992
-0.063561    0.032582   -0.030431    0.046873   -0.059664   -0.059014   0.0036737
-0.071357    0.015367   -0.022961      0.0433    0.019589   -0.062912  -0.0041217
-0.078827   0.0075714   -0.014191    0.036804    0.096569   -0.062587   -0.017114
-0.077203   0.0091954   -0.010618    0.031607     0.14919   -0.056091   -0.030431
-0.06616    0.018615   -0.014191    0.029333     0.16575   -0.046022   -0.043748
-0.047321    0.031607   -0.021012     0.02641     0.14464   -0.035953   -0.054792
-0.026533    0.042651   -0.028807    0.016991     0.10469   -0.027183   -0.062262
-0.0057458    0.049472   -0.032705   0.0059473    0.067011   -0.020687   -0.062587
0.011144    0.050771   -0.026209  0.00042559      0.0433    -0.01549   -0.056091
0.018615    0.045249   -0.011592   0.0049729     0.03453  -0.0054209   -0.048296
0.016991    0.033556   0.0026992    0.013743    0.037778   0.0078962   -0.043099
0.009845     0.01894     0.01017    0.022188    0.048822    0.017316     -0.0405
0.0023744    0.013743   0.0088706    0.024461    0.056617    0.019589   -0.037902
-0.0034721    0.021538      0.0014    0.021538    0.054668    0.014717   -0.033679
-0.0021729    0.045899  -0.0031473     0.01764    0.038428   0.0091954   -0.027183
0.0075714    0.084551    0.003024    0.017965   0.0072465   0.0091954   -0.018738
0.019264     0.12678     0.01829    0.022837   -0.037577    0.016341  -0.0096434
0.023487     0.15893     0.03453    0.025761    -0.10124    0.025761  -0.0034721
0.014717     0.17062    0.040052    0.020239    -0.18504     0.03583  -0.0024977
-0.0047713     0.15601    0.032906    0.003024    -0.28605    0.044275  -0.0050961
-0.028157     0.11898    0.017965   -0.017114    -0.39097    0.048172  -0.0076946
-0.043748    0.070259    0.003024   -0.035303    -0.49003    0.047198   -0.008669
-0.047646    0.023162  -0.0063954   -0.047646    -0.56182    0.043625  -0.0067202
-0.039201   -0.013866  -0.0076946   -0.052518    -0.59007    0.042326  -0.0041217
-0.020037   -0.031406  -0.0054209   -0.048296      -0.555    0.046873  0.00010078
0.0020496   -0.034978 -0.00054884   -0.036278    -0.44391    0.054019   0.0085458
0.021213   -0.039201   0.0069217   -0.018088    -0.26494    0.057917    0.020564
0.042326   -0.050894    0.018615   0.0059473   -0.047321    0.054993    0.033231
0.069285   -0.059989     0.03583    0.033881     0.17647    0.046548    0.044599
0.11476   -0.046022    0.054668     0.06084     0.38987    0.039078    0.053694
0.18362    0.003024    0.073832    0.079029     0.58151    0.032906     0.06019
0.26417    0.087799    0.087474    0.083576     0.74683    0.029658    0.063438
0.33368     0.18589    0.092021    0.072208     0.88715    0.027709    0.062464
0.36746      0.2619    0.086824     0.05142      1.0064    0.023812    0.058566
0.35382     0.28398    0.073182    0.026735      1.1077     0.01764    0.056942
0.30087      0.2554    0.059216    0.010819      1.2025    0.013743    0.059865
0.22617     0.21447    0.047847    0.013743      1.3016    0.012768    0.064737
0.14756     0.19531    0.042001    0.035505      1.3968    0.013093     0.06961
0.072858     0.19953    0.037778     0.06084      1.4396    0.012443    0.067336
0.0010752     0.20376    0.029983    0.075131      1.3399    0.013093    0.059216
-0.070382     0.17452    0.012768     0.06896      1.0135    0.011794    0.047523
-0.13957    0.097868   -0.015165    0.044275      0.4636      0.0014    0.031282
-0.20713    -0.01614   -0.052518    0.014068    -0.18342    -0.01614    0.010495
-0.26981    -0.13827   -0.087272   -0.012242    -0.73624   -0.032055   -0.011917
-0.31854    -0.23961    -0.10676   -0.027508     -1.0643   -0.036927   -0.024909
-0.34874    -0.29677    -0.10351   -0.028807     -1.1621   -0.027833   -0.025559
-0.34939      -0.301   -0.078827   -0.018738     -1.1267  -0.0093186   -0.017114
-0.31399    -0.26527   -0.045372  -0.0015233     -1.0614   0.0091954  -0.0057458
-0.24968    -0.22012   -0.015165    0.017965     -1.0097    0.020564   0.0043233
-0.17659    -0.18796   0.0010752     0.03453    -0.95873    0.022837    0.011144
-0.11131    -0.17075   0.0046481    0.046873    -0.86908    0.017316    0.016991
-0.059014     -0.1623   0.0023744    0.050446     -0.7122   0.0085458    0.020888
-0.019063    -0.16035  -0.0047713    0.037778    -0.48906  -0.0031473    0.017316
0.014717    -0.17335   -0.016464    0.008221    -0.23246   -0.016789   0.0039985
0.039402    -0.21005   -0.032705   -0.033679     0.01764   -0.028807   -0.018413
0.044275    -0.26267   -0.050894   -0.076554     0.24403   -0.034004   -0.038227
0.02706    -0.31106   -0.064536    -0.10384     0.44216   -0.030106   -0.047971
-0.0021729    -0.33185   -0.066485    -0.09994     0.59417    -0.01614   -0.044723
-0.021661    -0.30359   -0.054467   -0.069733     0.68285 -0.00054884   -0.031406
-0.014516    -0.21914   -0.032055   -0.026533     0.71305    0.012119   -0.015165
0.017316   -0.085973  -0.0089938    0.016016     0.72182    0.017316  -0.0044465
0.057917    0.079029    0.011794    0.045574     0.72864    0.015042  -0.0050961
0.083901      0.2567    0.034855    0.056617     0.71403    0.010495   -0.013866
0.082927     0.42235    0.058891    0.054344     0.64452   0.0072465    -0.02426
0.062139      0.5487    0.081303    0.043625     0.50842     0.01017   -0.029132
0.037129     0.61106    0.092996     0.02641     0.32978    0.019914   -0.023285
0.01764     0.59287    0.087149    0.009845     0.14009     0.03518   -0.010618
0.0039985     0.49901    0.063113  -0.0047713   -0.032055    0.044599   0.0017248
-0.0044465     0.36194    0.029009   -0.016789    -0.16458    0.044275    0.010819
-0.0028225     0.22714  -0.0054209   -0.023285    -0.24221    0.033556    0.013418
0.011469      0.1271   -0.024585   -0.022636    -0.26234    0.020239    0.010495
0.03518    0.071234   -0.022961   -0.019388    -0.24383   0.0088706   0.0069217
0.06019    0.043625  -0.0083442    -0.01614    -0.21395   0.0046481    0.011794
0.084226    0.025436   0.0062721   -0.015165    -0.20908    0.010819    0.030957
0.10274   0.0023744    0.013418   -0.018413    -0.27014    0.027385    0.055643
0.11086   -0.027833    0.014068   -0.024585    -0.43449    0.044275    0.076431
0.10761    -0.05804    0.016016   -0.030431    -0.70116    0.050446    0.083251
0.098517   -0.079802    0.018615   -0.033354     -1.0078    0.041027    0.074482
0.089098   -0.092469    0.020888   -0.034329     -1.2413    0.016341    0.056292
0.081627    -0.10351    0.015042   -0.030756     -1.2835   -0.011917    0.032582
0.06831    -0.11391   0.0033489   -0.022311     -1.0822   -0.033354   0.0085458
0.04395    -0.11488  -0.0067202   -0.014516    -0.67647   -0.036927  -0.0096434
0.012768   -0.097341   -0.011267   -0.011267    -0.17984   -0.024585   -0.016789
-0.018738   -0.069408  -0.0073698  -0.0099683     0.26839  -0.0060706   -0.014516
-0.039526   -0.048296   0.0017248  -0.0099683     0.57728   0.0069217   -0.007045
-0.043423   -0.052193    0.013093  -0.0076946     0.72929    0.008221  -0.0015233
-0.031081   -0.085324    0.023812  0.00010078     0.76957   0.0010752  0.00010078
-0.008669    -0.13664    0.032582    0.018615     0.76015  -0.0037969  0.00010078
0.015692    -0.18601    0.040377    0.049147     0.73384   0.0020496   0.0043233
0.034855    -0.20875    0.048497    0.080653     0.67765    0.019264    0.015042
0.040377    -0.19446    0.056942     0.10436     0.55195    0.042975    0.032582
0.034206    -0.14671    0.062464     0.11573      0.3418     0.06019    0.048172
0.022188   -0.076229    0.063113     0.11573    0.079679    0.060515    0.053369
0.013093    0.013743    0.059216     0.10534    -0.17075    0.039078      0.0433
0.009845      0.1297    0.054668    0.088773    -0.35524   0.0046481    0.024786
0.013743     0.27326    0.050771    0.069285    -0.45333   -0.028157   0.0043233
0.020239      0.4165    0.046223    0.044924    -0.46665   -0.050894   -0.011917
0.029658     0.51135    0.039727    0.019589    -0.40623   -0.056416   -0.019063
0.040052     0.52174     0.03518  0.00075039    -0.28053   -0.047646   -0.016789
0.05142     0.44671    0.030633  -0.0054209    -0.11033   -0.030106  -0.0031473
0.063113     0.31744    0.028034   0.0010752    0.074482   -0.011267    0.014392
0.078379      0.1768    0.024786    0.015692     0.24695   0.0059473    0.029333
0.10534    0.054019    0.020239    0.030308     0.39474     0.01829    0.036804
0.14302    -0.03303    0.016666    0.042651     0.51687    0.026085    0.038753
0.18719   -0.084999    0.016991     0.05142     0.62081    0.030308    0.039727
0.22779    -0.11326     0.01894    0.054668     0.70883     0.03518    0.043625
0.25702     -0.1308    0.016991    0.055318     0.77607    0.040052    0.048497
0.26872    -0.14736   0.0075714     0.05272     0.80627    0.042975    0.049796
0.26157     -0.1753  -0.0073698     0.04395     0.78549    0.037129    0.047523
0.23851    -0.21427    -0.02426    0.028359     0.70331    0.021863    0.037454
0.2044    -0.24903   -0.037252   0.0075714     0.55909   0.0026992    0.020564
0.15211    -0.25552   -0.044073   -0.012242     0.37168   -0.014191  0.00075039
0.071883    -0.22694   -0.039526   -0.023935     0.16998   -0.026858   -0.018738
-0.034004    -0.17692   -0.028157   -0.026533   -0.020362   -0.036278   -0.034004
-0.14834    -0.12787   -0.015815   -0.021337    -0.20225   -0.042124   -0.040175
-0.25325    -0.09994  -0.0093186   -0.015165    -0.39129   -0.046347   -0.040175
-0.33153   -0.098965   -0.017764   -0.011592    -0.58748   -0.051544   -0.038876
-0.36985    -0.11878     -0.0405   -0.013866    -0.74955   -0.059014   -0.044723
-0.36336    -0.13827   -0.069083   -0.021012    -0.82848   -0.069733   -0.056741
-0.31431    -0.13502   -0.086623   -0.028157    -0.80932   -0.077853   -0.066485
-0.23701    -0.10189   -0.089221   -0.030431    -0.71577   -0.080127   -0.068109
-0.15061   -0.045697   -0.078827   -0.034329    -0.59072   -0.077203   -0.063237
-0.069083    0.022512   -0.062587   -0.040175    -0.46178   -0.070058   -0.056416
0.0020496    0.082927   -0.046022   -0.045047    -0.34484    -0.06551   -0.047971
0.056617      0.1219   -0.033679   -0.043423    -0.24221    -0.06551    -0.04115
0.097543     0.14172   -0.022961   -0.033679    -0.14606   -0.063886   -0.037252
0.13035     0.15406   -0.011267    -0.01484   -0.051544   -0.052518   -0.034978
0.15666     0.16673  0.00042559   0.0095202    0.042975   -0.031081   -0.033679
0.1742     0.17745   0.0085458    0.039402     0.13425  -0.0083442    -0.03303
0.17874     0.17972    0.015367     0.06896     0.21188   0.0085458   -0.031081
0.169       0.169    0.024786    0.092021     0.26384    0.014717   -0.027833
0.14789     0.14237    0.038428     0.10339     0.27879     0.01017   -0.023285
0.12255     0.10306    0.050446     0.10274     0.25735      0.0014    -0.01549
0.096244    0.057917    0.055643    0.093321     0.20603   -0.008669  -0.0024977
0.064413    0.012119    0.053044     0.07708     0.13587   -0.017114    0.012119
0.01017   -0.033354    0.041676    0.057267    0.061165   -0.019712    0.025436
-0.077203   -0.076879    0.025111      0.0433  -0.0015233   -0.013866    0.032582
-0.19056    -0.10968    0.010495    0.039402   -0.042774 -0.00022403    0.032257
-0.29417    -0.12268   0.0043233     0.04395   -0.061288    0.016666    0.026085
-0.35167    -0.11391   0.0078962    0.050446   -0.061937    0.030308     0.01829
-0.34614   -0.086298    0.016341     0.05272   -0.051868    0.034855    0.019264
-0.28833   -0.049595     0.02641    0.050446   -0.039851    0.031282    0.031282
-0.2042   -0.013216    0.033881    0.044599   -0.027508    0.026085    0.049472
-0.11748     0.01829    0.036154    0.034855   -0.018738    0.016666    0.064737
-0.047321    0.038103    0.034855    0.022188    -0.01614   0.0043233    0.072858
-0.0031473     0.04395    0.029983    0.012443   -0.021661  -0.0067202    0.071883
0.016016    0.039078    0.019914   0.0036737    -0.03173   -0.014516    0.066686
0.014717    0.032582   0.0085458 -0.00054884   -0.040175   -0.017114    0.062789
0.0036737     0.03518  0.00010078   0.0033489   -0.039201   -0.014191    0.063438
-0.010943     0.05142 -0.00087364    0.014392   -0.021337  -0.0041217     0.06831
-0.025884    0.075781   0.0049729    0.029009    0.008221    0.013093    0.072858
-0.037577    0.097543    0.012443    0.041351    0.038753    0.032906    0.073507
-0.045697     0.10794    0.015692    0.043625    0.049796    0.045574    0.069285
-0.043423     0.10079    0.012443    0.036154    0.026735    0.043625    0.057267
-0.028157    0.078055   0.0046481    0.023812   -0.031081    0.029658      0.0433
-0.0047713    0.049472  -0.0060706    0.014068    -0.10871    0.010495    0.031932
0.017316    0.020564    -0.01549     0.01017    -0.18439  -0.0073698    0.024137
0.031282   -0.018088   -0.023935    0.016016    -0.23668   -0.018738    0.017965
0.041676   -0.075255   -0.027183    0.029009    -0.25747   -0.028807    0.011144
0.053044    -0.14379   -0.026533    0.038753       -0.25   -0.035953   0.0049729
0.070259    -0.20031    -0.02361    0.039727    -0.22337   -0.041799   0.0020496
0.094295    -0.22467   -0.021986    0.029658    -0.18991   -0.048296 -0.00054884
0.12125    -0.20875   -0.021661    0.012443    -0.15321   -0.052193  -0.0067202
0.13262      -0.161   -0.022961  -0.0063954    -0.10611    -0.04992    -0.01484
0.11606   -0.098316   -0.026209   -0.021661   -0.041475   -0.044723   -0.022636
0.071558     -0.0405   -0.030756   -0.029457    0.037129   -0.042124   -0.031081
0.01017  -0.0037969   -0.034978   -0.027833     0.11995   -0.045372   -0.038876
-0.056091    0.012119    -0.03303   -0.013866     0.19239   -0.053492   -0.040175
-0.12105    0.011144   -0.018738     0.01017     0.23981   -0.059664    -0.03303
-0.17854  -0.0011985   0.0026992    0.033556     0.25085   -0.058689   -0.021661
-0.22337   -0.026858    0.020888    0.044275     0.22779   -0.050244   -0.011917
-0.24838   -0.068434    0.024786    0.038428     0.18914   -0.037252  -0.0057458
-0.25162      -0.123     0.01017    0.020888     0.15373   -0.026209  -0.0024977
-0.22499    -0.17465   -0.015815   0.0026992     0.12905   -0.020362 -0.00022403
-0.16912    -0.20648   -0.043748  -0.0073698     0.11086   -0.018088   0.0043233
-0.092145    -0.20225   -0.059664  -0.0057458    0.086175   -0.015165    0.012768
-0.0031473    -0.15256   -0.053817    0.008221    0.040377  -0.0096434    0.021863
0.097868   -0.049595   -0.025234    0.025761   -0.030756  -0.0024977    0.033231
0.21058     0.10404    0.015367    0.041351    -0.11488   0.0091954    0.048497
0.33011     0.28366    0.050771    0.048822    -0.19089    0.024137    0.066037
0.44996     0.45093    0.066037    0.042001    -0.23863     0.03518    0.076431
0.55682     0.57111    0.058891     0.02641    -0.25065    0.039727    0.076431
0.62536     0.62958    0.038428   0.0085458    -0.23409    0.041351     0.06961
0.64225     0.62568    0.013418  -0.0024977    -0.19868    0.045899    0.061489
0.60749     0.57111  -0.0050961  -0.0057458    -0.15321    0.054668    0.055968
0.52369     0.47952   -0.015815  -0.0054209    -0.11196    0.065387    0.054019
0.39929     0.36551   -0.022311  -0.0054209   -0.084999    0.075131    0.049796
0.24728     0.22877    -0.03238   -0.008669   -0.072981     0.07773    0.040702
0.087474    0.061814    -0.04992   -0.014191   -0.069733    0.069934    0.026735
-0.051219    -0.14119   -0.073306   -0.019388   -0.062912    0.055318     0.01017
-0.14152    -0.36336   -0.090845   -0.019712   -0.041475    0.038103  -0.0034721
-0.1727    -0.56149   -0.093769   -0.016464  -0.0096434    0.025436   -0.008669
-0.15581    -0.68622   -0.084674   -0.012892    0.024137    0.015692  -0.0031473
-0.12008    -0.70148   -0.065835  -0.0096434    0.053694    0.011794    0.009845
-0.095717    -0.60729   -0.041475  -0.0083442    0.067336    0.013093    0.020239
-0.098316    -0.43871   -0.017764  -0.0021729    0.062789    0.019264    0.024461
-0.12755    -0.25357  -0.0011985   0.0095202     0.05142    0.030633    0.026085
-0.16523   -0.098641   0.0056225    0.025111    0.059865    0.043625    0.029009
-0.19641    0.017965     0.01017    0.040702     0.10826    0.055318    0.036479
-0.21395     0.11931    0.025111    0.056617     0.19109     0.06019    0.045899
-0.21979     0.22714    0.055318    0.067661     0.27781    0.062464    0.051745
-0.2172     0.33563    0.095269    0.069285     0.34017    0.065062    0.051745
-0.20355     0.41391     0.12743     0.06084     0.37038    0.068635    0.046223
-0.18017     0.43339     0.13782    0.051096     0.36778    0.068635    0.040377
-0.15288     0.38597     0.12515    0.046223      0.3392    0.061814     0.03583
-0.13145     0.28593     0.10014    0.047847     0.28561    0.052395    0.030308
-0.123     0.16153    0.074806    0.054344     0.20765    0.045899    0.021538
-0.1269    0.039402    0.056617    0.061814     0.12028    0.047847    0.011794
-0.13957    -0.06616    0.050771    0.063438    0.049147    0.054993   0.0036737
-0.15386    -0.13924    0.050446    0.057917    0.013418    0.063113   0.0020496
-0.15905    -0.16653    0.049147     0.04395    0.011794    0.068635    0.008221
-0.15191    -0.13989    0.045574    0.020564  -0.0024977    0.069285    0.021213
-0.13924   -0.073631    0.038753   -0.010293    -0.10903    0.065712    0.037129
-0.123   0.0078962    0.033556   -0.042124    -0.35069    0.063113    0.055968
-0.10059    0.078379    0.032582   -0.072656    -0.68622    0.064413    0.078379
-0.06616     0.11931    0.038753   -0.097017     -1.0062    0.067336     0.10339
-0.022311     0.12678    0.048172    -0.11553      -1.201    0.067986      0.1245
0.02641     0.11346    0.051096     -0.1204     -1.2212    0.064413     0.13392
0.074806     0.09397    0.042651    -0.10903     -1.0932    0.057917     0.12418
0.11736    0.078704    0.030957   -0.088572    -0.88597    0.046873    0.097868
0.14919    0.067986    0.025111   -0.070707      -0.669    0.031932    0.065062
0.1651    0.058241    0.025111   -0.062262    -0.48711    0.011144    0.031607
0.16413     0.05207    0.028359    -0.05804    -0.33348   -0.011267   0.0088706
0.14756    0.058241    0.031607   -0.043748    -0.18212   -0.027833   0.0033489
0.11216    0.074157    0.032582   -0.013541   -0.025234   -0.031406    0.015042
0.059541     0.08585    0.031932    0.026735     0.11476   -0.022961     0.03518
0.0017248    0.075456     0.02706    0.064737     0.20018  -0.0083442    0.050121
-0.045372    0.034206    0.011469    0.089748      0.2057 -0.00087364     0.05272
-0.069733   -0.026533    -0.01614    0.093645     0.15016   -0.007045    0.042001
-0.06681   -0.092145   -0.047971     0.07708    0.074482    -0.02426    0.021538
-0.042774    -0.14184   -0.067784    0.051096    0.028034   -0.046671  -0.0044465
-0.0096434    -0.16165   -0.072981    0.024461    0.051745   -0.065186    -0.03173
0.019264    -0.15418   -0.066485    0.008221     0.15536   -0.077203   -0.056741
0.038753    -0.13762   -0.055441   0.0065969     0.32361   -0.083375   -0.078178
0.051096    -0.11943   -0.046996    0.016016     0.52856     -0.0824    -0.09182
0.06019   -0.088247   -0.045372    0.030957     0.73254   -0.076879   -0.094093
0.070259   -0.023935   -0.047321     0.04395     0.89235   -0.067459   -0.084349
0.082602    0.073182   -0.051868    0.051745     0.96803   -0.054467    -0.06681
0.095269     0.17874   -0.057065    0.054019     0.94691     -0.0405    -0.04927
0.098517       0.258   -0.056416    0.051096     0.84785   -0.028807   -0.039201
0.0852     0.28658   -0.043748    0.043625     0.70753   -0.026858     -0.0405
0.057917     0.26449   -0.020362    0.032906     0.56397   -0.039201   -0.054467
0.026085     0.20928   0.0046481    0.020564     0.44509   -0.059664    -0.07493
-0.00054884     0.14464    0.024461    0.010819     0.36421   -0.080127   -0.092145
-0.010618      0.0865    0.030633   0.0049729     0.33238   -0.095068    -0.10156
-0.007045    0.038753    0.025111   0.0039985      0.3444    -0.10059    -0.09929
0.0039985  -0.0011985     0.01017   0.0091954     0.36746   -0.096042   -0.086623
0.020564   -0.028807  -0.0080194    0.017965     0.35869   -0.079802   -0.068758
0.039402   -0.036602   -0.022961    0.029009     0.29925   -0.055116   -0.050244
0.052395   -0.023935   -0.027833    0.041027     0.19434   -0.030431   -0.034978
0.052395   0.0023744   -0.021012    0.054993    0.070909  -0.0096434   -0.024909
0.039078    0.028359   0.0010752    0.068635   -0.042124   0.0059473   -0.015815
0.020888     0.04395    0.028359    0.076431    -0.12592    0.015367  -0.0037969
0.011794    0.044275    0.048172    0.078055    -0.17367    0.019589    0.014392
0.024137    0.031932    0.053369    0.072208    -0.18796    0.019914    0.032257
0.054668    0.014068    0.045574    0.061489    -0.18309    0.017965    0.042001
0.088773      0.0014    0.033881    0.052395    -0.16653    0.013093    0.042651
0.11151 -0.00087364    0.022512    0.047523    -0.13664      0.0014    0.033881
0.11378   0.0036737    0.012443    0.041351   -0.098965   -0.013541    0.016991
0.099492   0.0091954   0.0062721     0.03453   -0.069408   -0.027833  0.00042559
0.081952   0.0075714   0.0043233    0.023487   -0.066485   -0.037902   -0.013541
0.072533  0.00010078   0.0072465    0.012768    -0.10156   -0.043099   -0.021012
0.072858   -0.008669    0.015042   0.0078962    -0.16782   -0.045372   -0.022636
0.081303   -0.015815    0.025436   0.0078962    -0.24123   -0.045372   -0.019063
0.092671   -0.022636     0.03453    0.011794    -0.29028   -0.042774   -0.015815
0.097543   -0.025884    0.041351    0.015692    -0.29093   -0.035628    -0.01484
0.095269   -0.026858     0.04395    0.015692    -0.22986   -0.025234   -0.016789
0.087474   -0.027183    0.042651    0.014392   -0.098965   -0.013866   -0.019388
0.074482   -0.026858    0.037454     0.01764    0.091696  -0.0050961   -0.018088
0.060515   -0.028157    0.033231    0.024137     0.31159  0.00042559   -0.013541
0.047523   -0.031081    0.030633    0.031607     0.51232  0.00042559  -0.0093186
0.034855   -0.034004    0.023162    0.037129     0.65654  -0.0073698   -0.008669
0.019914   -0.038551    0.010495    0.039078     0.71825    -0.01614   -0.010943
0.0043233   -0.042124  -0.0024977    0.036804     0.69259   -0.020687   -0.015165
-0.010293   -0.044723  -0.0050961     0.03453     0.59547   -0.015815    -0.01549
-0.028482   -0.044398   0.0010752    0.032257     0.46165  -0.0099683   -0.011592
-0.053492   -0.038876    0.013418    0.028034     0.31906  -0.0060706  -0.0099683
-0.07428   -0.029457    0.023812    0.024786     0.18004  -0.0037969   -0.011917
-0.080776   -0.014516    0.029658    0.019589     0.04395  -0.0041217   -0.017439
-0.072006   0.0056225    0.031932   0.0095202   -0.094093  -0.0099683   -0.026858
-0.056416    0.016991    0.030633  -0.0060706     -0.2461    -0.02361   -0.038876
-0.042124   0.0017248    0.023162    -0.02426    -0.44846   -0.042449   -0.052193
-0.038227   -0.047321   0.0062721   -0.038227    -0.77099   -0.061613   -0.064861
-0.043423    -0.12398   -0.018088   -0.045697     -1.2621   -0.076229   -0.073631
-0.052518    -0.21167   -0.040175   -0.052518     -1.8682    -0.08305   -0.073306
-0.053817    -0.27956   -0.056741   -0.063237     -2.4353   -0.080127   -0.059339
-0.043099    -0.29937   -0.068109    -0.07428     -2.7809   -0.067134   -0.034329
-0.021337    -0.26267   -0.073955   -0.080776     -2.7893   -0.045372  -0.0034721
0.0059473    -0.18861   -0.069083   -0.081426     -2.4655   -0.020687    0.024461
0.028034    -0.10319   -0.051219   -0.079477     -1.9088  0.00042559    0.041676
0.036804   -0.017439   -0.022311   -0.074605     -1.2514    0.012768    0.046223
0.030308     0.07773   0.0095202   -0.071032    -0.61086    0.019264    0.038753
0.016016     0.18264    0.031607   -0.070707   -0.072981    0.021213    0.022837
-0.0018481     0.27326    0.035505    -0.07493     0.32848    0.017965   0.0036737
-0.015165     0.31776    0.023162   -0.080127     0.60944    0.012443   -0.010618
-0.023285     0.29827   0.0033489   -0.081751     0.80335    0.010819   -0.013541
-0.024585     0.22714   -0.012242   -0.076879     0.94139    0.015042  0.00042559
-0.021337     0.13002   -0.019063   -0.063561       1.034    0.021213    0.025761
-0.011917    0.037454   -0.013216   -0.046671      1.0798    0.023812    0.055968
-0.00087364   -0.028157 -0.00022403   -0.032705      1.0801    0.019914    0.078055
0.0049729   -0.056091    0.014717    -0.02361      1.0362    0.008221    0.084551
0.0046481   -0.046671    0.024786   -0.016789     0.95698  -0.0057458    0.075131
0.0010752   -0.010943    0.029009  -0.0076946     0.85564   -0.013866    0.054993
-0.0050961    0.037129    0.029983     0.01017     0.74066   -0.013866    0.037454
-0.012242    0.078704    0.031607    0.037778     0.61821  -0.0073698    0.029658
-0.026209    0.099492    0.034855    0.067336     0.49836      0.0014    0.032257
-0.045697    0.094945    0.038428    0.092671     0.38695    0.011794    0.042975
-0.062587    0.067011    0.042326     0.10729     0.28528    0.023487    0.057592
-0.068758    0.029658    0.044275     0.10794     0.19693    0.033556    0.070909
-0.060313  -0.0057458    0.039078    0.099492     0.13132    0.037778    0.076431
-0.036602    -0.03173     0.02641      0.0865    0.096893     0.03453    0.072208
0.00042559   -0.045372    0.010819    0.076106    0.098517     0.02641    0.063763
0.042975   -0.041475  0.00010078    0.066686     0.13425    0.015692    0.056942
0.082602   -0.017439  -0.0044465    0.058241     0.19011   0.0046481    0.053369
0.11054    0.029333  -0.0060706    0.049796     0.25702  -0.0073698    0.051096
0.1297    0.091047  -0.0057458    0.044275     0.32166   -0.016789    0.049796
0.13944     0.15503  -0.0031473    0.038428      0.3798   -0.020362    0.049147
0.13977     0.20018  -0.0024977    0.031932     0.43177    -0.01549    0.051096
0.131     0.21123  -0.0028225    0.025111     0.47594  -0.0047713    0.053694
0.11833     0.18394  -0.0060706    0.020239     0.49836   0.0069217     0.06019
0.10566     0.11898   -0.013216    0.014068     0.47919    0.015692    0.061489
0.092346    0.030308    -0.02361   0.0069217     0.40319    0.020239     0.05207
0.074806   -0.063237   -0.032055  0.00075039     0.26677    0.019914    0.033231
0.051096    -0.13762   -0.037902 -0.00087364     0.08585    0.015042    0.013093
0.023162    -0.17789   -0.044073 -0.00022403    -0.10871   0.0039985  -0.0044465
-0.0057458    -0.18017   -0.046022 -0.00087364    -0.27923  -0.0099683   -0.019063
-0.028482    -0.15613   -0.041475   0.0010752    -0.39909   -0.020687    -0.02361
-0.036602     -0.1243   -0.030756   0.0078962    -0.45755   -0.022636   -0.010943
-0.029782    -0.09994   -0.017114    0.019264     -0.4556   -0.013541    0.014717
-0.011267   -0.089221  -0.0050961    0.038103    -0.41208   0.0052977    0.038428
0.009845   -0.087922   0.0039985    0.057267    -0.35491    0.024137    0.050121
0.017316   -0.084024   0.0075714    0.072858    -0.29905    0.038103    0.048172
-0.0028225   -0.061937     0.01017    0.082277    -0.24838    0.045574    0.039078
-0.051219   -0.018088    0.015367    0.084876    -0.19966    0.046548     0.02706
-0.11358    0.037454    0.021863    0.083901    -0.14931    0.044275    0.018615
-0.16133    0.091696    0.030633    0.080328    -0.09182    0.042001     0.01764
-0.18309     0.13035    0.042326    0.072533   -0.029457    0.041676    0.020239
-0.17919     0.15179    0.048822    0.059865    0.034855    0.041351     0.01829
-0.1714     0.15763    0.046873    0.048497    0.098517    0.040702   0.0091954
-0.17335     0.15016    0.040052    0.042001     0.15958    0.038103  -0.0037969
-0.18569     0.13035    0.034855    0.040377     0.22227    0.033231   -0.015815
-0.19511    0.092021    0.029658    0.040702     0.29633    0.024786   -0.021986
-0.18829    0.028684     0.01894    0.042326      0.3876    0.021538   -0.019712
-0.15776   -0.046347  -0.0011985    0.049147     0.47822    0.029009   -0.010618
-0.10221    -0.11131   -0.022311    0.058891     0.54383    0.045249   0.0056225
-0.030106    -0.14444   -0.034978    0.066686     0.56007    0.065712    0.024137
0.040702    -0.14119   -0.034654    0.071883     0.50745    0.082277    0.040052
0.095594    -0.11391    -0.02361    0.072858      0.3824    0.091047    0.046548
0.12288   -0.073955  -0.0080194    0.071234     0.20895    0.091372    0.044924
0.12645    -0.03173   0.0072465     0.06896    0.027709    0.082927    0.037778
0.11833    0.011469    0.017316    0.069934    -0.12268    0.068635    0.029333
0.11346    0.050771    0.023812    0.071558    -0.22369     0.05142    0.022188
0.11703     0.07773    0.024137    0.071234    -0.27858    0.037454    0.014717
0.1245    0.089748    0.020888     0.06831    -0.30457    0.029009   0.0085458
0.1271    0.087149    0.013418    0.056292    -0.32048    0.025111   0.0062721
0.11995    0.071558   0.0020496    0.031932    -0.33705    0.022837   0.0065969
0.096893    0.038753   -0.008669  -0.0044465    -0.35621    0.020564   0.0023744
0.062464   -0.014191   -0.018088   -0.043423    -0.36985    0.017316   -0.010293
0.027385     -0.0824   -0.023285   -0.077528    -0.36563    0.015367   -0.024909
0.00010078    -0.15061   -0.026533    -0.09929     -0.3299    0.014068   -0.034329
-0.016789    -0.19348   -0.029132    -0.11228    -0.26722    0.013093   -0.037577
-0.026533    -0.19121   -0.029782     -0.1191    -0.19348     0.01017   -0.037577
-0.038227    -0.14119   -0.030106    -0.11943    -0.11423  0.00010078   -0.037577
-0.068434   -0.058689   -0.031081    -0.11521   -0.023285   -0.015815   -0.041475
-0.12463    0.032906   -0.031406    -0.10611    0.083901   -0.033679    -0.04927
-0.19413     0.10924   -0.029782   -0.093444     0.20376   -0.046022   -0.055441
-0.24968     0.15601   -0.029132   -0.078503     0.32166   -0.050569   -0.057065
-0.26267       0.169   -0.029132   -0.057715      0.4191   -0.046996   -0.053168
-0.23084     0.15796   -0.028157   -0.024585     0.47594   -0.036278   -0.044723
-0.17367     0.13197   -0.022961    0.015692     0.47822   -0.024909   -0.034004
-0.11423     0.10079   -0.014516    0.053694     0.43339    -0.01484   -0.021661
-0.070707    0.069934  -0.0024977    0.082277     0.36518   -0.012567   -0.010293
-0.055441    0.039402    0.014392    0.099492      0.2986   -0.019063  -0.0034721
-0.068109   0.0062721    0.029009     0.10501     0.24468   -0.029782  -0.0015233
-0.094093    -0.02426    0.038753    0.097218     0.20538   -0.036602  0.00010078
-0.10741   -0.046671      0.0433    0.076106     0.17387   -0.033354   0.0036737
-0.091495   -0.053817    0.042651    0.046548      0.1336   -0.018088    0.008221
-0.045372   -0.046022    0.038103    0.019264    0.065387   0.0043233    0.013418
0.02641   -0.027508    0.032906   0.0062721   -0.030431    0.025761    0.021538
0.11638  -0.0050961    0.032582    0.014392    -0.13827    0.034206    0.028684
0.2083    0.011469    0.037454    0.035505    -0.24935    0.029333    0.030633
0.28366   0.0088706     0.04395    0.058566    -0.36076     0.01764    0.025111
0.32946   -0.015165    0.046223    0.074482     -0.4699      0.0014    0.014392
0.34407   -0.050244    0.038753     0.07708    -0.56994   -0.016789   0.0023744
0.32458   -0.071357    0.022837     0.06084    -0.66316   -0.037252  -0.0083442
0.27489    -0.04927   0.0010752    0.026085    -0.74891    -0.05804    -0.01614
0.20635    0.021863   -0.017764   -0.018413    -0.80445   -0.072006   -0.020687
0.13457     0.11931   -0.024585   -0.055441     -0.7999   -0.069733   -0.019388
0.069934     0.20928   -0.014191    -0.07493    -0.72454   -0.045697  -0.0054209
0.019914     0.27261    0.013743   -0.072331    -0.59462  -0.0063954    0.022188
-0.017114     0.31094    0.054993    -0.04927    -0.43449    0.038103    0.061814
-0.04862       0.334    0.094945    -0.01614    -0.27046    0.072533     0.10566
-0.07493      0.3379     0.12028    0.011794    -0.12105    0.092671     0.14204
-0.096042     0.30672     0.12255    0.025761    0.018615    0.095269     0.15958
-0.10741     0.22454     0.10144    0.024461     0.15633    0.081627     0.15406
-0.10351    0.095919    0.066686    0.015367       0.296    0.054668     0.12678
-0.078178   -0.041799    0.032582   0.0056225     0.42917    0.024786    0.089423
-0.034654    -0.14119    0.008221   0.0049729     0.54513  -0.0015233    0.055968
0.016016      -0.174  -0.0031473    0.016666      0.6286   -0.021986    0.029658
0.055968    -0.14411  -0.0031473    0.031932     0.65589   -0.035628    0.010819
0.068635   -0.084024   0.0039985    0.039727     0.61659   -0.043423  -0.0041217
0.048497   -0.031081    0.011144    0.033231     0.51622   -0.050244   -0.013216
0.0072465   -0.007045    0.014392    0.013418     0.37623   -0.059989   -0.011592
-0.035303  -0.0096434    0.016341  -0.0099683     0.21805   -0.068434  0.00042559
-0.061613   -0.020362    0.019264   -0.023285    0.074157   -0.069408    0.018615
-0.060963   -0.028807    0.024137   -0.018088   -0.014191   -0.056741    0.037129
-0.038227   -0.033354    0.032906      0.0014   -0.008669    -0.03173     0.05272
-0.0015233   -0.035628    0.042651    0.032257    0.094945  0.00010078    0.064737
0.044599   -0.035628    0.049796    0.067011     0.26287    0.025761    0.073507
0.096569   -0.027508    0.051096    0.094945     0.43404     0.03518    0.077405
0.15568  -0.0063954    0.045574     0.10631     0.54091    0.028034    0.071883
0.21642    0.032257    0.030957    0.096244     0.53116   0.0078962    0.053369
0.26579    0.082602   0.0075714    0.066362     0.40579   -0.018088    0.028684
0.28853     0.13067   -0.017764    0.024786     0.21642   -0.038876    0.008221
0.27944     0.16413   -0.039526   -0.013541    0.042001   -0.048945  0.00042559
0.24403     0.17647    -0.04862   -0.038876   -0.060963    -0.04862   0.0036737
0.20051     0.18199     -0.0405   -0.045047   -0.070382   -0.042124    0.012119
0.15796     0.19271   -0.014516    -0.03303   -0.007045   -0.031406    0.016666
0.11443      0.2083    0.021213  -0.0096434    0.076106   -0.017764    0.014717
0.060515      0.2161    0.049472    0.014717     0.10436  -0.0063954   0.0056225
-0.008669     0.20116    0.057592    0.028359  -0.0021729  -0.0034721  -0.0080194
-0.094418     0.15179    0.039727    0.028359    -0.28443   -0.011917   -0.023935
-0.18991    0.068635   0.0020496    0.019589    -0.69791   -0.023285   -0.037902
-0.27371   -0.042449   -0.036602    0.015042      -1.113   -0.032055    -0.04115
-0.32276    -0.16328   -0.062587     0.01764     -1.3761   -0.032705    -0.03173
-0.32113    -0.26884   -0.069083    0.022188     -1.3865   -0.025884   -0.013541
-0.26689    -0.34062   -0.060638    0.023487     -1.1452   -0.018413   0.0056225
-0.17692     -0.3718   -0.045372    0.017316    -0.75085   -0.011917    0.016666
-0.077853     -0.3783   -0.031081   0.0033489      -0.339   -0.011917    0.016016
0.011794    -0.37603   -0.024585   -0.015815   -0.022636   -0.017439   0.0052977
0.082927    -0.36921   -0.030106   -0.036278     0.15114   -0.023285   -0.010293
0.12775    -0.35329   -0.047646   -0.050244     0.19693    -0.02426   -0.024585
0.14074    -0.32406   -0.068109   -0.054467     0.16315   -0.021012   -0.035628
0.12385    -0.27144   -0.080776   -0.050244     0.10306   -0.015815   -0.043099
0.08585    -0.19186   -0.078827   -0.040825    0.049147  -0.0099683   -0.045697
0.042001   -0.089221   -0.061937   -0.031081    0.013743  -0.0057458   -0.045372
0.0078962    0.020239   -0.034654   -0.024909  -0.0044465  -0.0041217   -0.042774
-0.0076946     0.12125  -0.0037969   -0.018088   -0.007045  -0.0050961    -0.04115
-0.012242     0.19953    0.027709  -0.0089938   0.0033489  -0.0044465   -0.038227
-0.018088     0.24695    0.053694   0.0065969    0.016666   0.0023744   -0.033679
-0.034329      0.2619    0.072533    0.024137    0.028034    0.014717   -0.030106
-0.063237     0.23916    0.078379    0.032582    0.033231    0.022512   -0.029457
-0.095393     0.18232    0.070909    0.028684    0.031607    0.017965   -0.035953
-0.11683     0.10534    0.049472    0.016341     0.02706   0.0026992   -0.045372
-0.11651    0.033881    0.023162   0.0062721    0.029658    -0.01484   -0.059339
-0.091495  -0.0083442  -0.0015233   0.0043233    0.048172   -0.028482   -0.073306
-0.052518   -0.010618   -0.020362    0.009845    0.076431   -0.033679   -0.077528
-0.013541    0.015692   -0.029132    0.017965    0.096893   -0.027508   -0.067459
0.0091954     0.05142   -0.025234    0.022837     0.10306   -0.011917   -0.046022
0.0088706    0.081952   -0.014191    0.026735    0.097543   0.0095202   -0.019712
-0.0041217    0.097543  -0.0021729     0.03453    0.087799    0.032257   0.0052977
-0.0093186    0.096893    0.010819    0.047847    0.083901     0.05142    0.026085
0.00042559    0.088124    0.026085    0.065062    0.089748    0.063763    0.040702
0.017965    0.081952    0.038428    0.083251     0.10729     0.06831    0.046873
0.031932      0.0865    0.045574     0.09462      0.1323    0.066686    0.045574
0.033231     0.10631    0.048497    0.096893     0.16835    0.063113    0.040702
0.022837     0.13749    0.047847    0.092021     0.21382    0.058566     0.03453
0.0078962     0.16673    0.040702    0.087474     0.25702     0.05207    0.033556
-0.0044465     0.18037    0.029983    0.086175     0.27879      0.0433    0.036154
-0.011592      0.1729    0.016016    0.085525     0.26644    0.034206    0.042001
-0.01549     0.14496   0.0039985    0.086824      0.2174    0.025761    0.044924
-0.014516     0.10599  -0.0018481    0.085525     0.14367     0.01764    0.041676
-0.010943    0.061814  -0.0096434    0.080653    0.061165   0.0085458    0.031932
-0.0067202    0.011144   -0.018413    0.070584   -0.011592 -0.00054884    0.020564
0.00042559   -0.047321   -0.027833    0.054668    -0.04862   -0.010618    0.010819
0.0085458    -0.10124   -0.034654     0.03518   -0.036278   -0.017764    0.003024
0.014392    -0.13177   -0.037902    0.012768    0.016991   -0.021337  -0.0021729
0.015367    -0.12105   -0.036927  -0.0096434    0.093321   -0.026858  -0.0054209
0.0065969   -0.072006   -0.032705   -0.030756      0.1729   -0.038876  -0.0063954
-0.0047713   -0.010293   -0.027183    -0.04992     0.22812   -0.056741  -0.0047713
-0.012892     0.03453   -0.021337   -0.065835     0.22357   -0.078178  -0.0021729
-0.013216    0.047523   -0.018088   -0.081101      0.1206   -0.097991 -0.00022403
-0.0099683    0.030308    -0.01549   -0.096367     -0.0837    -0.11066  -0.0041217
-0.0073698  -0.0018481   -0.019388    -0.10968     -0.3351    -0.11456   -0.013216
-0.010618   -0.029782   -0.031081    -0.12105    -0.53421    -0.11488   -0.027508
-0.01484   -0.042449   -0.044398    -0.12268    -0.59105    -0.10709   -0.042124
-0.012892   -0.035953   -0.050894    -0.10774    -0.47379   -0.087922   -0.047646
0.0065969    -0.01549   -0.046671    -0.07493    -0.23116   -0.061613   -0.038551
0.042975    0.011144   -0.032055    -0.03173    0.037778   -0.034004   -0.016789
0.082602    0.032906   -0.012567   0.0036737     0.23039   -0.012892   0.0062721
0.10794    0.037454   0.0020496    0.022188     0.28593  -0.0047713    0.021863
0.11086    0.024461   0.0052977    0.020564     0.19466   -0.012567    0.027385
0.09462    0.003024  -0.0028225   0.0059473   -0.017764   -0.030756    0.024137
0.071883   -0.012242    -0.01549   -0.010943    -0.30814   -0.046996    0.015042
0.056617   -0.019712    -0.02361    -0.02361    -0.61411    -0.04862   0.0020496
0.055643   -0.020362   -0.026533   -0.028807    -0.85609   -0.034329   -0.011592
0.067336   -0.021661   -0.024909   -0.026858    -0.96523   -0.015165   -0.019388
0.088448   -0.022311   -0.016789   -0.017114    -0.91683  -0.0018481   -0.014516
0.11411   -0.020362  -0.0047713   0.0026992    -0.73754      0.0014 -0.00022403
0.13197   -0.013541   0.0069217    0.030957    -0.48516 -0.00087364     0.01829
0.13327  0.00042559    0.017965    0.065387    -0.21947      0.0014    0.036479
0.11866    0.019589    0.028684     0.09397    0.010819    0.013093    0.052395
0.095594    0.036804    0.038753     0.10891     0.17745     0.02706    0.059865
0.075456     0.04395    0.039727     0.10729     0.26937    0.032257    0.055643
0.064088    0.039078    0.029983    0.093321      0.2934    0.024137     0.04395
0.058891    0.023487    0.013743    0.067661     0.27554   0.0043233    0.026735
0.055968   0.0033489  -0.0034721     0.03583     0.24533   -0.013866   0.0072465
0.054019   -0.012892   -0.014516    0.012443     0.23624   -0.019388  -0.0067202
0.047847   -0.019712   -0.014191    0.008221     0.27846  -0.0057458  -0.0057458
0.03583   -0.016789 -0.00022403    0.023812      0.3746    0.023487    0.013743
0.019589  -0.0057458    0.019589     0.05207     0.49348     0.06084    0.042651
0.0026992   0.0075714    0.038753    0.081627     0.58898    0.094295    0.071234
-0.01614    0.016341     0.05207     0.10274     0.62503     0.11508    0.087799
-0.04115     0.01894     0.06084     0.11248      0.5984     0.12125    0.090722
-0.070707    0.022188     0.06961     0.11118     0.54091     0.11671    0.081303
-0.10059    0.028359    0.075781     0.10242     0.49024     0.10469    0.066037
-0.12105     0.03583    0.077405    0.086824      0.4597    0.088124    0.048497
-0.1295    0.037129    0.076755    0.064088      0.4282    0.070584    0.031932
-0.1256    0.034855    0.073182    0.031282     0.37623    0.053369    0.019914
-0.11715    0.029658    0.066037  -0.0083442     0.30055    0.041676    0.016341
-0.10579     0.03518    0.054019   -0.046022      0.2135     0.03583    0.018615
-0.087597     0.06019    0.037129   -0.077528     0.12255    0.032906    0.026735
-0.060313    0.087474    0.016016   -0.097017    0.019589    0.030308    0.038428
-0.025884    0.079354  -0.0041217    -0.10286    -0.10416    0.024786    0.048822
0.0056225   0.0095202   -0.019063   -0.095717    -0.24026    0.011469    0.051096
0.021213    -0.11066    -0.02426   -0.081101    -0.36336  -0.0057458    0.041676
0.016341    -0.24935   -0.021661   -0.061288    -0.43774   -0.022311    0.020239
-0.008669    -0.36466   -0.019712     -0.0405    -0.44066   -0.036278  -0.0083442
-0.044723    -0.41858   -0.025559   -0.021661    -0.37408   -0.046022   -0.031406
-0.075579    -0.39974   -0.040825   -0.008669    -0.25877   -0.050569   -0.043423
-0.088247    -0.33283   -0.059989  -0.0080194     -0.1282   -0.048296   -0.040175
-0.077528    -0.24805   -0.071357   -0.017114   -0.013216   -0.039526   -0.027833
-0.042449    -0.14314   -0.062912   -0.027508    0.065062   -0.026858  -0.0067202
0.016666    0.013743   -0.038876   -0.027508     0.10859   -0.013866     0.01764
0.092671     0.24143  -0.0073698   -0.017439      0.1297  -0.0034721    0.042326
0.16738     0.49511    0.020239  -0.0050961     0.13944  -0.0018481    0.059541
0.22389     0.68902    0.033231  -0.0011985     0.13912  -0.0073698    0.060515
0.258      0.7556    0.028684  -0.0034721     0.13912   -0.012892    0.044924
0.27781     0.68674    0.012443  -0.0050961     0.15373   -0.017114    0.024461
0.29145     0.52694  -0.0073698  -0.0021729     0.18524   -0.021012    0.010495
0.2999     0.34894   -0.021337   0.0078962     0.22779   -0.026209   0.0052977
0.29697     0.21252   -0.021661    0.022512     0.27879   -0.033679   0.0033489
0.27294     0.13652  -0.0050961    0.041351       0.334   -0.038227   0.0056225
0.2161    0.098193    0.021538    0.066037     0.37818   -0.034978    0.014068
0.11833    0.064737    0.044275    0.092996     0.39539   -0.021337    0.026085
-0.010943    0.012443    0.050771     0.11476     0.37623  -0.0015233     0.03453
-0.14639   -0.069083    0.037778     0.12483     0.32036    0.014392     0.03583
-0.25227    -0.16718    0.009845     0.11931     0.23786    0.022512    0.032906
-0.29872    -0.25682   -0.021986     0.10047     0.14626    0.024461    0.031282
-0.26949    -0.31561   -0.044073    0.080328    0.064413    0.027709     0.03583
-0.17562     -0.3325   -0.052193    0.067661   0.0023744     0.03518    0.046873
-0.054142    -0.30652    -0.04862    0.062464   -0.040175    0.042651     0.06019
0.053694    -0.24318   -0.037902    0.062464   -0.064211    0.047198    0.067986
0.1245    -0.15386   -0.025234    0.066037    -0.07493    0.051745    0.066362
0.1625   -0.059339   -0.010293    0.067986   -0.072656    0.058241    0.057267
0.17842    0.021538   0.0078962    0.066686   -0.061613    0.066362    0.047847
0.18069    0.078055    0.028359    0.064413   -0.048296    0.074806    0.040377
0.1651     0.10599    0.046548    0.061814   -0.036602    0.076431    0.032257
0.12125     0.10924    0.056292    0.055318   -0.025234    0.069285    0.022188
0.045574    0.094295    0.055968    0.040702   -0.011267     0.05207   0.0069217
-0.053817    0.070909    0.044924     0.01764    0.008221    0.029009   -0.018413
-0.1688    0.046548    0.022837  -0.0057458    0.025111   0.0036737   -0.053168
-0.28248    0.022188  -0.0041217   -0.022311    0.033231   -0.016464   -0.086948
-0.37603  0.00010078    -0.02361   -0.028482    0.031282   -0.028157    -0.10579
-0.43449   -0.019712   -0.029132    -0.02361    0.021538   -0.027833    -0.10059
-0.45366   -0.035628   -0.022961   -0.012242   0.0072465   -0.018088   -0.075904
-0.43644   -0.045047  -0.0083442  0.00042559  -0.0060706  -0.0031473   -0.042449
-0.38869   -0.054467   0.0069217    0.011144   -0.021661    0.011144    -0.01614
-0.31529   -0.078503    0.019264    0.017316   -0.043423     0.01829  -0.0037969
-0.22726    -0.12105    0.030633    0.015367   -0.078827    0.015692   -0.007045
-0.13307    -0.16815    0.037778   0.0088706     -0.1334   0.0033489   -0.019712
-0.039526    -0.19706    0.040377  0.00075039    -0.21362   -0.012242   -0.038876
0.042975    -0.19706    0.037778  -0.0031473    -0.31366   -0.022961   -0.053817
0.10566    -0.17042    0.030957  0.00010078    -0.41988   -0.029132   -0.058689
0.14496     -0.1308    0.019589    0.009845    -0.50725   -0.033679   -0.053168
0.15698   -0.095393   0.0095202    0.019264     -0.5498   -0.036927   -0.043423
0.14269   -0.068109   0.0026992    0.021538    -0.54005   -0.038551    -0.03173
0.10989   -0.045047   0.0023744    0.015692    -0.48679   -0.036927   -0.020687
0.076431   -0.017114    0.008221   0.0091954    -0.40818   -0.034978  -0.0083442
0.053694    0.017316     0.01894   0.0091954    -0.32471   -0.030431   0.0049729
0.044924    0.052395    0.030308    0.012768     -0.2474   -0.023935    0.016016
0.0433    0.079679      0.0433    0.016666    -0.18471    -0.01549    0.024461
0.04395    0.095269    0.054993    0.020564    -0.13567  -0.0067202     0.03453
0.045899    0.097543     0.06019    0.025761   -0.094418      0.0014    0.045899
0.05142    0.088448    0.056617    0.028359   -0.051544    0.011469    0.054993
0.064737    0.074157    0.047198    0.028034   0.0039985    0.019914    0.053044
0.085525    0.056292    0.038753    0.023162    0.079029    0.018615    0.041351
0.10339    0.034855    0.031282   0.0052977     0.17127   0.0052977    0.023162
0.11086    0.011794    0.019264   -0.023935     0.27132   -0.018738    0.003024
0.10014  -0.0099683   0.0026992   -0.057715     0.35512   -0.045697   -0.014191
0.072858    -0.02361   -0.010943   -0.083375     0.39896   -0.066485   -0.025884
0.039078   -0.027508   -0.020687   -0.089871      0.3837   -0.073306   -0.029132
0.0075714   -0.019712   -0.028807   -0.074605     0.30802   -0.068109   -0.021337
-0.014191  -0.0044465   -0.036602   -0.039851     0.19434   -0.052843  -0.0028225
-0.025884    0.014717   -0.044398   0.0036737    0.090722    -0.03303    0.016341
-0.03303     0.03518   -0.048945    0.042975     0.03583   -0.011592    0.030633
-0.04115    0.054668   -0.046022     0.06831    0.040377   0.0059473    0.037129
-0.048945    0.072533   -0.037252    0.079029    0.087474     0.01764    0.037454
-0.048945    0.083251   -0.025884    0.080003     0.14756    0.025111    0.031932
-0.03303    0.084876    -0.01484    0.078704     0.19239    0.029658    0.022837
0.0036737    0.076755 -0.00054884    0.079354     0.20051    0.032582    0.014717
0.054019    0.055968    0.015692    0.076431      0.1729    0.033231    0.011144
0.097543    0.021538    0.027709    0.071883     0.12158    0.030957    0.010495
0.1206   -0.022636    0.027385    0.064737    0.057917    0.024137   0.0072465
0.12028    -0.06551    0.013743    0.054993  -0.0037969    0.011144  -0.0028225
0.10274   -0.094743  -0.0063954    0.041676   -0.056741  -0.0024977   -0.022961
0.080978    -0.10156    -0.02361    0.024461    -0.10481   -0.012567   -0.044398
0.067661   -0.087597    -0.03303   0.0075714    -0.14996   -0.018413   -0.059014
0.067011    -0.06681   -0.036602   -0.011267    -0.18894   -0.021012   -0.060963
0.061814   -0.055116   -0.036602   -0.028807    -0.22337   -0.022961   -0.053168
0.02706   -0.053492    -0.03238   -0.036927    -0.27534   -0.029782   -0.043099
-0.042449   -0.042449   -0.026209   -0.034654    -0.36336    -0.04115   -0.034978
-0.12333  -0.0044465    -0.01549   -0.026858    -0.48451   -0.052843   -0.029782
-0.18374    0.054019  -0.0067202   -0.020037    -0.60696   -0.058365   -0.026858
-0.20258     0.10794   0.0046481   -0.017114    -0.68784   -0.055116   -0.026533
-0.17822     0.13847     0.01829   -0.019063    -0.68979   -0.044073   -0.027833
-0.12657     0.14724    0.031282   -0.022961    -0.60209   -0.028157   -0.029457
-0.064536     0.14529    0.038753   -0.024585    -0.43709   -0.013216    -0.03173
-0.0096434     0.14074    0.037454    -0.02426    -0.22304  -0.0054209   -0.035303
0.028684     0.13457    0.028034   -0.024909  -0.0037969  -0.0044465   -0.035953
0.05272     0.12288    0.015042   -0.026209     0.17939  -0.0067202   -0.028482
0.070909     0.10631      0.0014   -0.026858     0.29568  -0.0089938   -0.012892
0.086175    0.091047  -0.0089938   -0.027508     0.33693  -0.0093186   0.0059473
0.097543    0.083901    -0.01549   -0.029457     0.31614  -0.0073698    0.024461
0.10144    0.089423   -0.021012    -0.03303     0.25443  -0.0073698     0.03518
0.093321     0.10599   -0.028482   -0.038551     0.17095   -0.010293    0.033881
0.073182     0.12807   -0.036602   -0.043423    0.082927   -0.015815    0.019589
0.046548     0.14691   -0.039526   -0.040825     0.01017    -0.02361 -0.00022403
0.020239     0.15763   -0.033354   -0.028482   -0.037252    -0.03173   -0.013866
0.003024     0.15861   -0.015815  -0.0080194   -0.059339   -0.037252   -0.012892
-0.0076946     0.14886   0.0072465    0.015042   -0.060963     -0.0405      0.0014
-0.017764     0.12613    0.028684     0.03583   -0.050894   -0.040175    0.023812
-0.034329     0.09397    0.046873    0.053369   -0.043099   -0.031406    0.047523
-0.053168    0.053694    0.064088    0.068635   -0.033679   -0.011592    0.065387
-0.061613    0.012443    0.078055    0.083901      0.0014    0.016016    0.075131
-0.043423   -0.025559     0.08585    0.097543    0.078379    0.044275    0.080003
0.008221   -0.053168     0.08585     0.10339     0.17615    0.064737    0.081303
0.084551    -0.06681    0.076431     0.10014     0.24793    0.075781    0.081303
0.16575   -0.067784     0.06084    0.093645     0.25605    0.079679    0.078704
0.22747   -0.059014    0.041351    0.088773     0.19726    0.075131    0.075131
0.25215   -0.045372    0.025436    0.084551    0.098842    0.059216    0.068635
0.23396   -0.029132    0.016666    0.082277  -0.0028225    0.037454    0.059541
0.18069   -0.012242   0.0091954    0.078379   -0.077203    0.016991    0.045574
0.11411   0.0046481  -0.0011985    0.071234    -0.11456   0.0017248    0.029333
0.055643    0.019264   -0.013866    0.059865    -0.11715   -0.007045    0.012443
0.016341    0.029333   -0.028482    0.042651   -0.087922   -0.014191  0.00010078
-0.0028225     0.02706   -0.040175    0.023812   -0.034329   -0.018088  -0.0044465
-0.0083442    0.010819   -0.042124    0.009845    0.028359   -0.018088 -0.00022403
-0.0041217   -0.015815   -0.031081   0.0033489    0.049796   -0.010293    0.013743
0.0052977   -0.047971   -0.014516  -0.0021729   -0.045047   0.0026992    0.034855
0.0085458   -0.081426  0.00042559   -0.013216    -0.29028    0.011794    0.055968
-0.0037969    -0.11586    0.011144   -0.034329    -0.61573    0.009845    0.067661
-0.029457    -0.14964    0.019264   -0.062912    -0.87136    0.003024    0.071558
-0.055766    -0.18017    0.023162   -0.086948    -0.90904   0.0010752    0.071234
-0.070058    -0.19738    0.024137   -0.097341    -0.67063    0.010495    0.073182
-0.068434    -0.19121    0.025111   -0.093444    -0.21427     0.02706    0.080328
-0.059339    -0.14769    0.021538   -0.075255     0.32718    0.045899    0.091372
-0.054142   -0.068109    0.012443   -0.044398     0.80205    0.062789     0.10371
-0.062262    0.028684  -0.0011985   -0.010943      1.0989    0.074482     0.11248
-0.084024     0.11346  -0.0096434    0.015692      1.1593    0.080978     0.11183
-0.10741     0.17355   -0.008669    0.029658     0.99141    0.077405     0.10177
-0.11683     0.21155   0.0017248    0.031607     0.65978    0.065062      0.0852
-0.10416     0.23169    0.014068     0.02641     0.25345    0.046223    0.067011
-0.073631     0.22941    0.024461    0.020888    -0.13404    0.024137    0.048172
-0.034978      0.2044     0.02706    0.015692    -0.43254   0.0062721    0.029333
0.0056225      0.1638    0.021538    0.009845    -0.60794  -0.0015233    0.015042
0.042975      0.1245    0.013743   0.0010752    -0.65926  0.00075039   0.0085458
0.074482     0.10501   0.0088706  -0.0096434    -0.61249   0.0088706   0.0078962
0.095594     0.10664    0.011144   -0.019063    -0.50433    0.020239    0.011144
0.10631     0.10177    0.018615   -0.023285    -0.37148    0.030308    0.019264
0.11021    0.063438     0.02641   -0.019712    -0.23863    0.033231    0.029983
0.10404   -0.010943    0.026085   -0.011592     -0.1217    0.032906    0.038103
0.088124    -0.10384    0.012768  -0.0011985   -0.026533    0.033556    0.040052
0.067986    -0.18082  -0.0073698    0.010819    0.044924    0.037778    0.036804
0.05207    -0.21102   -0.027183    0.022837    0.099492    0.040377    0.030633
0.044599    -0.19121   -0.044073    0.032906     0.15309    0.038753    0.026085
0.047198    -0.14314   -0.052843    0.038753     0.23006    0.033231    0.022837
0.06084   -0.092469   -0.049595     0.04395     0.34667    0.025436    0.020564
0.082927   -0.050569   -0.028482    0.046873     0.49868    0.016991    0.016991
0.10891  -0.0044465   0.0069217    0.046873     0.66173   0.0085458    0.013743
0.1336    0.061814    0.047523    0.042326     0.80335  -0.0024977    0.013743
0.14659     0.13132    0.078704    0.040052     0.90664   -0.014191     0.01829
0.13912     0.17192    0.094295    0.044599     0.96608    -0.02426    0.021538
0.11151     0.16348    0.097543    0.057267     0.97647   -0.029457    0.020888
0.078704     0.11248    0.092671    0.072533     0.93295   -0.027183    0.021538
0.057592    0.042651     0.08585    0.086175     0.84005   -0.020687    0.026735
0.054019   -0.021986    0.080003    0.095919      0.7189   -0.010618     0.03518
0.058891    -0.06681    0.070259    0.098842     0.59775   0.0017248    0.046223
0.056292    -0.09117    0.053369    0.092671     0.50777    0.012768     0.05142
0.030957   -0.097991    0.031282     0.07773     0.46198    0.015367    0.043625
-0.012567   -0.084349   0.0095202     0.05207     0.45873   0.0026992    0.023812
-0.05804   -0.038227  -0.0073698    0.023812     0.47302   -0.019712 -0.00022403
-0.093119    0.032906   -0.017114 -0.00054884     0.46458   -0.040825   -0.019063
-0.10806     0.11183   -0.021012   -0.017439     0.39572   -0.050569   -0.029132
-0.093769     0.17745   -0.019388   -0.028482     0.24046   -0.051544   -0.032705
-0.052193     0.21317   -0.011917   -0.036602  -0.0021729    -0.04927    -0.03303
0.0069217     0.21252   0.0020496   -0.044398    -0.32471   -0.047321   -0.034978
0.06019     0.17777    0.017316   -0.052193     -0.7148   -0.049595   -0.039851
0.081952     0.11736    0.023487   -0.059339      -1.153   -0.057065   -0.047971
0.064737    0.040052    0.013093   -0.059989     -1.5768   -0.072006   -0.056416
0.016991     -0.0405   -0.010618   -0.051219     -1.8724   -0.092145   -0.064861
-0.047321    -0.10936   -0.039201   -0.034978     -1.9244    -0.11163   -0.070707
-0.11586    -0.15451   -0.064211   -0.015165     -1.6938     -0.1191   -0.072331
-0.17724    -0.17172   -0.077528   0.0065969      -1.266    -0.11001   -0.072006
-0.22239    -0.16198   -0.082725     0.02641    -0.80867   -0.094093   -0.071032
-0.24805    -0.13015    -0.08305    0.037454    -0.48256   -0.078827   -0.073306
-0.25325   -0.084024   -0.083375    0.036479    -0.35264    -0.06681   -0.076554
-0.23896   -0.036927   -0.087597    0.021538    -0.37245   -0.057065   -0.072656
-0.2029      0.0014   -0.092469  0.00042559    -0.43254   -0.047321   -0.054142
-0.14379    0.025436   -0.092469   -0.014516    -0.43547   -0.034329   -0.023935
-0.068758    0.036804   -0.081751   -0.015815    -0.34647   -0.017764   0.0075714
0.009845    0.043625   -0.055441   -0.007045    -0.19868  -0.0011985    0.033231
0.080328    0.044599   -0.016789   0.0065969    -0.04862    0.014068    0.048822
0.1336    0.034206    0.027385    0.019264    0.059865    0.030957    0.057267
0.16868    0.015042    0.066362    0.032582     0.11963    0.048822    0.059541
0.18264  -0.0031473    0.092671    0.046223     0.14399    0.065062    0.057917
0.17225  -0.0037969     0.10436     0.06019     0.15373    0.074157    0.054993
0.14074    0.019264     0.10631    0.070909      0.1638    0.073832     0.05207
0.095594    0.055643     0.10112    0.076431      0.1768    0.066686    0.048172
0.046223      0.0865    0.085525    0.074482     0.18199    0.057917    0.042326
-0.0024977    0.094295    0.061814    0.064413      0.1768    0.047847     0.03518
-0.04992    0.075456    0.033881    0.047847     0.16023    0.038428    0.026735
-0.10026    0.041027   0.0069217    0.028684     0.13555    0.029983    0.015692
-0.15711    0.011794   -0.011592    0.012119     0.10826    0.019914  -0.0018481
-0.20778   0.0085458   -0.019063   0.0017248      0.0865   0.0085458   -0.021661
-0.23376    0.037454   -0.017764 -0.00054884    0.080003  -0.0011985   -0.042124
-0.22239    0.087149   -0.008669   0.0052977    0.091372  -0.0044465   -0.056416
-0.17367     0.14237   0.0065969    0.016666     0.11443  -0.0037969   -0.060963
-0.10838     0.18751    0.023487    0.034855     0.14204  -0.0034721   -0.054467
-0.056741      0.2057    0.037778    0.053694     0.17322  -0.0047713   -0.040175
-0.036278     0.19141    0.045899    0.061814     0.21382  -0.0060706   -0.023285
-0.045047     0.14919    0.045899    0.056292     0.26742  -0.0076946  -0.0099683
-0.075904    0.081627    0.039402    0.044924     0.32296   -0.011917  -0.0044465
-0.11521  -0.0034721    0.028684    0.033881     0.35382    -0.01614  -0.0099683
-0.14964   -0.095717     0.01764     0.02641     0.33725    -0.01614   -0.026209
-0.1649    -0.17919   0.0062721    0.023162     0.27002  -0.0080194   -0.043748
-0.14671    -0.23928  -0.0063954    0.024137     0.16965   0.0059473   -0.055766
-0.094743    -0.26592   -0.016789    0.028034    0.067011    0.019589   -0.058689
-0.027508    -0.25942   -0.020362    0.031932   -0.013541    0.029009   -0.049595
0.029009    -0.22726   -0.017114    0.036479   -0.058365    0.032257   -0.036602
0.062139    -0.18309   -0.011267    0.040702   -0.071357    0.026735   -0.026533
0.071883    -0.13404   -0.013216    0.041027   -0.063886    0.014717   -0.022636
0.06896   -0.085973   -0.022311    0.037454   -0.052193  -0.0015233   -0.025559
0.067011   -0.038227   -0.033679    0.030633   -0.059989   -0.019388   -0.034329
0.073832   0.0062721   -0.039851     0.01894    -0.11715   -0.035953   -0.042449
0.081303    0.041027   -0.042124   0.0023744    -0.22174   -0.049595   -0.042124
0.081627    0.059865   -0.042124   -0.019063    -0.33737   -0.058365   -0.033354
0.079029    0.062464     -0.0405   -0.041799    -0.40623   -0.061937   -0.018413
0.079679    0.053694   -0.037902   -0.059339    -0.38415   -0.061613  -0.0021729
0.088773    0.042326   -0.034978   -0.070382    -0.26787   -0.059664    0.010495
0.10859    0.038103   -0.030756   -0.076554   -0.083375   -0.056416    0.016666
0.13652    0.049472   -0.024909   -0.073631     0.13717   -0.050244    0.013418
0.16218    0.084226   -0.017439   -0.056416     0.36713   -0.040175   0.0020496
0.18004     0.13684  -0.0089938   -0.026533     0.57339   -0.024585   -0.015815
0.18719     0.18524 -0.00087364     0.01017     0.71338  -0.0057458   -0.033354
0.17842      0.2083   0.0065969    0.046223     0.75723   0.0095202   -0.047971
0.15146     0.20181   0.0072465    0.073832     0.71305    0.015042    -0.05739
0.10891     0.17452  0.00010078    0.086824     0.61171   0.0088706   -0.064211
0.058891     0.13165   -0.020362      0.0852     0.49218  -0.0054209   -0.070707
0.010819    0.076106   -0.050569    0.066362     0.39117   -0.017764   -0.074605
-0.025884   0.0085458   -0.079152    0.034855      0.3353   -0.022311   -0.073955
-0.04115   -0.064861   -0.092145 -0.00054884       0.334   -0.017439   -0.070058
-0.03238    -0.13145   -0.081426   -0.028807     0.38175   -0.008669   -0.062262
-0.0073698    -0.17042   -0.052843   -0.044398     0.45581 -0.00087364   -0.050894
0.022837    -0.17887   -0.018738   -0.044398     0.52142   0.0036737   -0.034004
0.048497    -0.17757   0.0059473    -0.03303     0.53798   0.0088706    -0.01484
0.059865    -0.18439    0.016016   -0.017439     0.47724    0.015692   0.0026992
0.054668    -0.20193    0.014392  -0.0063954     0.33335    0.022188    0.015042
0.036154    -0.22142   0.0069217  -0.0015233     0.13262    0.028034    0.020239
0.013743    -0.23506  -0.0018481  -0.0011985   -0.067459    0.031932    0.022837
-0.0047713    -0.22921  -0.0099683  -0.0063954     -0.2133    0.031282    0.022188
-0.01549    -0.19478    -0.01614   -0.019388    -0.27014    0.027385    0.021863
-0.019388    -0.13307   -0.019063   -0.037577    -0.23376     0.01764    0.021863
-0.019388   -0.062262   -0.022636   -0.052518    -0.13307   0.0072465    0.021213
-0.019063  -0.0034721   -0.028807   -0.054142    -0.01614  -0.0021729    0.022837
-0.022311    0.032906   -0.037902   -0.043423    0.067661  -0.0080194    0.024786
-0.034978    0.050771   -0.044398   -0.027833    0.087799   -0.007045    0.026085
-0.052193     0.06019   -0.043748   -0.013866    0.043625  -0.0041217    0.025111
-0.065186    0.072208   -0.034004  -0.0057458   -0.045047  0.00010078    0.026085
-0.06616    0.082602   -0.018413  -0.0034721    -0.14996   0.0049729    0.028359
-0.054792    0.075781   0.0020496  -0.0067202    -0.24253   0.0095202    0.031282
-0.036927    0.041676    0.018615   -0.012567    -0.30067   0.0088706    0.033231
-0.016789  -0.0099683    0.027709   -0.013541    -0.31529   0.0075714    0.036154
0.0033489   -0.053817    0.033881 -0.00054884    -0.28508    0.011144    0.044275
0.023162    -0.06681      0.0433    0.025436    -0.21914    0.022188    0.058241
0.042001   -0.040175    0.057917    0.059216    -0.13047    0.040702    0.072208
0.061165   0.0065969    0.072533    0.089748   -0.032705    0.058566    0.083576
0.081303    0.044599    0.086824     0.10989     0.06831    0.069934    0.090072
0.096244    0.054019    0.097868     0.11671     0.16283    0.074157    0.091696
0.097218    0.029333     0.10469     0.11216     0.23721    0.072208     0.09397
0.087149   -0.013216     0.11118     0.10501     0.27554    0.067661    0.099492
0.076431   -0.052193     0.11216     0.10144     0.27229    0.062464     0.10696
0.077405   -0.063561     0.10534     0.10404     0.23234    0.059865     0.11248
0.092671   -0.047971    0.090397     0.10924     0.16543    0.057592     0.11086
0.11378   -0.022961     0.06831     0.10924    0.084551    0.052395     0.10501
0.12775  0.00042559    0.040702     0.10144  -0.0018481    0.046548    0.096244
0.13197    0.030633    0.013743      0.0865   -0.084024    0.042001    0.090397
0.12775    0.089423  -0.0041217    0.070259    -0.15841    0.038428    0.090397
0.1219     0.18362   -0.008669    0.056942    -0.22499    0.032257    0.092671
0.11216     0.29145  -0.0028225    0.041676     -0.2867    0.023162    0.089098
0.096569      0.3733   0.0069217    0.016991    -0.34972    0.011469    0.073507
0.068635     0.39409     0.01017   -0.018088    -0.41305  -0.0041217    0.049147
0.035505     0.34992   0.0069217   -0.054792    -0.46535   -0.019712    0.025111
0.0052977     0.26384  -0.0011985   -0.079152    -0.49263   -0.030106    0.015692
-0.01614     0.17062   -0.008669   -0.084349    -0.48451    -0.03238    0.024786
-0.024909    0.096244   -0.012567   -0.073306    -0.44099   -0.025884    0.047523
-0.020037    0.050771   -0.012567   -0.054792    -0.37213   -0.013541    0.073832
-0.0054209    0.033881  -0.0080194   -0.033679    -0.29547   0.0010752    0.093645
0.017965    0.036479   0.0020496  -0.0099683    -0.22369    0.011794    0.099492
0.041676    0.047523    0.015042     0.01764    -0.16068    0.013093    0.089748
0.055968    0.053369    0.024137    0.039727   -0.097991   0.0020496    0.064737
0.057917     0.05142    0.026735    0.050446   -0.029132   -0.017114    0.032582
0.050771      0.0433    0.026085     0.05272    0.038428    -0.03238      0.0014
0.040052    0.034206    0.021213    0.053044    0.093645   -0.036927   -0.019063
0.026735    0.028684    0.015367    0.054019     0.12613   -0.034329   -0.026209
0.015367    0.028034    0.014068     0.05272     0.12872   -0.027508   -0.023935
0.0043233    0.027385    0.015042    0.049147     0.10469   -0.020687   -0.016464
-0.0031473    0.024137    0.018615    0.042001    0.063113   -0.017764  -0.0089938
-0.0041217     0.01829    0.024786    0.033881    0.013743   -0.018088 -0.00087364
0.0014    0.012119    0.031282    0.031607   -0.041799   -0.019388   0.0065969
0.014392   0.0078962    0.032906    0.036154    -0.10481   -0.020362    0.012443
0.032582   0.0088706    0.027385      0.0433     -0.1727   -0.017764    0.019914
0.054993    0.015042    0.018615    0.050446    -0.24708   -0.014516    0.030957
0.070909    0.020888    0.011144    0.050771    -0.32925    -0.01549    0.040052
0.072208    0.022512   0.0072465    0.043625    -0.41988   -0.019388    0.042326
0.062139    0.020239   0.0095202    0.033231    -0.51634    -0.02426    0.034206
0.046873     0.01829    0.011144    0.023812    -0.60567   -0.027183    0.018615
0.030633    0.021213   0.0056225    0.016991     -0.6742   -0.027833   0.0043233
0.016341    0.028684  -0.0063954   0.0085458    -0.70928   -0.029457  -0.0021729
0.00075039    0.041676   -0.018738  -0.0028225     -0.7122   -0.030106  -0.0021729
-0.014191    0.055643   -0.026209   -0.013216    -0.69336   -0.030106 -0.00087364
-0.026209    0.064088   -0.026209   -0.019063    -0.66965   -0.028482  -0.0054209
-0.03238     0.06084   -0.018738   -0.015815    -0.64757   -0.026858   -0.012892
-0.03173    0.046223  -0.0080194  -0.0037969    -0.61606   -0.025234   -0.017439
-0.024585    0.028684   0.0033489   0.0091954    -0.56734   -0.029132   -0.017764
-0.013866    0.015692   0.0085458    0.016341    -0.49263   -0.038876    -0.01484
-0.007045    0.010819   0.0069217    0.016341    -0.38967   -0.046671   -0.011592
-0.012892    0.013418 -0.00022403    0.014392    -0.25845   -0.048945  -0.0063954
-0.032705    0.015692   -0.007045    0.013743    -0.09117   -0.042774   0.0020496
-0.061937    0.014392  -0.0054209    0.013093      0.1271   -0.029457    0.016341
-0.090521   0.0091954   0.0078962    0.011469     0.40254   -0.013541    0.029009
-0.11033   0.0033489    0.026085   0.0062721     0.71305  -0.0015233    0.030308
-0.11813  -0.0034721    0.037454  -0.0011985       1.008   0.0023744    0.020239
-0.11456   -0.010293    0.040377  -0.0067202      1.2275  -0.0044465   0.0017248
-0.10384   -0.014191    0.037778  -0.0089938      1.3425   -0.014516   -0.021986
-0.093444   -0.017439    0.032906  -0.0089938       1.364   -0.021986    -0.04862
-0.084674   -0.020037    0.029009  -0.0096434      1.3198   -0.023285   -0.072981
-0.076879   -0.023935    0.027709   -0.013541      1.2402   -0.020687   -0.089546
-0.066485   -0.024909    0.027709    -0.01484      1.1353   -0.024585   -0.096692
-0.051219   -0.020037    0.027385   -0.010293      1.0015    -0.03173   -0.097991
-0.039201  -0.0099683    0.022837   0.0010752     0.82414   -0.038227    -0.10156
-0.030756  -0.0011985    0.012443    0.014392      0.5971   -0.037577    -0.10546
-0.024585  -0.0028225  -0.0054209    0.024786     0.32686   -0.028157    -0.10644
-0.011917   -0.012892   -0.024909    0.029009     0.01764   -0.017439   -0.097991
0.0059473   -0.022961   -0.039851    0.025436    -0.35102   -0.012242   -0.084674
0.016991    -0.03173   -0.045372    0.015042    -0.78593   -0.011267   -0.070058
0.012768   -0.044073   -0.038876   0.0039985     -1.2322   -0.010618   -0.053168
-0.0050961   -0.060963   -0.022961   0.0017248     -1.5713  -0.0037969   -0.029782
-0.03303   -0.078827  -0.0037969   0.0085458     -1.6834    0.012119  0.00042559
-0.060963   -0.096692    0.013743    0.020239     -1.5193    0.032906    0.030957
-0.080127    -0.11553    0.023162    0.029983      -1.127    0.051745     0.05272
-0.088572    -0.12722    0.025436    0.032582    -0.62223    0.062464    0.063763
-0.087597     -0.1243    0.021213    0.028034    -0.14119     0.06084    0.063763
-0.081426    -0.10676    0.016666    0.019589     0.21642    0.047847    0.055643
-0.071357   -0.076879     0.01764     0.01017      0.4152    0.027709    0.037778
-0.06616   -0.034654    0.022188 -0.00087364     0.48536   0.0010752    0.013093
-0.068434    0.017316    0.024461   -0.019063     0.48017   -0.027183   -0.012892
-0.076229    0.065387    0.016341   -0.045372     0.44834   -0.051219   -0.032055
-0.081101    0.093321  -0.0034721   -0.073306     0.42462   -0.064536   -0.040825
-0.076879    0.090072   -0.033679   -0.093769     0.42625   -0.062262   -0.034978
-0.054792    0.053694   -0.064536   -0.097666     0.45775   -0.045697   -0.015165
-0.010943  0.00010078   -0.088896   -0.087597      0.5055   -0.019388    0.012443
0.054344   -0.051544    -0.10059   -0.070707     0.54188   0.0075714    0.037454
0.12613    -0.09117   -0.095717   -0.052518     0.55162    0.030633     0.05207
0.18622    -0.12203   -0.078827   -0.041799     0.53376    0.044275    0.054668
0.22065    -0.14834   -0.056416   -0.038876     0.50388    0.049472    0.046223
0.22552    -0.16815   -0.034329   -0.037252     0.47822     0.05142    0.031607
0.207    -0.17627   -0.017114   -0.027183     0.46328    0.055318    0.020888
0.17745    -0.16393  -0.0034721  -0.0063954     0.45483    0.063113    0.023487
0.14172    -0.13047   0.0095202    0.020564     0.45061    0.071558    0.042001
0.10371   -0.082725    0.019589    0.047523     0.45288    0.075456    0.067011
0.056292   -0.035628    0.026085    0.063438      0.4636    0.075781    0.087474
-0.0067202  -0.0028225    0.028359    0.067011     0.48147    0.074482    0.097218
-0.082725    0.014392    0.027385    0.061165     0.49511     0.06961    0.092996
-0.15743    0.028684    0.022188     0.05272     0.49283    0.058241    0.080003
-0.2068    0.051096    0.011144    0.042975     0.45516    0.042001    0.062139
-0.2159    0.080003  -0.0028225    0.033556     0.35739    0.026085      0.0433
-0.18634     0.10599   -0.012892    0.024461      0.1716    0.010819    0.026735
-0.12917     0.11963    -0.01614     0.01829    -0.12885  -0.0054209    0.011794
-0.065186     0.12028   -0.016789    0.011469    -0.54915   -0.023935  -0.0015233
-0.011592     0.11411   -0.019063  -0.0018481     -1.0357   -0.046996   -0.017439
0.023812     0.10631   -0.022961   -0.023285     -1.4703   -0.071357   -0.038551
0.042975     0.10209   -0.025234   -0.044073     -1.7084   -0.085973   -0.059014
0.058566     0.10371   -0.021012    -0.04927     -1.6671   -0.082725   -0.068434
0.080653     0.10794  -0.0096434   -0.031081     -1.3803   -0.059014   -0.058689
0.11313     0.11151   0.0085458   0.0043233    -0.99089   -0.024909   -0.036278
0.15049     0.10631    0.029333    0.045249     -0.6755   0.0072465  -0.0099683
0.17842    0.090397    0.045249    0.078704    -0.55207    0.026735     0.01017
0.18394    0.067011    0.054993    0.097868    -0.61021    0.036154    0.021538
0.16315    0.045574    0.056292     0.10371    -0.73526    0.038428    0.029658
0.12255    0.035505     0.05142     0.10112    -0.79016    0.038103    0.038428
0.066362     0.04395     0.04395    0.095919    -0.68947    0.041351     0.05142
-0.0037969    0.073182    0.036154    0.094945    -0.43384    0.050446    0.067661
-0.079477     0.12125    0.030308     0.10144   -0.089871    0.061489    0.082602
-0.14119     0.18102    0.024786     0.11151     0.24695    0.069285    0.092996
-0.17432     0.24273    0.021863     0.11963     0.49088    0.071558    0.097543
-0.17335      0.2908    0.023487     0.12255     0.60294    0.067661    0.095269
-0.14444     0.31874    0.033231     0.11931     0.59125     0.06019    0.088773
-0.094418     0.32263    0.049796     0.10891     0.49901    0.053044    0.082277
-0.036278      0.3051    0.068635    0.095594     0.38597    0.047847     0.07708
0.019264     0.26677    0.086175    0.089098     0.29762    0.048172    0.072533
0.059865     0.19921    0.092346    0.093321     0.25443    0.054668    0.065712
0.078055    0.079679    0.086824     0.10306     0.24695     0.06084    0.056942
0.07708   -0.094743    0.067336     0.10989     0.24338    0.063438    0.045574
0.070259    -0.30165    0.037454     0.10956     0.21252    0.057592    0.030957
0.063113    -0.50335   0.0075714     0.10209     0.13555     0.04395    0.016016
0.044275    -0.65601   -0.013541      0.0852   0.0072465    0.028034    0.003024
-0.00022403    -0.72974   -0.028807    0.058891     -0.1688    0.012119  -0.0057458
-0.061288    -0.70733   -0.045697    0.022512    -0.38317  -0.0054209   -0.012892
-0.11423    -0.59105   -0.059014   -0.019712    -0.59007   -0.020362   -0.020362
-0.13859    -0.40656   -0.063886   -0.062587    -0.72454   -0.033679   -0.027833
-0.12885    -0.18601   -0.051544   -0.096042    -0.73851   -0.041475   -0.033354
-0.090521    0.053694   -0.021661    -0.10871    -0.61931   -0.042449   -0.035303
-0.038551      0.2999    0.014392   -0.097341    -0.38934   -0.039851    -0.03238
0.0088706     0.51687      0.0433   -0.064211    -0.10611   -0.036927   -0.025884
0.036479     0.65394    0.055968   -0.020687     0.16348   -0.035303   -0.016464
0.032906     0.67505    0.054019    0.016341     0.36941   -0.033679  -0.0050961
0.0056225     0.58703    0.039402    0.037454     0.49576   -0.034004   0.0039985
-0.02426     0.43632    0.022837    0.041351      0.5474   -0.035953   0.0088706
-0.044723     0.28138    0.014392    0.029983     0.54253   -0.040825   0.0091954
-0.050894     0.15796    0.011794    0.010819     0.50258   -0.044723   0.0069217
-0.04115    0.080653   0.0085458   -0.010293     0.44606   -0.046671   0.0049729
-0.018738      0.0433  0.00075039   -0.029132     0.39149   -0.046347   0.0059473
0.013418    0.030633  -0.0080194     -0.0405     0.35934   -0.042124   0.0078962
0.055643     0.02706   -0.014516   -0.045047     0.35771   -0.034654    0.011469
0.10242    0.020239   -0.018088   -0.043423     0.38013   -0.024909    0.014392
0.14432  0.00075039   -0.017439   -0.041799     0.41878   -0.018088    0.016016
0.17485   -0.032055   -0.013216   -0.039201     0.47335   -0.014516    0.015042
0.19239   -0.072006   -0.011592   -0.034654     0.54253   -0.013216    0.009845
0.19596    -0.11001   -0.014191   -0.032705     0.63153    -0.01614  -0.0034721
0.1781    -0.14054   -0.025234   -0.040825     0.74229   -0.025234   -0.026858
0.1349     -0.1675   -0.038227   -0.055441     0.86441   -0.041475   -0.054142
0.079029    -0.19219   -0.047971   -0.063561      0.9677   -0.059339   -0.076879
0.026735      -0.212   -0.051868   -0.056091      1.0106   -0.068109     -0.0837
-0.0083442    -0.21849   -0.050569   -0.034654     0.94724    -0.06681   -0.071682
-0.022311    -0.20518    -0.04927  -0.0050961     0.75041   -0.055116   -0.046347
-0.024909    -0.17465   -0.047321    0.021863     0.43827   -0.041475   -0.017114
-0.02426    -0.13502   -0.044723    0.036804    0.084226   -0.032055    0.003024
-0.023285   -0.094093   -0.039526    0.037129    -0.20713   -0.030431   0.0095202
-0.01614   -0.054467    -0.03173     0.02641    -0.36628   -0.033679   0.0020496
0.003024   -0.014516   -0.021012   0.0091954    -0.39032   -0.044398    -0.01549
0.030957    0.024786   -0.010293   -0.010618    -0.32795   -0.059014   -0.034004
0.059541    0.058891  -0.0011985    -0.03173    -0.23896    -0.07428   -0.046671
0.087149    0.086175   0.0078962   -0.047646    -0.16133     -0.0837   -0.048945
0.11183     0.10242    0.017965   -0.051219   -0.093769   -0.081751   -0.044723
0.13035     0.10274     0.02641   -0.040825   -0.022311   -0.068109   -0.033354
0.14107      0.0865    0.028684   -0.021012    0.062464   -0.047321   -0.016789
0.14139    0.053044    0.026085   0.0056225     0.15373   -0.023285  0.00075039
0.13067   0.0069217    0.019264    0.033231     0.23591 -0.00054884    0.013743
0.11281   -0.041475    0.010819    0.055968     0.29535    0.017965    0.022188
0.09397   -0.076554   0.0023744     0.06831      0.3314    0.029009    0.029333
0.07773   -0.090521  -0.0031473    0.065062     0.35187    0.032257    0.033231
0.056617   -0.088247  -0.0037969    0.050771     0.36356    0.030957    0.033231
0.022188   -0.077528 -0.00054884    0.031932     0.35999    0.023162     0.02706
-0.023285   -0.064536   0.0065969    0.014392     0.32783    0.011469    0.018615
-0.068109    -0.04862    0.014068   0.0036737     0.25767   0.0020496    0.013743
-0.096367    -0.03173     0.01764   0.0017248     0.15081 -0.00022403    0.014068
-0.10189   -0.010618     0.01764   0.0059473    0.027709   0.0069217     0.01894
-0.090196    0.009845    0.011794    0.011794   -0.084024    0.013743    0.023487
-0.070058    0.021863   0.0056225    0.013743    -0.16945    0.016016    0.021863
-0.044398    0.019914  0.00042559   0.0026992    -0.22499    0.015692    0.015692
-0.013866   0.0091954 -0.00087364   -0.021986    -0.25845    0.017316   0.0075714
0.019264 -0.00087364 -0.00054884   -0.051219    -0.27664    0.015692   0.0023744
0.052395  -0.0011985 -0.00054884   -0.073631    -0.28346   0.0091954 -0.00022403
0.07773    0.011794  -0.0024977   -0.080776    -0.28053  0.00075039  0.00010078
0.082927    0.029333  -0.0054209   -0.074605    -0.26916  -0.0067202   0.0017248
0.063113    0.041351  -0.0050961   -0.063237    -0.25455   -0.012567   0.0056225
0.027385    0.045249  -0.0028225   -0.049595    -0.23831   -0.015165    0.009845
-0.011592    0.046223   0.0020496   -0.034329    -0.22532   -0.012242    0.012443
-0.044723    0.045899   0.0056225   -0.018413    -0.22402  -0.0031473    0.012768
-0.068758    0.042326   0.0072465  -0.0041217    -0.23636    0.010495    0.014717
-0.081426    0.031282   0.0078962   0.0046481     -0.2578    0.020888     0.01894
-0.0824    0.014068    0.008221   0.0062721    -0.28151     0.02641    0.024461
-0.076554  -0.0028225   0.0085458   0.0020496    -0.29905    0.031282    0.031282
-0.064211   -0.013541    0.011469 -0.00087364    -0.30132    0.036804     0.03583
-0.045047   -0.017114    0.017316   0.0052977    -0.28476    0.046223    0.036154
-0.021337   -0.011917    0.025111     0.01894    -0.25585    0.052395    0.035505
0.0020496    0.003024     0.03583     0.03518    -0.21947    0.051745    0.034855
0.025761    0.024137     0.04395    0.050771    -0.17659    0.040702    0.031607
0.047847    0.042326    0.042326    0.062139    -0.12982     0.01894    0.022512
0.064088    0.047847    0.029658    0.067011   -0.087272   -0.007045   0.0085458
0.067986    0.040052   0.0095202    0.065062   -0.060638   -0.028482  -0.0057458
0.059541    0.027385  -0.0083442    0.058241   -0.067134   -0.041799   -0.013541
0.041027    0.018615   -0.014191    0.050446    -0.11813   -0.043423   -0.012892
0.021863    0.015692  -0.0083442    0.047523    -0.21362   -0.034004  -0.0063954
0.0095202    0.012768   0.0052977    0.053369    -0.33835   -0.019063   0.0056225
0.0072465  -0.0041217     0.01894    0.068635    -0.46307  -0.0021729    0.019264
0.017316   -0.030756    0.029658    0.089098    -0.56441    0.015692    0.034206
0.037778    -0.04862    0.033556     0.11086      -0.631    0.030633    0.043625
0.055318    -0.03238    0.032257     0.12255    -0.66088    0.034855    0.047847
0.059541    0.015367    0.025436     0.11736    -0.66023    0.028359    0.038428
0.044599    0.074806    0.014717    0.093321    -0.62678    0.014392    0.019264
0.015692     0.11898   0.0049729    0.058891    -0.56149  0.00075039  -0.0018481
-0.020037     0.12613 -0.00054884     0.02706    -0.47152  -0.0054209   -0.010618
-0.056416    0.096893  0.00010078   0.0065969    -0.37083 -0.00022403  -0.0041217
-0.088896    0.044275   0.0059473  -0.0011985    -0.28021    0.015692   0.0085458
-0.11196   -0.011592    0.013418  -0.0011985    -0.22207    0.034855     0.01894
-0.1204   -0.054142    0.016341 -0.00087364     -0.2172    0.047523     0.01894
-0.10806   -0.070707    0.016016  -0.0031473    -0.26234    0.047198    0.008221
-0.076554   -0.057065     0.01764   -0.010618    -0.33802     0.03453   -0.007045
-0.039201   -0.021986    0.021863   -0.027183    -0.41468    0.013743   -0.020362
-0.016464    0.019264    0.024137   -0.047646    -0.45658   -0.010943   -0.027508
-0.015815    0.051745    0.021863   -0.064536    -0.44261   -0.030431   -0.028482
-0.039851     0.06831    0.017965   -0.068758    -0.36531   -0.039526   -0.020687
-0.081426    0.066362    0.019264   -0.056091    -0.22824   -0.037577  -0.0089938
-0.12235    0.048822     0.02706   -0.031081   -0.037252   -0.026209   0.0020496
-0.14931    0.020564    0.041027  -0.0054209     0.18264  -0.0080194    0.014717
-0.15516  -0.0099683    0.057267    0.014392     0.40416    0.011469    0.033881
-0.14054   -0.032705     0.06831    0.029009     0.59775     0.02641    0.053694
-0.11163   -0.043099    0.070584    0.041027     0.74586    0.033881    0.067986
-0.071357   -0.038876    0.063763    0.055643     0.84135    0.038428    0.073507
-0.027183   -0.018738    0.053369    0.076755     0.88488    0.042001    0.074157
0.015367    0.012443    0.041027     0.10306     0.88195    0.046873    0.077405
0.051745    0.048497    0.028034     0.12645     0.84168     0.05207    0.085525
0.080003      0.0865    0.012443      0.1349      0.7608    0.055318    0.093321
0.10404     0.12028  -0.0080194     0.12223     0.63413     0.05207    0.097218
0.12775     0.13814   -0.032055    0.095269     0.46977    0.042326    0.092996
0.15438     0.13912   -0.053817    0.064088     0.29113    0.026735    0.081303
0.1781     0.13327   -0.065835    0.040377     0.12937    0.015692    0.067336
0.19076     0.13425   -0.063886    0.029009   0.0059473    0.014717    0.058891
0.18459     0.14854   -0.046671    0.029658   -0.075255    0.023162    0.061165
0.15016     0.17095    -0.01549    0.036804    -0.12268    0.038103    0.074157
0.090722     0.19011    0.021863      0.0433    -0.14639    0.055643    0.088773
0.019914     0.19304    0.055968    0.048172    -0.15548    0.071883    0.092996
-0.044398     0.17842    0.073507    0.054668    -0.15678    0.081303      0.0865
-0.091495     0.15049    0.074482    0.060515    -0.15223    0.084551    0.073507
-0.11293     0.11995     0.06084     0.06019    -0.13957    0.079354    0.062464
-0.10774     0.09462    0.041676     0.05272    -0.11196    0.067661    0.054019
-0.079477    0.076755    0.021213    0.036479   -0.055441    0.048822    0.047198
-0.041475    0.065387      0.0014    0.012119    0.031607    0.022837    0.034855
-0.008669    0.057917   -0.019063   -0.019388     0.14367  -0.0083442     0.01829
0.016991    0.053694   -0.036927   -0.051544     0.27034   -0.040175   0.0023744
0.042001    0.049147    -0.04927    -0.07428     0.38727   -0.062912  -0.0063954
0.069934    0.045899   -0.051868   -0.077528     0.46912   -0.069408  -0.0060706
0.095919    0.042651   -0.045047   -0.056091     0.49153   -0.060963   0.0010752
0.11151    0.041027   -0.030431    -0.01484     0.44509   -0.044723    0.008221
0.11216    0.039078   -0.014516    0.033881     0.33433   -0.028807    0.012443
0.10242    0.034206  -0.0037969    0.070584     0.18427   -0.016789    0.012443
0.088124    0.025761   0.0017248      0.0865    0.031282   -0.012242    0.008221
0.073832    0.016341   0.0023744    0.080653   -0.097017   -0.014516  -0.0018481
0.059216   0.0039985   0.0010752    0.054668    -0.18471   -0.022311    -0.01549
0.0433  -0.0089938  -0.0028225     0.01764    -0.22889   -0.034978   -0.028807
0.024461    -0.02361  -0.0073698    -0.01484    -0.23733   -0.050894   -0.042124
0.0039985   -0.037577   -0.012567   -0.034329    -0.22532   -0.067459   -0.055116
-0.010293   -0.045697   -0.011917   -0.035303     -0.2068   -0.079152   -0.067459
-0.007045   -0.043423  -0.0015233   -0.021986    -0.19641   -0.081426   -0.077203
0.01894   -0.030756    0.015367 -0.00054884    -0.19608   -0.072981   -0.081426
0.062139  -0.0099683    0.031607    0.025111    -0.19803   -0.056091   -0.080127
0.11183    0.024137    0.042651    0.052395    -0.19933   -0.036602   -0.076229
0.15049    0.074157    0.050121    0.076755    -0.19251   -0.016464   -0.071682
0.16673     0.12807    0.055968    0.091696    -0.18082  0.00075039   -0.064861
0.1625      0.1677    0.064413    0.093645    -0.16912    0.010495   -0.051219
0.14204     0.17225    0.071883    0.082927    -0.16393   0.0085458   -0.036927
0.10729     0.13392    0.072858    0.066362     -0.1675  -0.0044465   -0.029782
0.059541    0.056617    0.063763    0.050121    -0.17465   -0.020687   -0.036927
-0.0018481   -0.039526    0.042975    0.038428    -0.17367   -0.032055   -0.053168
-0.075579    -0.13145    0.012443    0.034855    -0.15191   -0.030756   -0.072981
-0.15191    -0.21232   -0.022636    0.037778    -0.11098   -0.021012   -0.087272
-0.2146    -0.28443   -0.054142      0.0433   -0.063237   -0.010943   -0.089871
-0.2448    -0.33672   -0.077528    0.041351   -0.025884   -0.010943   -0.080127
-0.23701    -0.34842   -0.086298    0.031607   -0.013541   -0.017114   -0.061288
-0.19381    -0.30652   -0.079477    0.017316   -0.023285   -0.020037   -0.042449
-0.12982     -0.2146   -0.059989   0.0043233   -0.043099   -0.014191   -0.026533
-0.063237   -0.098965   -0.038876  -0.0047713   -0.057065  -0.0015233   -0.012242
-0.015165   0.0075714   -0.026533  -0.0093186   -0.060638    0.017316 -0.00022403
0.0049729    0.075456    -0.02361  -0.0096434   -0.055441    0.030633   0.0062721
-0.007045    0.097543    -0.02361  -0.0073698   -0.045047    0.036804   0.0065969
-0.0405    0.087799   -0.022961  -0.0037969   -0.030106     0.03583   0.0020496
-0.067784    0.057917   -0.022636  -0.0021729  -0.0099683    0.027385  -0.0057458
-0.064861    0.012768   -0.025884  -0.0063954    0.013093    0.011144    -0.01614
-0.022636   -0.046022   -0.036602    -0.01614    0.035505   -0.010618   -0.027833
0.043625    -0.11066   -0.051219   -0.028157    0.064413   -0.034654   -0.038551
0.10469    -0.16393   -0.066485   -0.039851     0.10079   -0.053817   -0.046347
0.13652    -0.19121   -0.076879   -0.047321     0.13652   -0.062912   -0.052843
0.13425    -0.18374   -0.077203   -0.051544     0.14854   -0.061288   -0.055766
0.10794    -0.14314   -0.067134   -0.057065     0.11801   -0.053168   -0.055116
0.07708   -0.081751    -0.04992   -0.062912    0.049147   -0.041799   -0.047646
0.052395   -0.013216   -0.030756   -0.065186    -0.03303   -0.034329   -0.033354
0.036154    0.053044   -0.013866   -0.065186   -0.098316   -0.030756    -0.01484
0.01764     0.10371  -0.0024977   -0.063561     -0.1243   -0.030106   0.0033489
-0.021012     0.12613  0.00042559   -0.064861    -0.10026   -0.030106    0.012443
-0.0837     0.11313  -0.0037969   -0.064861   -0.012567   -0.030106    0.010495
-0.15646    0.058241  -0.0096434   -0.058689     0.13327   -0.026209      0.0014
-0.21687   -0.029457   -0.016789   -0.042124     0.29957   -0.019712   -0.007045
-0.24415    -0.13534   -0.020037   -0.018088      0.4308   -0.013216  -0.0096434
-0.23376    -0.23344   -0.020687      0.0014     0.48114   -0.008669  -0.0083442
-0.19316    -0.31334   -0.022636    0.012443     0.44151  -0.0050961  -0.0034721
-0.13242    -0.36791   -0.028807    0.022837      0.3392   0.0046481   0.0059473
-0.069408    -0.39292    -0.03303    0.039727     0.21967    0.017965    0.021213
-0.016464    -0.36953   -0.025884    0.061165     0.12125    0.033881    0.036804
0.023162    -0.27566  -0.0021729    0.078704    0.055318    0.045574    0.049796
0.055318    -0.10351    0.035505    0.090072    0.012443    0.049796    0.053044
0.076431      0.1245    0.074482    0.095919   -0.021012     0.04395    0.047523
0.07773     0.36161     0.10177    0.092671   -0.043099    0.037778    0.041027
0.05272      0.5487     0.11118    0.079679    -0.04115    0.036479    0.036804
0.012119     0.64517     0.10436    0.059541   -0.028807    0.039078    0.035505
-0.033354     0.64289    0.086824    0.038103   -0.066485    0.038753    0.037454
-0.07428     0.56689    0.070584    0.019914    -0.21492    0.030957    0.032582
-0.10091     0.45483    0.065387   0.0072465     -0.4582    0.014717    0.022188
-0.10611     0.33952    0.070909  0.00010078    -0.68914  -0.0041217    0.011144
-0.080451     0.24241    0.078055  -0.0057458    -0.78496   -0.018088    0.003024
-0.022636     0.16543    0.078055   -0.010618    -0.68005    -0.02361   0.0010752
0.06084     0.10469    0.065387   -0.010618    -0.39357   -0.023285  0.00010078
0.15633    0.056617    0.038753  -0.0028225     0.01764   -0.018413  -0.0050961
0.25345    0.019914   0.0065969   0.0091954     0.47822   -0.010618   -0.010618
0.3418  -0.0050961   -0.020362    0.024137     0.91281  0.00042559   -0.011592
0.41585   -0.018738   -0.030431    0.042975        1.25    0.012119  -0.0024977
0.46652   -0.025884   -0.022311    0.064088      1.4322    0.024461    0.015042
0.48796   -0.025234  -0.0037969    0.078704      1.4192    0.031932    0.031932
0.48309   -0.011267    0.012119    0.079029      1.1973    0.029009    0.040377
0.46263    0.028034     0.01764    0.061165     0.78191    0.016991    0.039727
0.43209    0.091696    0.011794     0.02706     0.22909   0.0033489    0.032582
0.3837     0.15893  -0.0028225   -0.016464    -0.36206  -0.0044465    0.025761
0.30737     0.19596   -0.021661   -0.064211    -0.86584  -0.0054209    0.018615
0.19304     0.17452   -0.044398    -0.11423     -1.1802  -0.0015233    0.014068
0.039727     0.09462    -0.06551    -0.16035     -1.2686   0.0046481    0.014392
-0.14087   -0.021337   -0.076879    -0.19283     -1.1777    0.011144    0.022512
-0.31496    -0.13469   -0.073631    -0.20843     -1.0185    0.016341     0.03583
-0.45236    -0.21232   -0.056741    -0.20875    -0.91033    0.022512    0.050446
-0.53258    -0.23993   -0.035953    -0.19316    -0.92333    0.027385    0.061165
-0.55597    -0.23051   -0.016789    -0.16328     -1.0718    0.027385    0.061489
-0.53778    -0.21297  -0.0034721    -0.12008     -1.3235    0.019914    0.053694
-0.49003     -0.2081   0.0033489   -0.067459      -1.608   0.0065969    0.042975
-0.41955    -0.21622   0.0069217   -0.011592     -1.8208  -0.0047713    0.034206
-0.33413    -0.22467   0.0078962    0.036154     -1.8714   -0.013216    0.027709
-0.24383    -0.22304   0.0072465    0.063113     -1.7253   -0.019388    0.027709
-0.15678    -0.21297   0.0075714    0.063438     -1.4066    -0.02426    0.030308
-0.0837    -0.20323    0.008221    0.049472    -0.97952   -0.027183    0.033556
-0.030756    -0.20323    0.014392    0.035505    -0.51699   -0.022636    0.034855
0.003024    -0.21265    0.028359    0.030633   -0.079477   -0.010618    0.036804
0.030308     -0.2146    0.044924    0.036154      0.2908   0.0052977    0.043625
0.061814    -0.18536    0.054344    0.046873     0.56527    0.023812    0.056292
0.10112    -0.10871    0.053369     0.06019     0.73871    0.038753     0.06831
0.14204    0.013093      0.0433    0.072533     0.82154    0.045574    0.073182
0.1729     0.16153    0.029333    0.082277     0.83616    0.045249    0.068635
0.18102     0.30639    0.020564    0.089098     0.81472    0.041676    0.059541
0.15861      0.4165    0.024786    0.093645     0.78321    0.036154    0.052395
0.10306     0.48049    0.044599    0.094295      0.7556    0.028684    0.048172
0.024786     0.49771    0.073507    0.091047     0.73676    0.018615    0.046223
-0.056741     0.46393    0.095594    0.084551     0.72637   0.0039985      0.0433
-0.12722     0.36876    0.098842     0.07708     0.72832   -0.012242    0.037778
-0.1714     0.21545    0.081952    0.065062     0.74813   -0.025234    0.029333
-0.18147    0.033881    0.048172    0.043625      0.7949   -0.030106    0.018615
-0.15321    -0.13177   0.0056225    0.015367     0.86799   -0.025884    0.012119
-0.096042    -0.24286   -0.034004  -0.0096434     0.96218   -0.016789    0.013093
-0.034004    -0.28378   -0.055441   -0.022636      1.0612  -0.0063954    0.016016
0.0069217    -0.26787   -0.052193   -0.018413      1.1405  -0.0011985    0.018615
0.020564    -0.22759   -0.027183   0.0039985      1.1798 -0.00087364    0.019264
0.018615    -0.19348   0.0062721    0.039727      1.1704  -0.0044465    0.015692
0.019914     -0.1753    0.036154    0.076431      1.1132   -0.010618    0.010819
0.03518     -0.1597    0.054993     0.10501      1.0154   -0.013541   0.0072465
0.063113    -0.13112    0.062789     0.12158     0.88845  -0.0093186   0.0078962
0.094295     -0.0824    0.060515      0.1271     0.74878 -0.00022403    0.014717
0.11346   -0.022311    0.054019     0.11898     0.62081   0.0062721    0.023487
0.11378    0.035505    0.045899     0.10014      0.5159   0.0039985    0.028359
0.099167     0.07773    0.039078    0.075131     0.44086  -0.0057458    0.028684
0.081952     0.10079    0.034855    0.049796     0.39604   -0.020362    0.027385
0.070909     0.11118    0.030957    0.032582     0.38337   -0.033354    0.027385
0.067661     0.11183    0.023487    0.029983     0.39929   -0.036602    0.030308
0.071883     0.10794    0.014392    0.040702     0.42982    -0.03173    0.031282
0.078704    0.099167   0.0023744    0.056617     0.43924   -0.026858    0.026735
0.085525    0.084226   -0.011592    0.063113      0.3759   -0.028157     0.01764
0.092021    0.064088    -0.02361     0.05272     0.21123   -0.030431    0.009845
0.095269    0.039402   -0.030431    0.024786   -0.031081    -0.03303   0.0036737
0.090722    0.012768    -0.03238  -0.0060706    -0.28378   -0.036927 -0.00022403
0.078704  -0.0083442    -0.03303   -0.027833    -0.47672   -0.040825  -0.0021729
0.060515   -0.020362   -0.031081   -0.033354    -0.56669   -0.042449  -0.0021729
0.042975   -0.020362   -0.027508   -0.024585    -0.55077   -0.039201   0.0020496
0.032906   -0.011592    -0.02361  -0.0041217     -0.4569   -0.029782    0.012119
0.03518  0.00075039   -0.018738    0.019589    -0.33088    -0.01549    0.025436
0.0433    0.012119   -0.010943      0.0433    -0.21232 -0.00022403    0.036154
0.050446     0.01894  -0.0011985    0.058891    -0.13307    0.013743    0.039078
0.05272    0.024137   0.0062721    0.065062    -0.10124    0.023162    0.033231
0.048822    0.027709    0.011469    0.062789    -0.10091    0.025761    0.019914
0.040377    0.028684    0.015042    0.057592    -0.11423    0.023812   0.0052977
0.033881    0.030957    0.019914    0.055968    -0.12495    0.023487  -0.0011985
0.034855    0.039727    0.027385    0.057267    -0.13275    0.026735   0.0065969
0.045899    0.051745    0.036154    0.060515    -0.13762    0.031282    0.025111
0.063438    0.062139    0.041676    0.057917    -0.14184    0.031932      0.0433
0.081627    0.065712    0.037778    0.048497    -0.14379    0.025761    0.050771
0.09462     0.06019    0.026735     0.03453    -0.14996    0.018615    0.047523
0.10014    0.049472    0.013743    0.023487    -0.16165    0.015042    0.036479
0.099817    0.039078   0.0052977    0.020888    -0.17887    0.016341    0.021213
0.096893    0.033231 -0.00022403    0.025436    -0.19998    0.019264   0.0039985
0.092346    0.031607  -0.0041217    0.030308    -0.22434    0.024461  -0.0099683
0.080653    0.033881  -0.0076946    0.030633    -0.24838    0.034206   -0.018738
0.061165    0.037778   -0.011267    0.028034    -0.26592    0.042975   -0.021337
0.038428    0.040052   -0.013216    0.025761    -0.28118    0.046548   -0.018088
0.016341     0.03518   -0.011592     0.02706    -0.29612    0.041676   -0.011917
-0.0011985     0.02706  -0.0057458    0.032257    -0.31366    0.033556 -0.00022403
-0.010943    0.021538 -0.00022403    0.038103    -0.33055    0.029009    0.013418
-0.011592     0.01894  -0.0011985    0.039727    -0.34614    0.029009    0.024786
-0.0067202     0.01764   -0.011592    0.036479    -0.36466    0.032257    0.028684
0.00010078    0.014068   -0.023935    0.029983    -0.38512     0.03583    0.025111
0.0072465   0.0075714   -0.031081    0.024461    -0.39844    0.034206     0.01764
0.012119   0.0017248   -0.027508    0.019589    -0.38902    0.024137   0.0075714
0.011144  -0.0021729   -0.016464    0.010495     -0.3429   0.0059473  -0.0024977
0.0059473  -0.0028225  -0.0044465  -0.0018481    -0.25942    -0.01614   -0.011917
-0.00054884  -0.0015233 -0.00054884   -0.013216    -0.16555   -0.033679   -0.018413
-0.007045  -0.0034721  -0.0054209   -0.020362   -0.096042   -0.044398   -0.021661
-0.018738    -0.01484   -0.016789   -0.025559   -0.076229    -0.04927   -0.032055
-0.036927   -0.037252   -0.028807   -0.032705    -0.11521   -0.050569   -0.050894
-0.056416   -0.062912   -0.036927   -0.043099    -0.19966   -0.049595   -0.073631
-0.072331   -0.076554   -0.039201   -0.053168    -0.30165   -0.045697   -0.092794
-0.077203   -0.065835   -0.031081   -0.059989    -0.38967   -0.038876    -0.10124
-0.071032   -0.028157   -0.013216   -0.060313    -0.43904   -0.031081   -0.095068
-0.060638    0.025111    0.011794   -0.058365    -0.44196   -0.027183   -0.080776
-0.058365    0.075781    0.036154   -0.054792    -0.40331   -0.028157   -0.067134
-0.067134     0.10859    0.051096   -0.051544    -0.33607   -0.030756   -0.062912
-0.0824     0.11443    0.048822   -0.048945    -0.25585   -0.029457    -0.06681
-0.10059    0.091047    0.029009   -0.053168     -0.1714    -0.02361   -0.073306
-0.11618    0.053369  -0.0037969   -0.063886   -0.072331   -0.015815   -0.076554
-0.1282    0.016016   -0.040825    -0.07493    0.061814   -0.010618   -0.070707
-0.12982   -0.012892   -0.072006   -0.078503     0.24013  -0.0063954   -0.053492
-0.11163   -0.035953   -0.092794   -0.071032      0.4282  -0.0024977   -0.025559
-0.070707    -0.04927    -0.09994   -0.055766     0.56397   0.0043233    0.009845
-0.018088   -0.037252   -0.092145   -0.034329     0.60327    0.016991    0.049472
0.036154    0.012119   -0.066485   -0.010293     0.54513    0.035505    0.083576
0.081627    0.093321   -0.026858   0.0091954     0.41261    0.050121     0.10274
0.11508     0.16998    0.013743    0.020888     0.24923    0.055643     0.10436
0.13782     0.19693    0.041027    0.024137     0.10047    0.054019    0.092021
0.15796     0.15049    0.049472    0.021863 -0.00022403     0.05142    0.076431
0.18102    0.050121    0.042001    0.016991   -0.036278    0.048172    0.066362
0.20765   -0.055441    0.026735    0.010819   0.0039985      0.0433    0.062789
0.23136    -0.11813    0.011469    0.011469     0.13035    0.041351    0.065062
0.23754     -0.1256  -0.0015233    0.022512     0.32036    0.042651     0.06831
0.21675   -0.096367  -0.0096434    0.042326     0.50323    0.046223    0.067986
0.17355   -0.060963  -0.0080194    0.063763     0.57371    0.046223    0.059541
0.12288   -0.033679   0.0026992    0.076431     0.45223    0.035505    0.043625
0.082927  -0.0099683    0.014392    0.075131     0.15049    0.015367    0.023812
0.062464    0.020564    0.016991    0.062139     -0.2042  -0.0076946   0.0033489
0.06019    0.059865    0.011794    0.042975    -0.44001   -0.027508  -0.0093186
0.067336    0.099817   0.0056225    0.028034    -0.44099    -0.04115   -0.012892
0.07708      0.1297   0.0039985    0.023487     -0.2081   -0.044398  -0.0080194
0.087149     0.14139    0.009845    0.030633     0.14594   -0.035303   0.0010752
0.098193     0.13555    0.024137    0.047198     0.46068   -0.017439    0.013418
0.10566     0.12125    0.043625    0.067661     0.61106      0.0014    0.025111
0.098193     0.10079    0.057592      0.0852     0.55065    0.011144    0.032257
0.066037    0.073832    0.058891     0.09397     0.30055   0.0065969    0.031607
0.0056225    0.040052    0.045899    0.089423   -0.087597    -0.01549    0.020888
-0.080127  -0.0044465    0.028034     0.06961     -0.5498   -0.049595   0.0039985
-0.17465   -0.058689   0.0078962    0.040052    -0.99608   -0.081426   -0.010618
-0.2539    -0.11098   -0.014191   0.0088706     -1.3209   -0.092145   -0.019712
-0.29677    -0.15158   -0.034004    -0.01549     -1.4349   -0.078827   -0.018738
-0.2997    -0.17107   -0.046022   -0.028482     -1.3173   -0.051544  -0.0089938
-0.26819    -0.16718   -0.045372   -0.027833      -1.024    -0.02426   0.0075714
-0.21557    -0.14184   -0.033354   -0.013541    -0.66153  -0.0050961     0.02641
-0.16685    -0.10189   -0.017114    0.008221    -0.32795   0.0062721    0.043625
-0.13924    -0.05804  -0.0011985    0.033556   -0.081426    0.011469    0.056942
-0.13762   -0.021986    0.012443    0.057267    0.074157    0.014068    0.064413
-0.15743  -0.0011985     0.02641    0.075131     0.17257    0.016666    0.063113
-0.18796   0.0043233    0.039078    0.084226     0.25053    0.020888    0.053694
-0.212   0.0020496    0.047523    0.083901     0.32946     0.02706    0.041676
-0.21557  0.00075039    0.053694    0.076755     0.40416    0.033881    0.029983
-0.19543   0.0039985    0.056617    0.063438     0.44541    0.040052     0.01894
-0.15483    0.013093    0.056292    0.041351     0.42917     0.04395     0.01017
-0.10546    0.027385    0.053694    0.013093     0.36226    0.040377   0.0062721
-0.060638    0.042326    0.050121    -0.01549     0.27261    0.030633   0.0069217
-0.030106    0.053044    0.044275   -0.037902     0.19628    0.016341   0.0095202
-0.01549    0.056292    0.034855   -0.050244      0.1638 -0.00054884   0.0059473
-0.0028225    0.051745    0.020888   -0.055441     0.18134    -0.01614  -0.0044465
0.015042    0.045899   0.0059473   -0.054792     0.23656   -0.028157   -0.016464
0.034855    0.046223  0.00010078   -0.048296     0.32036   -0.035628   -0.024585
0.052395    0.056942   0.0069217   -0.033354     0.41943   -0.036927   -0.026858
0.065062    0.074806    0.022512   -0.011917     0.50972   -0.029457   -0.022636
0.075131     0.10014    0.037129    0.011144     0.55942   -0.019712   -0.012242
0.083901     0.12678    0.039078    0.026735     0.54903   -0.016789  0.00010078
0.092021     0.14724    0.029333    0.028034     0.46945   -0.025559   0.0075714
0.097218     0.15731    0.015042    0.016666     0.32588   -0.042449    0.008221
0.097543     0.15406  0.00075039   0.0010752     0.15049   -0.058689   0.0049729
0.090397     0.14204   -0.011592   -0.013866   -0.015815   -0.070058   0.0020496
0.077405     0.12678   -0.023935   -0.023285    -0.13859   -0.073631   0.0036737
0.065062     0.11216   -0.028482   -0.025884    -0.21622   -0.071357   0.0085458
0.056617    0.095594    -0.02361   -0.021986    -0.26949   -0.064861    0.014068
0.05272    0.066686   -0.008669    -0.01614    -0.32406   -0.056091     0.01829
0.045899    0.020239    0.011794  -0.0096434    -0.39162   -0.044073    0.021538
0.02706   -0.040825    0.027385  -0.0047713    -0.46145   -0.030431    0.021213
-0.0034721    -0.10416    0.034206 -0.00054884    -0.52706   -0.019388     0.01829
-0.036602    -0.15678     0.03453   0.0065969    -0.59332  -0.0093186   0.0095202
-0.059989    -0.19056    0.033556    0.012768    -0.67517 -0.00087364 -0.00054884
-0.068434    -0.20745    0.032257    0.011794    -0.78853   0.0043233   -0.007045
-0.069083    -0.21167    0.029333   0.0010752    -0.90644   0.0052977  -0.0060706
-0.070707    -0.20258    0.024137   -0.015815     -0.9688   0.0010752   0.0010752
-0.077853    -0.17887    0.016991   -0.032055    -0.91975  -0.0037969    0.008221
-0.0837    -0.14346    0.011144   -0.042449    -0.73981  -0.0076946    0.010819
-0.081101   -0.097991   0.0059473   -0.044723    -0.46243  -0.0096434   0.0065969
-0.067784    -0.04927  0.00042559   -0.043748    -0.14704  -0.0083442  -0.0024977
-0.046022  -0.0050961  -0.0028225   -0.040825     0.14367  -0.0057458  -0.0083442
-0.022961    0.028359  -0.0047713   -0.032055     0.36486  -0.0031473  -0.0083442
-0.0024977    0.044275  -0.0060706   -0.016464     0.49348  -0.0011985  -0.0024977
0.012119    0.046223  -0.0089938   0.0072465     0.52889  0.00075039   0.0046481
0.022188    0.044924  -0.0096434     0.03583     0.49153   0.0069217    0.011794
0.033231    0.049147  -0.0044465    0.062464     0.41228     0.01894     0.01894
0.046548    0.053044   0.0033489    0.079679     0.32393    0.029658    0.022512
0.057592    0.042326    0.012443    0.086824     0.24695     0.03583    0.019914
0.062464   0.0075714    0.020888     0.08585     0.18881    0.034206   0.0091954
0.062139   -0.046996    0.024461     0.07708     0.14756    0.026085   -0.007045
0.058891    -0.11326    0.020888    0.063438      0.1206    0.011794   -0.021661
0.054668    -0.16523   0.0043233    0.043625     0.10469  -0.0034721   -0.032055
0.050121    -0.18147   -0.024909     0.01894    0.096244   -0.017439   -0.033354
0.044924    -0.16393   -0.058689   -0.008669    0.092671   -0.025234   -0.026858
0.038753     -0.1217   -0.084024   -0.034329    0.092346   -0.024585   -0.013541
0.03453   -0.061937    -0.09182   -0.049595    0.094945   -0.011592   0.0036737
0.032257    0.016666   -0.080127   -0.051544     0.10144   0.0091954    0.017316
0.034206     0.12515   -0.050569   -0.041475     0.11313    0.029009    0.020239
0.040052     0.25605    -0.01484   -0.025884     0.13067    0.040052    0.018615
0.052395      0.3733    0.015692   -0.012892     0.15081    0.040377    0.014068
0.066037     0.43599    0.032906  -0.0031473     0.16673    0.033231   0.0091954
0.073182     0.42073    0.036154   0.0026992      0.1729    0.019589    0.003024
0.06896     0.33693    0.033231   0.0033489     0.16185    0.003024   -0.007045
0.063438     0.21772    0.026085      0.0014     0.14009  -0.0050961    -0.01614
0.067661     0.10306    0.013418   0.0017248     0.11898 -0.00087364   -0.022636
0.083576    0.017316  -0.0024977   0.0052977     0.10209    0.010819   -0.028157
0.10404   -0.029782   -0.021012   0.0059473    0.087474    0.025436   -0.029132
0.12548   -0.031406    -0.03173   0.0046481    0.071883    0.039402   -0.019712
0.14951   0.0043233   -0.024585    0.011144    0.051096    0.052395   0.0033489
0.1781    0.062789  -0.0041217    0.028684    0.025436    0.064737    0.033231
0.2096     0.12385    0.021863    0.050446  -0.0031473    0.074482    0.059541
0.23559     0.16965     0.04395    0.066362   -0.034329    0.078379    0.076431
0.24273     0.18751    0.054019    0.073832   -0.064536    0.076431    0.081952
0.21577     0.17257    0.049472    0.073507   -0.088896    0.066686    0.076431
0.14756     0.13002     0.03453    0.067986    -0.10806     0.05142    0.061489
0.039078     0.06896    0.017316    0.062789    -0.11943     0.03518    0.039402
