-0.013216  -0.0041217   -0.011267    0.031282     0.24046   -0.029132  -0.0011985
-0.008669   0.0085458  -0.0057458    0.038753     0.24403   -0.020687   0.0017248
-0.0018481    0.012768  -0.0015233    0.044599     0.24046   -0.017439   0.0065969
0.0020496    0.011794   0.0010752    0.045899     0.23169    -0.01549   0.0091954
0.0049729   0.0088706   0.0017248    0.044275     0.21967   -0.013541   0.0052977
0.0052977   0.0059473   0.0017248    0.044275     0.20083   -0.010943  -0.0037969
0.0043233   0.0039985  -0.0011985    0.051745     0.17842  -0.0063954   -0.012892
0.0026992    0.003024  -0.0093186    0.064413     0.15309  -0.0028225   -0.023935
0.0020496   0.0049729   -0.022311    0.076755     0.13327  -0.0021729    -0.03173
0.0020496   0.0088706   -0.036602    0.080653      0.1232 -0.00054884   -0.035303
0.0020496    0.011144   -0.046347    0.078055     0.12255   0.0010752   -0.033679
0.00042559   0.0091954   -0.047321    0.071234     0.12418   0.0039985   -0.026533
-0.00022403   0.0075714   -0.037902    0.066362     0.11606    0.013093   -0.017114
0.0017248    0.008221   -0.021012    0.063763    0.089748    0.028034  -0.0083442
0.0052977    0.011469  -0.0041217    0.063113    0.040052    0.045899 -0.00087364
0.010819    0.015692     0.01017    0.061165   -0.034654    0.063438   0.0059473
0.015042    0.021213    0.021538    0.055968     -0.1243    0.076431    0.011144
0.013418    0.028359    0.030957    0.046873    -0.20096    0.079679    0.012768
0.0056225     0.03518    0.036479    0.038103    -0.23993    0.072533    0.012443
-0.0080194    0.036804    0.038753    0.029983    -0.22856    0.056617    0.011144
-0.022636    0.035505    0.034855    0.021213    -0.17075    0.040052   0.0095202
-0.03173    0.031932    0.025111    0.014392   -0.079152    0.029333    0.011144
-0.030756    0.025111    0.012768    0.011794    0.033231    0.024786    0.013743
-0.01549    0.015367   0.0020496    0.011794     0.15861    0.025436    0.016016
0.012119   0.0075714  -0.0057458    0.016016     0.28496     0.02706     0.01894
0.04395      0.0014  -0.0083442    0.024137     0.39507    0.023162    0.019914
0.071558  -0.0021729  -0.0089938    0.036154     0.46523    0.014068    0.023812
0.081952   -0.010293   -0.010618    0.047847     0.48569   0.0017248    0.030633
0.06896   -0.019063   -0.014516    0.056617     0.46068   -0.011592    0.038428
0.040377   -0.023935   -0.017764    0.058241     0.40481   -0.019388    0.046223
0.011469   -0.023935   -0.018088    0.049796     0.33595   -0.015165    0.056617
-0.0083442   -0.020687   -0.017439    0.035505     0.26807  -0.0021729    0.066362
-0.01484   -0.017439   -0.013866    0.021863     0.20603    0.014392    0.073832
-0.010293   -0.013216  -0.0047713    0.014068     0.14854     0.02706     0.07708
-0.0015233   -0.011592   0.0095202    0.014068    0.091696    0.029009    0.078055
0.0078962   -0.010618    0.024461    0.016991    0.033881     0.01764    0.079354
0.017316  -0.0099683    0.038428     0.01764    -0.03173   0.0017248    0.080328
0.029983   -0.007045    0.049472    0.014068    -0.10676  -0.0080194    0.081627
0.048172  -0.0031473    0.051745     0.01017    -0.18471  -0.0083442    0.084876
0.06961  -0.0015233    0.044599    0.009845     -0.2526  -0.0047713    0.089748
0.087149  -0.0054209    0.035505    0.011794    -0.30294  -0.0037969    0.095269
0.093645   -0.012242    0.026085    0.011794    -0.33672  -0.0073698    0.096569
0.090072   -0.018088    0.015367   0.0091954    -0.35329   -0.012892    0.091047
0.077405   -0.021012    0.008221   0.0088706    -0.35264   -0.016464    0.079679
0.054019   -0.020037   0.0062721    0.012443    -0.33478   -0.013866    0.067011
0.020564   -0.015815    0.011144    0.016991      -0.301  -0.0067202    0.056942
-0.013866  -0.0076946    0.019914    0.019264    -0.25357 -0.00087364    0.054019
-0.033354   0.0052977    0.028359    0.016991    -0.19641  0.00010078    0.049796
-0.03303    0.020239    0.038103    0.012768     -0.1308  -0.0063954    0.040702
-0.020037    0.031282     0.04395   0.0072465   -0.058365   -0.017114    0.025436
-0.0050961     0.03453    0.041351  0.00075039    0.017965   -0.029132   0.0056225
0.0033489    0.032906    0.034855  -0.0057458    0.096569   -0.038227   -0.013866
0.0014    0.033231    0.027709   -0.013541     0.17322     -0.0405   -0.027508
-0.0099683     0.03583    0.024461   -0.021012     0.25378   -0.035628   -0.035628
-0.029782    0.038103    0.027709   -0.027183     0.35771   -0.021661   -0.035303
-0.04992    0.039402    0.034855   -0.032055     0.49641 -0.00022403   -0.029782
-0.063237    0.040702    0.039402   -0.036602     0.66596    0.025436   -0.021012
-0.066485    0.044275    0.038753   -0.040175     0.84785    0.049796  -0.0076946
-0.057065    0.050121    0.032582   -0.040175      1.0141    0.071558   0.0095202
-0.037252    0.055643    0.024786   -0.030106      1.1353    0.087799    0.025761
-0.011267    0.057592     0.01894   -0.010943      1.1847    0.097543    0.040702
0.011794    0.053369     0.01829   0.0078962      1.1561    0.097868    0.051096
0.026085    0.041676    0.020239    0.019589      1.0535    0.089423    0.054019
0.035505    0.026735    0.023162    0.022188     0.88585    0.073507    0.050771
0.0433    0.013743     0.02706     0.01764     0.66563    0.053369    0.044599
0.053044   0.0046481    0.033556   0.0072465     0.39929    0.032257    0.034855
0.063438 -0.00054884    0.038753  -0.0050961    0.084226    0.012768    0.023487
0.069285  -0.0018481    0.037454   -0.011917     -0.2906  -0.0037969    0.013418
0.064413  -0.0028225    0.029983   -0.013866    -0.74014   -0.019388    0.011144
0.05142   -0.011267    0.017965   -0.017114     -1.2507   -0.036927    0.014717
0.032257   -0.028482   0.0049729   -0.028157     -1.7509   -0.059014    0.019589
0.012443   -0.050894  -0.0050961   -0.046671     -2.1443   -0.088247    0.018615
0.0014   -0.072656   -0.010293   -0.069733     -2.3486    -0.12787   0.0085458
0.00042559   -0.088572   -0.014191   -0.091495     -2.3281    -0.17367  -0.0093186
0.0078962   -0.093444   -0.017764    -0.11131     -2.0975    -0.21882   -0.029457
0.026735   -0.084999   -0.022311    -0.12463     -1.7204    -0.25975   -0.046996
0.053369   -0.063561   -0.030431    -0.12755     -1.2991    -0.28768   -0.060963
0.07708   -0.029132    -0.04115    -0.12008    -0.93534    -0.29905   -0.072331
0.087474    0.010819    -0.04927    -0.10514    -0.69076    -0.29515   -0.078827
0.076431    0.047198   -0.051219   -0.083375    -0.55889    -0.27599   -0.079802
0.042001    0.072533   -0.043748   -0.058689    -0.49393    -0.24545   -0.071682
-0.0028225     0.08585   -0.028807   -0.035303    -0.44131    -0.20745   -0.057715
-0.042124    0.091696  -0.0089938   -0.014191    -0.36368    -0.16588   -0.039526
-0.062587    0.094945    0.012768   0.0033489    -0.25033    -0.11975   -0.022961
-0.05804    0.097543    0.029658    0.014717    -0.11651    -0.07428  -0.0093186
-0.033679    0.098517    0.037454    0.020888    0.016341   -0.034654  0.00010078
-0.0057458    0.095919     0.03518    0.023162     0.13879  -0.0060706   0.0075714
0.013743    0.087474    0.024137    0.023487     0.25443   0.0062721    0.011794
0.021863    0.072533    0.009845    0.022188     0.37168  -0.0011985   0.0059473
0.017965    0.053694  -0.0037969    0.017965     0.49218   -0.021337   -0.010618
0.0026992    0.035505    -0.01614    0.011144     0.61041   -0.043099   -0.031081
-0.019063    0.022837   -0.024909   0.0069217     0.71013   -0.060638   -0.047321
-0.042124    0.015042   -0.027833   0.0036737     0.77834   -0.071032   -0.055766
-0.059339    0.010495   -0.023935   0.0010752      0.8053   -0.075579   -0.054467
-0.069408    0.008221   -0.015815      0.0014     0.78841   -0.078503    -0.04862
-0.072656   0.0046481  -0.0093186   0.0088706     0.73611   -0.078178   -0.043748
-0.072331  0.00075039  -0.0080194    0.025111     0.66401   -0.069083   -0.043748
-0.070382  -0.0050961   -0.013216    0.041351     0.57046   -0.052843   -0.045372
-0.070707   -0.012892   -0.022311     0.05207     0.44931   -0.035628   -0.046347
-0.069083   -0.020037   -0.029132    0.053694      0.2999   -0.022961   -0.043748
-0.064211   -0.022636   -0.029782    0.046873     0.13944   -0.010943   -0.037902
-0.054467   -0.018738   -0.023935     0.03583   0.0033489   0.0020496   -0.028157
-0.044723  -0.0083442    -0.01614    0.025436   -0.070382    0.015692   -0.012567
-0.033354   0.0052977   -0.011267    0.022837   -0.064211    0.028684    0.011469
-0.018738    0.021863   -0.008669    0.027385    0.013093    0.041027    0.044924
0.0046481    0.039078   -0.007045    0.033231     0.11573    0.054019    0.083576
0.030957    0.053694  -0.0044465    0.039078     0.17615    0.067661     0.11898
0.052395    0.063438  0.00010078    0.040702     0.14659    0.075456     0.13847
0.063438    0.065712   0.0033489    0.040052    0.022512    0.076106      0.1362
0.063113    0.059865    0.003024    0.038428    -0.15548    0.071883     0.11606
0.053694    0.047847  0.00042559    0.038103    -0.33575    0.067661    0.087149
0.038103    0.030957 -0.00054884     0.03583    -0.47184    0.065062     0.06019
0.01764    0.009845      0.0014    0.029333    -0.53778    0.062139    0.036479
-0.0021729   -0.012242   0.0049729    0.021538    -0.52414    0.061814    0.015367
-0.020037   -0.034329   0.0088706    0.016991    -0.43449    0.065387  -0.0041217
-0.034978   -0.051219   0.0088706    0.019589    -0.27826    0.069285   -0.024585
-0.046996   -0.060638   0.0026992    0.028359   -0.073631    0.069285   -0.041799
-0.054142   -0.064536  -0.0060706    0.039078     0.14951    0.064088   -0.051868
-0.057065   -0.068434   -0.011917     0.04395     0.36648    0.056617   -0.052518
-0.054792    -0.07493   -0.013866    0.041676     0.56299    0.052395   -0.044073
-0.047971   -0.084349   -0.017439    0.030957     0.73319    0.053044   -0.030756
-0.035628   -0.094418   -0.021986    0.019264     0.86539     0.06084   -0.019063
-0.01549    -0.09994   -0.028482    0.008221     0.94139     0.06831   -0.010293
0.0091954   -0.095068   -0.032055   0.0033489      0.9271    0.068635  -0.0050961
0.032906   -0.076879   -0.029132   0.0036737     0.78678    0.058891  -0.0021729
0.050446   -0.044073   -0.019388   0.0062721     0.52142      0.0433  -0.0015233
0.062139  -0.0034721  -0.0080194     0.01017     0.19206    0.023162  -0.0050961
0.067986    0.038753   0.0023744    0.019264    -0.10514 -0.00022403   -0.012242
0.067336    0.070584    0.010495    0.029009    -0.28378   -0.021012   -0.021012
0.064413    0.087149    0.017316    0.038103    -0.31951   -0.032055   -0.026533
0.06019    0.088124    0.023162    0.041676     -0.2448   -0.027183   -0.026858
0.055318    0.078055     0.02706    0.042326    -0.13047  -0.0076946   -0.022311
0.049796    0.058891    0.029009    0.041351   -0.047646    0.020888   -0.017439
0.0433    0.038103    0.029009    0.040702   -0.040175    0.049147   -0.013866
0.033231    0.023162    0.027385    0.042651    -0.10611    0.071883   -0.012242
0.019914     0.01829    0.025436    0.044599    -0.20258    0.088773   -0.013216
0.0062721    0.020564    0.020564    0.049796    -0.29028    0.098193   -0.011917
-0.0060706    0.023812    0.013743    0.060515      -0.339     0.10047  -0.0083442
-0.015165    0.020564   0.0059473    0.075131    -0.33575    0.096244  -0.0011985
-0.019063    0.010495  -0.0041217    0.088773    -0.29353    0.087149   0.0059473
-0.017439  -0.0034721   -0.016464    0.094295    -0.23636    0.071883    0.011144
-0.012892   -0.017114   -0.030106    0.087799    -0.18439    0.049147    0.012443
-0.0063954   -0.027508   -0.039851    0.070909    -0.14801    0.022512    0.008221
0.0017248   -0.030756   -0.043423    0.047198    -0.12787  -0.0050961 -0.00022403
0.010495   -0.025559   -0.040825    0.023487    -0.11715   -0.030756  -0.0083442
0.019264   -0.012892   -0.034654   0.0039985    -0.10806    -0.04862  -0.0080194
0.028359   0.0039985   -0.027833  -0.0060706   -0.093119   -0.054142   0.0026992
0.04395    0.022512   -0.020037  -0.0080194   -0.080776   -0.045697     0.01764
0.061489    0.038428  -0.0073698  -0.0076946   -0.081426   -0.024585    0.027385
0.076755     0.05142   0.0085458  -0.0093186   -0.098316  -0.0011985    0.030308
0.083251    0.059216    0.019589   -0.012242    -0.13567    0.012119    0.029333
0.078704     0.06019    0.022188   -0.018413    -0.18764    0.013093    0.024461
0.065387    0.054668     0.01764   -0.021986    -0.23051   0.0049729    0.016991
0.047523     0.04395    0.014392   -0.020037    -0.23409  -0.0041217    0.010819
0.026735    0.030308    0.014068   -0.013216    -0.18277  -0.0067202   0.0065969
0.0017248    0.011144    0.015367  -0.0018481   -0.076879 -0.00054884   0.0046481
-0.023935   -0.012567    0.015042    0.010819    0.064413     0.01017    0.003024
-0.045047   -0.034978    0.014068    0.024137     0.21317    0.019264   0.0023744
-0.05739   -0.047971    0.014392    0.036479     0.33108    0.018615    0.003024
-0.061937    -0.04927    0.015367    0.046873     0.38695   0.0065969   0.0085458
-0.059989   -0.037902     0.01764    0.054019     0.37006   -0.010293    0.019914
-0.053492   -0.018088     0.01894    0.056617     0.28626    -0.02361    0.031282
-0.037902   0.0023744     0.01764    0.055643     0.14854   -0.026209    0.040702
-0.016464     0.01829    0.013093    0.049472   -0.030431   -0.019388    0.045574
0.0059473    0.025111   0.0049729    0.037129    -0.22759  -0.0083442    0.044924
0.024786    0.025761  -0.0024977    0.021538    -0.39584   0.0033489    0.037778
0.040052    0.025761  -0.0034721   0.0078962    -0.49003    0.011794    0.026085
0.048822    0.029658  0.00042559  0.00075039    -0.48321    0.011469    0.014392
0.048822    0.036804   0.0036737  -0.0031473    -0.38577   0.0043233   0.0062721
0.040052    0.049147   0.0052977  -0.0034721    -0.23668  -0.0018481 -0.00054884
0.02641    0.064737   0.0056225 -0.00022403   -0.081751  -0.0037969  -0.0041217
0.0078962    0.076755   0.0072465   0.0039985    0.042975  -0.0047713  -0.0076946
-0.010618    0.078379    0.008221   0.0065969     0.11671  -0.0050961   -0.012892
-0.030431    0.065387   0.0072465   0.0036737     0.13132  -0.0057458   -0.016789
-0.050244    0.042651   0.0026992  -0.0054209     0.09462  -0.0057458   -0.021012
-0.065186    0.017316  -0.0076946   -0.019712    0.030633  -0.0080194   -0.026209
-0.070058  -0.0037969   -0.025234   -0.038876   -0.031081   -0.013866   -0.034654
-0.067784   -0.019063   -0.044073   -0.059989   -0.066485    -0.02426   -0.042124
-0.058689   -0.030431   -0.054142   -0.078503   -0.070382    -0.03238   -0.041799
-0.04862   -0.041799   -0.053492    -0.09117   -0.054142   -0.031406    -0.03303
-0.039851    -0.04927   -0.044073   -0.095068   -0.034978    -0.01549   -0.021012
-0.030756   -0.050894   -0.030431   -0.089546   -0.025559    0.013418  -0.0073698
-0.024585   -0.042774   -0.015165   -0.077853   -0.026533    0.048822   0.0062721
-0.022961   -0.026858 -0.00054884   -0.059664   -0.029132    0.080653    0.017965
-0.025234  -0.0054209    0.012119   -0.037252   -0.021337     0.10306    0.021863
-0.026858    0.014068    0.021213   -0.016464   0.0056225     0.11541    0.015367
-0.026858    0.024461    0.026085  -0.0034721    0.050771     0.11606      0.0014
-0.027508    0.023487    0.026735 -0.00054884     0.11054     0.10924   -0.013866
-0.029457    0.016016    0.021863   -0.010293     0.17874    0.090722   -0.027183
-0.034978   0.0065969    0.011794   -0.028482      0.2476    0.065712   -0.035303
-0.043748  -0.0018481      0.0014   -0.050244     0.30607    0.035505   -0.035628
-0.048945  -0.0099683  0.00010078   -0.071032     0.34602   0.0059473   -0.030431
-0.044073   -0.020362    0.010819   -0.080127     0.36064   -0.017439   -0.020037
-0.028482   -0.033354    0.026085   -0.076879     0.34992    -0.03303  -0.0057458
-0.0083442   -0.043748    0.035505   -0.062587     0.31906   -0.036278    0.008221
0.009845   -0.048296    0.036154    -0.04115     0.27456   -0.030756     0.01894
0.025111   -0.045372    0.027709   -0.017114     0.22714   -0.017764    0.026735
0.038753   -0.033679    0.014068   0.0069217     0.18622  -0.0041217    0.033231
0.054993   -0.015165  -0.0018481    0.029658     0.15926   0.0059473    0.040702
0.070909   0.0052977   -0.013216    0.048822     0.14984   0.0052977    0.046873
0.081303     0.01894   -0.013541    0.061165     0.14919  -0.0044465    0.050771
0.082602    0.023487  -0.0041217    0.067336     0.14691    -0.01614     0.05142
0.077405    0.024137    0.009845    0.070909     0.13944   -0.026533    0.046873
0.061814    0.021863    0.021863    0.074157     0.12548   -0.032705    0.041351
0.041027    0.021213    0.029333    0.076106     0.10566   -0.035953    0.037129
0.020888     0.01894    0.030633    0.075781    0.079354   -0.038551     0.03453
0.0075714    0.012443    0.025436    0.073832    0.053044   -0.041799    0.031932
-0.0015233   0.0010752    0.016341    0.070584    0.030633   -0.043423    0.029009
-0.008669   -0.011592     0.01017    0.062139    0.013743   -0.040825     0.02641
-0.010618   -0.022311    0.009845    0.046223  -0.0011985   -0.037577    0.026735
-0.0083442   -0.027833    0.013743    0.027385    -0.01614   -0.035628    0.029333
-0.0021729   -0.027508    0.017316    0.012119   -0.031406   -0.034004    0.035505
0.0091954   -0.021986     0.01764   0.0056225   -0.046347    -0.03173    0.042651
0.023812   -0.011592    0.015692   0.0062721   -0.063561   -0.026858    0.048822
0.03518  -0.0034721   0.0091954    0.011469   -0.078503   -0.015815    0.049796
0.037129  -0.0011985  0.00010078    0.015692   -0.085648  -0.0018481    0.046548
0.032906  -0.0037969  -0.0067202    0.018615   -0.078827   0.0091954    0.042651
0.022512   -0.007045  -0.0057458    0.020239   -0.063561    0.012768    0.040052
0.012119  -0.0063954  0.00042559    0.020564   -0.044398    0.010495    0.038428
0.0065969  -0.0031473    0.008221    0.022188   -0.028807   0.0072465    0.039402
0.011144  0.00042559    0.013093    0.020888   -0.020362   0.0069217     0.04395
0.019264   0.0033489    0.012119    0.016991   -0.021986    0.011794    0.049796
0.02706   0.0091954   0.0091954    0.013093    -0.03303    0.013418     0.05207
0.029333    0.015042   0.0085458    0.011144   -0.052843   0.0078962    0.050121
0.028034    0.020564    0.010819    0.014392   -0.071682  -0.0028225    0.045249
0.023812    0.023487    0.015367    0.022512   -0.087272   -0.010618    0.042001
0.023812    0.025111    0.022188    0.030633   -0.093119  -0.0099683    0.041676
0.029333    0.024137    0.029333    0.034206   -0.090845  -0.0028225    0.044924
0.038428    0.023162    0.031932    0.036154    -0.08305   0.0023744    0.049147
0.04395    0.021538    0.027385    0.040052    -0.07493  -0.0011985     0.05272
0.042975     0.01894    0.013743    0.048822   -0.068109   -0.012892    0.049472
0.036154    0.016341  -0.0034721    0.057917   -0.061613   -0.032055    0.039078
0.02641    0.013093   -0.013541    0.060515   -0.055441   -0.059339     0.01894
0.017965    0.012119   -0.014191    0.052395   -0.050894   -0.090845  -0.0080194
0.012119    0.011469  -0.0083442    0.036154    -0.04862    -0.12073    -0.03303
0.0085458   0.0078962  -0.0011985    0.019264   -0.046996    -0.14152   -0.047971
0.0062721   0.0026992   0.0023744   0.0078962   -0.046996    -0.14736   -0.054142
0.0085458  0.00010078  0.00075039    0.003024   -0.053492    -0.13989   -0.056741
0.015042  0.00042559  -0.0028225 -0.00054884   -0.064861    -0.12333   -0.057715
0.020564   0.0020496  -0.0099683  -0.0024977   -0.076229    -0.10384   -0.054467
0.017316    0.003024   -0.017439  -0.0057458   -0.078827   -0.086948   -0.047321
0.0075714   0.0026992   -0.021012   -0.010618   -0.070707    -0.07493   -0.036602
-0.0054209  0.00042559   -0.019063    -0.01549   -0.058689   -0.070058   -0.024585
-0.01549  -0.0028225    -0.01549   -0.018088   -0.050894   -0.078503   -0.018413
-0.021337  -0.0076946   -0.014516   -0.017439   -0.048296    -0.10286   -0.017439
-0.021337   -0.011917   -0.014516   -0.012892   -0.047646    -0.13697   -0.022961
-0.017114   -0.010943    -0.01614  -0.0060706   -0.046996    -0.17237    -0.03173
-0.012242  -0.0037969   -0.018413   0.0017248   -0.046022     -0.2029   -0.041799
-0.011592   0.0062721   -0.022961   0.0075714   -0.044723    -0.22499   -0.049595
-0.018413    0.016341   -0.029457    0.010819   -0.042124    -0.23766   -0.054467
-0.030106    0.022188   -0.036278    0.011469   -0.037902    -0.23993    -0.05739
-0.042124    0.020888   -0.043748    0.010495   -0.031081    -0.23831   -0.059339
-0.051544    0.014392   -0.054142   0.0091954   -0.018088    -0.23701   -0.060313
-0.058365   0.0056225   -0.063886    0.008221   0.0052977    -0.23441   -0.059339
-0.061937  0.00042559    -0.06616   0.0059473    0.040702    -0.22467   -0.059664
-0.05804   0.0020496   -0.060313   0.0023744    0.079679    -0.20583   -0.060638
-0.048296   0.0088706   -0.051219  -0.0024977     0.11671    -0.18147   -0.063237
-0.038227    0.014717   -0.044073  -0.0076946     0.15016    -0.15581    -0.06551
-0.034654    0.017316   -0.038227   -0.011917     0.18264    -0.12852   -0.065186
-0.037902    0.015042   -0.031406   -0.012242     0.21902    -0.10091   -0.062912
-0.044073   0.0091954   -0.021661  -0.0089938     0.26157   -0.075904   -0.058689
-0.046671  0.00010078   -0.016789  -0.0060706     0.30672   -0.051219    -0.04862
-0.042774   -0.007045   -0.017114  -0.0011985     0.33887   -0.020362   -0.028482
-0.03303  -0.0093186   -0.018088   0.0039985      0.3457    0.016016  0.00042559
-0.020687  -0.0047713   -0.014516   0.0095202     0.31322    0.049472    0.028359
-0.0073698   0.0052977  -0.0050961    0.016666     0.22422    0.073182    0.046873
0.0017248    0.015692   0.0049729    0.024786     0.06896      0.0852    0.054993
0.0036737     0.02641    0.013418    0.033231    -0.14671      0.0852    0.056617
0.00010078    0.034206    0.015042    0.043625    -0.39746    0.083576    0.053369
-0.0054209    0.032906    0.011469     0.05142    -0.64464    0.083576    0.041676
-0.008669    0.021213   0.0062721    0.054993    -0.85154    0.089098    0.023487
-0.011592   0.0049729   0.0010752     0.05272    -0.99511    0.099167   0.0052977
-0.014516   -0.007045  -0.0018481    0.045574     -1.0695     0.10956  -0.0050961
-0.020037  -0.0096434  -0.0018481     0.03583     -1.0887     0.12483 -0.00022403
-0.028807  -0.0054209  0.00042559    0.025111     -1.0623     0.14789    0.020888
-0.0405  0.00010078   0.0017248    0.010495    -0.99251     0.17712    0.048822
-0.050569   0.0052977  0.00075039  -0.0041217    -0.87298     0.20181    0.071234
-0.050569   0.0085458 -0.00022403   -0.015815    -0.70181     0.21577    0.081952
-0.036927    0.011794  -0.0015233   -0.020037    -0.49361     0.21902    0.084551
-0.013866    0.015692  -0.0015233   -0.017439    -0.28411     0.21577    0.080653
0.014068    0.020564   0.0039985  -0.0096434    -0.13275      0.2057     0.07708
0.042651    0.024786    0.013418   0.0033489   -0.079802     0.18751    0.075781
0.066362     0.02706    0.022512    0.012119    -0.10774     0.16023    0.074806
0.077405    0.025111    0.021863    0.008221    -0.15743     0.12905     0.06961
0.074157    0.017965    0.012443  -0.0054209     -0.1688    0.099167    0.056617
0.057592   0.0059473   0.0023744   -0.022311    -0.11553    0.076106    0.038103
0.029333  -0.0050961  -0.0028225   -0.034654  -0.0073698    0.059541    0.020888
0.0010752   -0.012567  -0.0034721   -0.034004     0.12645    0.053369   0.0088706
-0.017439  -0.0099683    0.003024   -0.020037      0.2554     0.06019   0.0043233
-0.015165   0.0056225    0.014392   0.0023744     0.35771    0.074806    0.008221
0.0056225    0.030957    0.028359    0.026735     0.41878    0.090397    0.021538
0.03518    0.055318    0.038428    0.045249     0.43567     0.10014    0.039727
0.059541    0.072533    0.042651    0.054019     0.41975     0.10144    0.062139
0.074806    0.082927    0.039402     0.05142     0.38695    0.093645    0.081627
0.080003    0.086824    0.030633    0.038428     0.34829     0.07708    0.091047
0.078379      0.0852    0.018615    0.016341      0.2973    0.048497    0.084226
0.072533    0.085525   0.0085458  -0.0096434     0.22292   0.0065969    0.058891
0.065712    0.090397   0.0023744   -0.029132     0.12483   -0.043099    0.021863
0.058566     0.10112  0.00075039   -0.037577    0.020888   -0.090845   -0.013866
0.048497     0.10989   0.0039985   -0.034654   -0.069733     -0.1282   -0.038227
0.034206     0.10664     0.01017   -0.027508    -0.12073    -0.14834   -0.047646
0.01894    0.091696    0.016991   -0.021012    -0.10644    -0.14541   -0.044723
0.003024     0.06831     0.02641    -0.01614  -0.0060706    -0.12235   -0.036927
-0.010293    0.041351    0.035505  -0.0083442     0.18394   -0.086623   -0.030431
-0.017114    0.016666    0.037454   0.0020496     0.44769   -0.047971   -0.024585
-0.019388  0.00010078    0.028684    0.015042     0.73254    -0.01484   -0.018413
-0.019712   -0.008669    0.012119     0.02706      0.9651   0.0062721   -0.015165
-0.023935    -0.01484  -0.0037969    0.033231      1.0814    0.013093   -0.013866
-0.032055   -0.018413   -0.013541    0.032257      1.0677    0.010495   -0.013866
-0.045697   -0.017114   -0.016789    0.029333     0.95114   0.0023744   -0.012892
-0.059664  -0.0080194   -0.013541    0.032257     0.78029  -0.0054209   -0.012242
-0.064536   0.0065969  -0.0037969    0.039402     0.60652   -0.012242   -0.016789
-0.058689    0.021213   0.0091954    0.044924      0.4675    -0.01614   -0.022961
-0.045372    0.031282     0.01829    0.044924     0.35869   -0.014191   -0.029457
-0.03173    0.038103    0.020888    0.040377     0.24663  -0.0015233   -0.033679
-0.02361    0.039078    0.019589    0.033231     0.10144    0.026085    -0.03303
-0.019712    0.034206    0.016666    0.029658     -0.0837    0.063113   -0.026533
-0.017114    0.026085    0.016016    0.034855    -0.29385     0.10371   -0.012892
-0.0093186    0.016991    0.017316    0.045574    -0.50303     0.13749   0.0043233
0.0036737   0.0026992    0.022188    0.057267     -0.6807     0.16023    0.019264
0.015367   -0.017114    0.027385    0.063113    -0.80542     0.16998    0.028684
0.023162   -0.036278    0.029658    0.056942    -0.85479     0.16673    0.029333
0.030308   -0.047971    0.024461    0.037129    -0.81419     0.14886    0.020239
0.039402   -0.047646    0.014068   0.0033489    -0.68557     0.11508   0.0017248
0.047847   -0.036278   0.0023744   -0.034329    -0.49913    0.071558   -0.019388
0.05207   -0.018088   -0.011592   -0.066485    -0.29515     0.03453   -0.034654
0.044924  -0.0018481   -0.025559   -0.086298    -0.11066    0.016016   -0.039851
0.022188   0.0078962   -0.037577   -0.094093    0.025436    0.019589   -0.034004
-0.008669    0.010819   -0.041799    -0.09182     0.10371    0.039078   -0.019712
-0.035953   0.0088706   -0.035628   -0.082725     0.12288    0.062789  -0.0057458
-0.052843   0.0036737    -0.02426   -0.067784    0.081303    0.079679   0.0010752
-0.055441  -0.0037969   -0.013541    -0.04992   -0.030431    0.080978  0.00075039
-0.044073   -0.010293  -0.0031473   -0.031081    -0.20583    0.066362  -0.0015233
-0.023285   -0.013216   0.0046481   -0.014516    -0.40299    0.040702  -0.0011985
-0.00022403   -0.013866    0.011469 -0.00087364    -0.55564    0.011144  -0.0024977
0.020564   -0.013541     0.01829   0.0078962    -0.59527   -0.011267  -0.0083442
0.036804   -0.015165    0.021863    0.012768     -0.4988   -0.024585   -0.018738
0.044275   -0.019063    0.016666    0.012768    -0.30035   -0.028807   -0.026858
0.042975   -0.025234   0.0049729   0.0088706   -0.066485   -0.026209   -0.027508
0.032257   -0.030756  -0.0050961   0.0039985      0.1349   -0.016464   -0.023935
0.015042   -0.033679   -0.010618   0.0023744     0.26482  -0.0018481   -0.020037
-0.00054884    -0.03173  -0.0083442   0.0078962     0.31711    0.011469   -0.014191
-0.0083442    -0.02426  -0.0028225    0.020239     0.30737    0.020239  -0.0063954
-0.0024977   -0.010618  0.00075039    0.036154     0.26287    0.022512   0.0078962
0.015692   0.0095202  0.00042559     0.05207      0.2187    0.017316     0.02706
0.037778     0.03583  -0.0028225    0.058241     0.20538   0.0078962    0.043625
0.05207    0.059541  -0.0037969    0.052395     0.24501  -0.0057458    0.048497
0.051745    0.075781  -0.0050961     0.03583     0.34375   -0.020037    0.041676
0.037129    0.080003  -0.0057458    0.020239     0.49478   -0.034329     0.02706
0.015692    0.073507  -0.0063954    0.013743      0.6731   -0.046671    0.010495
0.00010078    0.058566  -0.0050961    0.019589     0.83551   -0.054792  -0.0011985
-0.0067202    0.040702  -0.0044465    0.030957     0.94432   -0.053817  -0.0047713
-0.0041217    0.025761  -0.0057458    0.041676     0.97063   -0.044073  -0.0018481
0.0020496    0.015692   -0.012242    0.043625     0.91054   -0.031406    0.003024
0.0049729   0.0078962   -0.023935    0.033231     0.76795   -0.023285   0.0065969
0.0010752   0.0017248   -0.034329     0.01829      0.5422   -0.019712   0.0075714
-0.0067202  -0.0057458    -0.04115   0.0056225     0.24143    -0.02361   0.0072465
-0.016789   -0.013216   -0.045047   0.0036737   -0.075255    -0.03238   0.0078962
-0.022961   -0.021986   -0.045372    0.013093    -0.31983    -0.04115   0.0088706
-0.027833   -0.029457   -0.043748    0.028684    -0.43514   -0.046996   0.0078962
-0.031081   -0.032705   -0.041475    0.040377    -0.41143   -0.051544   0.0059473
-0.036927   -0.033679    -0.04115    0.043625      -0.288   -0.055766   0.0056225
-0.045372   -0.031406   -0.038227    0.044924    -0.12463   -0.058365   0.0085458
-0.051868   -0.029782   -0.028807    0.046548    0.021863   -0.055116    0.014392
-0.051219   -0.027183   -0.012567    0.047523     0.11573   -0.045372    0.019914
-0.0405   -0.023285    0.009845    0.047523     0.14984   -0.030756    0.021538
-0.021012   -0.020362    0.030633    0.048497     0.13392   -0.015815    0.019914
0.0017248   -0.020687    0.040052    0.048172     0.08585  -0.0044465    0.019264
0.024137   -0.027833    0.037129    0.046873    0.022188 -0.00087364    0.020239
0.044924   -0.037252    0.022837    0.044599   -0.050569  -0.0076946    0.014392
0.062464   -0.039851   0.0010752    0.040377    -0.13307   -0.022636   0.0023744
0.078379   -0.027183    -0.01484     0.03583    -0.22174   -0.043423   -0.010618
0.09397 -0.00087364   -0.017764    0.033231    -0.31529   -0.063561   -0.018413
0.10924    0.029983   -0.010293     0.03453    -0.40331   -0.076879   -0.021337
0.11768    0.056942      0.0014    0.039402    -0.47737   -0.083375   -0.019712
0.11768    0.071234    0.010819    0.044275    -0.52674   -0.085648   -0.012892
0.11021    0.068635    0.015042    0.045574    -0.53453   -0.086298   -0.007045
0.099817    0.050446    0.013093    0.042651    -0.49685   -0.088572  -0.0011985
0.088448     0.02641   0.0069217    0.037454    -0.42117   -0.091495    0.003024
0.078055   0.0046481  -0.0011985    0.029333     -0.3312   -0.092145   0.0043233
0.070259  -0.0037969  -0.0089938    0.021538    -0.24838   -0.085324   0.0046481
0.062789   0.0036737   -0.016789    0.017316    -0.19121   -0.072656   0.0059473
0.056942    0.022837   -0.025559    0.014392    -0.16588   -0.059014   0.0065969
0.050446     0.04395   -0.031081    0.010495    -0.16328   -0.054142   0.0023744
0.044924    0.059541   -0.027508   0.0033489    -0.15386   -0.059014  -0.0044465
0.036804    0.063113   -0.015815  -0.0031473    -0.10644   -0.067459   -0.012242
0.020564     0.05272   0.0017248  -0.0076946   -0.013541   -0.068758   -0.018413
-0.0011985    0.033556    0.019589  -0.0093186     0.10079    -0.05804   -0.020687
-0.021661    0.017316    0.034206  -0.0073698     0.19304   -0.038876    -0.01614
-0.034329   0.0078962    0.042651  -0.0063954     0.22941   -0.015815  -0.0063954
-0.033679   0.0088706    0.042975  -0.0099683     0.19791   0.0059473   0.0091954
-0.022636    0.016991    0.039727   -0.016789     0.11476    0.025111    0.028359
-0.010293    0.025436    0.036804   -0.023935    0.014717    0.039727    0.042326
-0.0054209     0.02706    0.036154   -0.028482   -0.073306    0.045574    0.044924
-0.014516    0.016341    0.037129   -0.028482    -0.12852    0.042975    0.041676
-0.029782  -0.0031473     0.03518   -0.025234    -0.14346    0.037454    0.039078
-0.0405    -0.02426    0.029333   -0.019063    -0.11878    0.034855    0.040052
-0.039851   -0.043748    0.021213   -0.015165   -0.064211    0.039727    0.045249
-0.026858   -0.054142    0.016341   -0.014516 -0.00022403    0.051096     0.05207
-0.0057458   -0.050244    0.015042   -0.014516     0.06019    0.063113    0.058566
0.021863   -0.033679     0.01894   -0.011267     0.10696    0.067986    0.064737
0.049147    -0.01614    0.031932  -0.0063954     0.14107    0.065387    0.067661
0.071234  -0.0034721    0.049472   0.0033489     0.16998    0.054668    0.065062
0.085525   0.0020496    0.061814    0.016016     0.20116    0.042651    0.056292
0.090397      0.0014    0.061489    0.024786     0.22941    0.031932    0.042975
0.081952  -0.0024977    0.046873    0.024461     0.24793    0.022512    0.027709
0.064413  -0.0067202    0.027385    0.013093      0.2502    0.012768    0.010819
0.043625  -0.0060706    0.012119  -0.0021729     0.23916   0.0069217  -0.0037969
0.029009  0.00042559   0.0072465   -0.013541     0.22032   0.0062721   -0.014191
0.021213    0.013418    0.015042   -0.015815     0.20181   0.0075714   -0.019388
0.016016    0.028359    0.024137   -0.011267     0.18914   0.0056225   -0.021012
0.01017    0.038753    0.027385  -0.0063954     0.18492  0.00010078   -0.020037
0.0014    0.040052    0.022512 -0.00087364     0.19596  -0.0073698   -0.021986
-0.011917     0.03453    0.014068   0.0052977     0.22682    -0.01614   -0.023935
-0.026533    0.026735   0.0095202    0.010495     0.26937   -0.025234   -0.024909
-0.036278    0.021538    0.008221    0.012443     0.30997   -0.034004   -0.024909
-0.038876    0.020564   0.0075714    0.013093     0.33563   -0.043748    -0.02426
-0.034978    0.022512   0.0049729    0.010495     0.33563   -0.054792   -0.021986
-0.025884    0.026735  -0.0011985   0.0095202     0.31159   -0.070707   -0.019712
-0.013541    0.033231  -0.0096434    0.012443     0.27424   -0.093769   -0.018738
0.0020496    0.041027    -0.01484    0.016991     0.23201    -0.11651    -0.01549
0.01764    0.047198    -0.01549    0.017965     0.17972    -0.13437  -0.0093186
0.032582    0.047847   -0.015165    0.017965    0.097543    -0.14801  -0.0024977
0.040702    0.039727   -0.016789    0.015692   -0.043748    -0.16133  -0.0018481
0.03518    0.025436    -0.02426     0.01017    -0.26332    -0.17562  -0.0063954
0.011794   0.0088706   -0.036602   0.0017248    -0.53746    -0.18699   -0.011917
-0.021012  -0.0037969   -0.048945  -0.0063954    -0.80607    -0.19154   -0.016789
-0.052843  -0.0099683   -0.053492  -0.0099683    -0.99836    -0.18894   -0.020362
-0.073631  -0.0080194   -0.045372  -0.0093186     -1.0685    -0.17724   -0.022311
-0.0824  -0.0011985   -0.028482  -0.0093186     -1.0159    -0.15905   -0.019063
-0.081426   0.0046481   -0.015815   -0.011917    -0.87623    -0.13599  -0.0099683
-0.075255   0.0039985   -0.014516    -0.01614    -0.70441    -0.11001   0.0017248
-0.068758  -0.0034721   -0.021986   -0.015165    -0.55012   -0.084024    0.013418
-0.063886   -0.015165   -0.032055   -0.008669    -0.44229   -0.061288    0.025761
-0.064211   -0.026533   -0.039851   0.0033489     -0.3822   -0.042124    0.038753
-0.069408   -0.035953   -0.046347    0.017316    -0.35556   -0.025234    0.048822
-0.076554   -0.037902   -0.047321    0.029009    -0.35296   -0.011917    0.052395
-0.084674    -0.03303    -0.04115    0.033881    -0.38545  0.00042559    0.053044
-0.093119   -0.026858   -0.026209    0.031932    -0.47704    0.015367     0.05142
-0.10091   -0.022961  -0.0060706    0.022512    -0.61898    0.028359    0.045574
-0.10449   -0.019712    0.013418   0.0078962    -0.76937     0.03453    0.036479
-0.10416   -0.015815    0.026085  -0.0076946    -0.86843    0.032257    0.023812
-0.10384   -0.011267    0.029009   -0.019063    -0.88045    0.025111   0.0091954
-0.10514  -0.0060706    0.024137   -0.024909    -0.79795    0.019264  -0.0054209
-0.10286 -0.00054884    0.019264   -0.021661    -0.64172    0.017965   -0.016464
-0.095068   0.0052977    0.019589   -0.011592    -0.44716    0.021538   -0.020362
-0.083375   0.0072465    0.020564 -0.00022403    -0.25227     0.02706   -0.019063
-0.071032   0.0033489    0.019914   0.0075714   -0.084674    0.031932   -0.015165
-0.05804  -0.0018481     0.01764     0.01017    0.042651    0.039078   -0.013216
-0.046996  -0.0034721    0.014392    0.012119     0.12645    0.047198   -0.016464
-0.039526  -0.0021729    0.011469    0.016991     0.17615    0.056617   -0.020362
-0.03303  -0.0034721    0.011794    0.026085     0.20603    0.062789   -0.021986
-0.026858  -0.0096434    0.013743    0.033231     0.22812    0.065062   -0.018413
-0.021012    -0.01614    0.013093    0.037129     0.24825    0.064737   -0.011592
-0.01549   -0.021986   0.0069217    0.038103     0.26677    0.064088  -0.0080194
-0.0096434   -0.025884  -0.0057458    0.034206     0.28203    0.066686  -0.0073698
-0.0060706   -0.028157   -0.018413    0.028034     0.30152    0.074482  -0.0096434
-0.0067202   -0.029457   -0.023285    0.021213     0.33303    0.083251   -0.013866
-0.011917   -0.030106    -0.01614    0.015367      0.3772    0.090072   -0.017439
-0.019063   -0.031081  -0.0021729    0.010819     0.42625    0.089748   -0.020362
-0.026533   -0.034329    0.009845   0.0078962     0.47107    0.083901   -0.022961
-0.028807   -0.041799    0.016991   0.0062721      0.5042    0.074806   -0.026533
-0.029132   -0.053492    0.013743  0.00010078     0.52661    0.064737    -0.03238
-0.028157   -0.065186   0.0017248  -0.0083442     0.54383    0.055968   -0.034329
-0.026858   -0.076229   -0.010293   -0.015815      0.5578    0.048822   -0.032055
-0.026209   -0.084999   -0.017114   -0.020362     0.57241    0.044275   -0.026209
-0.025884   -0.086948   -0.019712   -0.022311     0.58508    0.041676    -0.01614
-0.025234   -0.081751   -0.021986   -0.021986     0.59125    0.037778  -0.0063954
-0.021012   -0.067784   -0.022636    -0.02361     0.58508    0.032906  -0.0021729
-0.013216   -0.047971   -0.020687   -0.026858     0.56494    0.026085  -0.0041217
-0.0018481   -0.027833   -0.017439   -0.027833     0.53863    0.022512  -0.0099683
0.008221  -0.0099683   -0.012892   -0.021661     0.53051    0.022512   -0.010618
0.016016   0.0033489  -0.0067202   -0.008669     0.57663    0.025111  -0.0047713
0.023812    0.011794   0.0017248   0.0072465     0.69097    0.032257   0.0072465
0.030957    0.019914    0.012119    0.022188      0.8524    0.041676    0.023162
0.038428    0.031932    0.021538    0.032257      1.0132    0.054993    0.037454
0.045899    0.047198    0.027385    0.037454      1.1275     0.06831    0.044599
0.051096    0.065712     0.02706    0.039727      1.1772    0.079679    0.042975
0.053694    0.084551    0.019264    0.040052      1.1619    0.086175    0.039402
0.056292    0.097218    0.013093    0.041027      1.0898    0.089098     0.03453
0.061165    0.097868    0.011144    0.045574      0.9742    0.089098    0.027709
0.066037    0.086175    0.012768    0.055318     0.81991      0.0865    0.020564
0.067336    0.067661    0.016666    0.065387     0.62698    0.081303    0.016991
0.066037    0.049796     0.01829    0.067986      0.3876    0.080978    0.020239
0.065062    0.037129    0.015692    0.063113     0.08585    0.083251    0.024461
0.062789    0.029983    0.012443    0.053369    -0.29807    0.086824    0.029009
0.055968     0.02641    0.010495    0.044275    -0.77262    0.088773    0.033231
0.046548     0.02706    0.010495    0.039727     -1.3157      0.0852    0.037778
0.042001    0.030633     0.01017    0.037129     -1.8597    0.076106    0.039727
0.044599    0.033881   0.0059473    0.031932     -2.3018    0.061165    0.041676
0.053369    0.037778  -0.0018481     0.01764     -2.5373    0.037454     0.04395
0.063438    0.039078   -0.007045  -0.0050961     -2.5094   0.0020496    0.044599
0.074157    0.039402  -0.0076946   -0.031081     -2.2291   -0.041799    0.043625
0.083251    0.038103  -0.0080194    -0.04927     -1.7649   -0.087922    0.039402
0.087799     0.03453   -0.011592   -0.051544     -1.2027    -0.12755    0.030957
0.084226    0.029983   -0.018738   -0.040175    -0.63522    -0.15841    0.018615
0.073507    0.023812   -0.026209    -0.02361    -0.14964    -0.18244      0.0014
0.059216    0.017965   -0.036602   -0.011267      0.2044     -0.2068   -0.018088
0.047847    0.013743   -0.047971  -0.0057458     0.42722    -0.23279   -0.032705
0.040702   0.0095202   -0.055441  -0.0031473     0.54578    -0.25098     -0.0405
0.036154   0.0062721   -0.055116  0.00075039     0.59352    -0.25422   -0.040825
0.030633   0.0072465   -0.045697   0.0088706      0.5971    -0.23766   -0.039201
0.026085    0.015367   -0.030106    0.021538     0.57371    -0.20485   -0.034654
0.028684    0.024786   -0.013866    0.036804     0.53116    -0.16165   -0.027833
0.038428    0.037454 -0.00022403     0.05142     0.46458    -0.12008   -0.018088
0.050446    0.048497   0.0075714    0.062789     0.37655   -0.086623  -0.0067202
0.057917    0.056292    0.013093    0.069285     0.28008    -0.06616   0.0036737
0.06084    0.058241     0.01894     0.06961     0.19239   -0.059989   0.0075714
0.06019    0.056292    0.021863    0.064413     0.13327   -0.062587   0.0049729
0.054993    0.048497    0.020888    0.056292     0.10989    -0.06616  -0.0037969
0.046873    0.037454    0.016666    0.047523     0.11638   -0.064211   -0.012567
0.039078     0.02641    0.015367    0.037778     0.14042   -0.052518   -0.016464
0.029333    0.018615    0.016016    0.031607     0.17355   -0.030106   -0.012892
0.015692    0.015692    0.017316    0.028684      0.2148  -0.0018481  -0.0054209
0.0010752    0.013093    0.017316    0.025761     0.25313    0.023162 -0.00022403
-0.0063954   0.0072465    0.013093    0.019914     0.27911    0.039078  -0.0041217
-0.0080194  -0.0018481   0.0049729    0.010819     0.29243    0.043625   -0.017114
-0.0054209  -0.0089938  -0.0067202   0.0065969     0.28431    0.045574    -0.03173
-0.0024977  -0.0099683   -0.018088    0.009845     0.22714    0.046548   -0.044073
0.0020496  -0.0024977   -0.027833    0.016341    0.097218    0.043625   -0.055441
0.003024    0.010495   -0.034329     0.01894   -0.092794    0.033231   -0.060963
-0.00087364    0.025761   -0.039201    0.014068    -0.27988    0.015367    -0.05739
-0.010293    0.039078     -0.0405   0.0059473    -0.38285  -0.0063954   -0.047321
-0.017114    0.047198    -0.03238  -0.0028225    -0.35329   -0.027508   -0.036602
-0.01614    0.050771   -0.017114   -0.011592    -0.20875   -0.039201   -0.032705
-0.0054209    0.048822   0.0023744   -0.020362   -0.014191   -0.034654   -0.034004
0.010819    0.045249    0.020888   -0.026533     0.15373    -0.01484   -0.037902
0.020888    0.044924    0.033556   -0.032055     0.25053    0.014717   -0.035303
0.017965    0.045574     0.03583   -0.035303     0.26742    0.049147   -0.022636
0.0049729    0.042975    0.029658   -0.035303     0.22032    0.080003  0.00010078
-0.007045    0.036479    0.019914   -0.028482     0.14204    0.099167    0.027385
-0.012892    0.026735   0.0088706    -0.01614    0.070259    0.098842    0.048497
-0.014191    0.016991  0.00042559  -0.0021729    0.028359    0.080653    0.056292
-0.014191    0.012768  -0.0041217   0.0091954    0.019914     0.05207    0.050446
-0.013866    0.019264  -0.0028225    0.014717     0.03583    0.016991    0.034206
-0.013866    0.030633    0.003024    0.015042    0.063438   -0.016789     0.01764
-0.010943    0.042651    0.014392    0.012768     0.09462   -0.038227    0.011144
-0.0067202    0.049472    0.030957   0.0069217      0.1284   -0.042774    0.017316
-0.0063954    0.049796    0.044924  0.00075039     0.16868   -0.035628    0.031607
-0.007045    0.047523    0.048822  -0.0060706      0.2174   -0.027833      0.0433
-0.0060706      0.0433    0.042975   -0.011267     0.27846   -0.026533    0.050446
-0.00087364    0.036154    0.029333   -0.017114     0.34764   -0.029782    0.053694
0.0039985    0.025111    0.010819   -0.019063     0.41553   -0.027508    0.053694
0.0026992   0.0052977   -0.010943    -0.01484     0.46425  -0.0099683    0.049796
-0.0031473   -0.019712   -0.030431  -0.0054209     0.47789     0.02706    0.043625
-0.010618   -0.044723   -0.046671   0.0088706     0.45126    0.076106    0.037129
-0.019712   -0.060963   -0.052193    0.022837     0.39669     0.12125    0.029333
-0.030106   -0.071682    -0.04992    0.029983     0.33011     0.14756    0.015367
-0.043099   -0.081101   -0.044073    0.023812      0.2606     0.14854  -0.0034721
-0.057715   -0.093769   -0.042774   0.0043233     0.18654      0.1271   -0.020362
-0.070382    -0.11001   -0.046671    -0.01614     0.10469    0.094945   -0.032055
-0.076229    -0.12333   -0.052193   -0.028157   0.0043233    0.067011   -0.037252
-0.069733     -0.1269   -0.051868   -0.030106    -0.13794    0.050446   -0.036602
-0.052193     -0.1204   -0.046996   -0.022961     -0.3377    0.045574   -0.030106
-0.028482    -0.10384   -0.035628  -0.0096434    -0.59332    0.050771    -0.01549
-0.0063954   -0.077203   -0.022311   0.0069217    -0.87558    0.065712    0.010495
0.0091954   -0.042774  -0.0093186    0.025111     -1.1231    0.083901    0.041027
0.015367  -0.0018481  -0.0028225    0.042975     -1.2718     0.10469    0.067336
0.012443    0.037778   0.0017248    0.058241     -1.2897      0.1206    0.082277
0.0052977    0.067011   0.0046481    0.064737     -1.1835     0.12483    0.082602
0.00042559    0.083901   0.0091954    0.057592    -0.99024     0.11541    0.074806
0.00042559    0.090397    0.013743    0.040052    -0.75475    0.091047    0.065062
0.0056225    0.088448    0.017316     0.01894    -0.51277     0.05272    0.058241
0.014717    0.079354    0.021538   0.0010752    -0.28053   0.0039985    0.054344
0.025111    0.065062     0.02641  -0.0093186   -0.060963   -0.044398    0.049147
0.037454    0.048172    0.029983   -0.010618     0.14789   -0.078178    0.039727
0.049472    0.033881    0.032257  -0.0054209     0.32848   -0.089546    0.026085
0.060515    0.020888    0.031607      0.0014     0.45808   -0.081426    0.012119
0.066362   0.0075714    0.028359   0.0039985     0.52012   -0.062262   0.0036737
0.064737  -0.0054209    0.022512   0.0023744     0.51525   -0.041475   0.0049729
0.050446   -0.013866    0.015042  0.00010078     0.45905   -0.025559    0.010819
0.026735   -0.016789   0.0072465  0.00010078     0.37525   -0.018738    0.017965
0.00010078   -0.019388  -0.0021729   0.0020496     0.28106   -0.020037    0.022512
-0.021661   -0.027183   -0.008669    0.008221     0.19336    -0.02426    0.023487
-0.035628   -0.037252  -0.0093186    0.020239     0.13002   -0.024585    0.020888
-0.038227   -0.046347  -0.0028225     0.03453    0.095269   -0.017764    0.016666
-0.028807   -0.050569   0.0072465    0.044924    0.081952 -0.00054884    0.017965
-0.014191   -0.046671    0.017965    0.048822    0.082927    0.025436     0.02641
-0.00087364   -0.038227     0.02641    0.050446    0.092346    0.056617    0.044924
0.0085458   -0.028482    0.033231    0.053369     0.10794    0.086824    0.070909
0.012119   -0.019063    0.042326    0.057267     0.12905     0.11411    0.095919
0.015042  -0.0083442    0.053694     0.06084     0.13814      0.1323     0.11346
0.020564   0.0052977    0.061814    0.059541     0.11736     0.13522     0.11995
0.035505    0.028359    0.063438    0.058891    0.062139     0.12125     0.11411
0.061814    0.058891    0.058891    0.061814   -0.018413    0.094295    0.098517
0.093645    0.092671     0.05207    0.067011   -0.097666    0.063763    0.078055
0.1206     0.12385      0.0433    0.073182    -0.15548    0.038103    0.057267
0.13327     0.14432    0.033881    0.073507    -0.17822    0.019589    0.046223
0.13002     0.15049    0.024786    0.066362    -0.16815   0.0091954    0.046548
0.11118     0.13977    0.020564    0.050446    -0.13762   0.0059473    0.054993
0.080653     0.11443    0.022837    0.029983    -0.10254   0.0039985     0.06084
0.048497      0.0852    0.032906    0.015692   -0.070058 -0.00087364    0.054993
0.020888    0.062464    0.043625    0.012119   -0.038876  -0.0093186    0.036479
0.0014     0.05272    0.050446    0.015692  -0.0060706   -0.018738    0.009845
-0.0073698    0.050446    0.049147    0.023162    0.030308   -0.029132   -0.015815
-0.0076946    0.050446    0.042326    0.026735    0.075456   -0.036602   -0.031406
-0.00022403    0.047523    0.029333    0.023162     0.12775   -0.041799   -0.034329
0.013418    0.040377    0.014068    0.015692     0.18232   -0.046671   -0.027833
0.029658     0.02641  -0.0018481   0.0043233      0.2174   -0.054142   -0.019712
0.039078   0.0049729   -0.018088  -0.0099683     0.19336   -0.071032    -0.01614
0.039727   -0.019388   -0.036602   -0.027833    0.082927    -0.10384   -0.019063
0.03518   -0.041475   -0.051544   -0.052518    -0.10481    -0.15126   -0.028807
0.027385   -0.054467   -0.059989   -0.082725    -0.32016    -0.20518   -0.046347
0.015367   -0.053168   -0.062262    -0.10936    -0.49945    -0.25065   -0.065186
-0.0021729   -0.041799   -0.060313    -0.12268     -0.5969    -0.27501   -0.076879
-0.026858    -0.02426   -0.051219     -0.1178    -0.59884    -0.27664   -0.077528
-0.055441  -0.0073698   -0.034978   -0.098965    -0.52641    -0.25682   -0.069083
-0.081751   0.0036737   -0.017114   -0.073631     -0.4176    -0.22239   -0.055116
-0.10124   0.0072465 -0.00087364   -0.053817    -0.31042    -0.17822   -0.038876
-0.11261   0.0039985    0.011144   -0.045047    -0.22986     -0.1321   -0.024909
-0.11845 -0.00022403    0.012768   -0.043423    -0.18082   -0.096367   -0.019388
-0.11813  -0.0011985  0.00042559   -0.039526    -0.15873   -0.071682   -0.021337
-0.11131   0.0020496   -0.014516   -0.031081    -0.14931   -0.056091   -0.029132
-0.099615   0.0056225   -0.023935   -0.022636    -0.13989   -0.042774   -0.041799
-0.084674   0.0039985   -0.023285   -0.014516    -0.11683   -0.029457   -0.052843
-0.069408  -0.0024977    -0.01614  -0.0089938   -0.081426   -0.016789   -0.056091
-0.053492  -0.0093186   -0.011267  -0.0034721   -0.036927  -0.0057458   -0.051544
-0.039526   -0.014191  -0.0099683  0.00042559   0.0065969   0.0036737   -0.044398
-0.033679   -0.017439   -0.010943  -0.0015233    0.041676   0.0091954   -0.034978
-0.034329   -0.020687  -0.0083442  -0.0037969    0.070584    0.011144   -0.022961
-0.040175    -0.02426  -0.0044465  0.00010078    0.099167   0.0095202  -0.0096434
-0.046347   -0.028482 -0.00087364    0.010819      0.1323   0.0065969   0.0020496
-0.04862   -0.028807   0.0033489    0.020888     0.16965   0.0046481   0.0095202
-0.04862   -0.022636    0.008221    0.028359     0.20765   0.0059473    0.010819
-0.046996   -0.010618    0.011794     0.03453     0.24241    0.009845   0.0075714
-0.043748   0.0017248    0.013743    0.042651     0.27034    0.013093  0.00075039
-0.040825   0.0072465    0.015367     0.05207     0.30055    0.014392  -0.0034721
-0.0405   0.0046481    0.014068    0.057917     0.34115    0.012443  -0.0034721
-0.041475  -0.0054209    0.011144    0.059216     0.39767   0.0085458  -0.0011985
-0.038551   -0.019712   0.0049729    0.056292     0.46458   0.0026992  -0.0024977
-0.030106   -0.034329  -0.0028225    0.048497     0.52791  -0.0028225  -0.0080194
-0.016464   -0.046347  -0.0093186    0.038753     0.56981  -0.0083442    -0.01484
-0.0011985   -0.049595   -0.013216    0.030633     0.57241   -0.013866   -0.021661
0.013093   -0.046022   -0.015165    0.023487     0.51817   -0.022311   -0.033354
0.022512   -0.038551    -0.01614     0.01764     0.41131   -0.035303   -0.050894
0.02641    -0.03238   -0.019063    0.015367     0.28366   -0.052193   -0.072331
0.028034   -0.028157   -0.023285    0.015692      0.1768   -0.069083   -0.088896
0.030957   -0.021012   -0.026533    0.020888     0.12093   -0.081751   -0.094093
0.034855   -0.011267   -0.025559    0.028034     0.12807   -0.086623   -0.089221
0.03453 -0.00087364   -0.020362    0.034206     0.18881   -0.081426   -0.073631
0.028684   0.0062721   -0.013216    0.040702     0.27489   -0.063886   -0.050894
0.020239    0.011469  -0.0018481     0.04395     0.35187   -0.038876   -0.024585
0.015367    0.016666    0.014068    0.042326     0.39279   -0.011917  -0.0028225
0.016016    0.019589    0.029983     0.03583     0.38954     0.01017   0.0095202
0.020564    0.019914    0.038753     0.02641      0.3444    0.024137    0.013743
0.025761    0.019589    0.035505    0.016666     0.26514    0.032906    0.012119
0.026735    0.019914     0.01894    0.008221     0.15179    0.041676   0.0095202
0.020239    0.023812  -0.0031473   0.0023744   0.0072465    0.049796     0.01017
0.0052977    0.029658   -0.020362  0.00075039    -0.15386    0.054993    0.013093
-0.0096434    0.036154   -0.029132   0.0023744    -0.31204    0.055968    0.019264
-0.018088    0.039078   -0.031406   0.0078962    -0.46048    0.054344    0.026735
-0.019712    0.037454   -0.028157    0.015042    -0.59917    0.048497    0.031607
-0.01614    0.033556   -0.016464    0.019264    -0.73819    0.040052    0.032257
-0.0083442    0.031607 -0.00054884    0.018615     -0.8837    0.032582    0.032582
0.0017248    0.030957    0.011794    0.014392     -1.0204    0.028034     0.03518
0.0088706    0.031282    0.014392   0.0085458     -1.1137    0.024461    0.036154
0.01017    0.029333     0.01017    0.003024     -1.1351    0.017965    0.036479
0.0085458    0.025436   0.0017248   0.0049729      -1.077   0.0095202     0.03518
0.0078962    0.023162  -0.0050961    0.013093    -0.94834   0.0039985    0.029009
0.009845    0.023162  -0.0037969    0.021213    -0.77294   0.0059473    0.017965
0.015692    0.025761   0.0052977    0.023162    -0.57806    0.014392   0.0056225
0.020239    0.029009    0.014068    0.021863    -0.38967    0.028684 -0.00022403
0.019589    0.032257    0.020564    0.019914    -0.23246    0.041027  -0.0011985
0.015042     0.03583    0.022512    0.016341    -0.12657    0.048172  -0.0015233
0.011144    0.037778    0.021213    0.008221   -0.080776    0.045899  -0.0018481
0.011144    0.035505    0.015692  -0.0057458   -0.084024     0.03583   0.0046481
0.016666    0.026085   0.0069217   -0.023935    -0.11488    0.022188    0.019914
0.024461    0.011469  -0.0028225   -0.042124    -0.14639   0.0095202    0.037129
0.031282  -0.0011985   -0.013216   -0.052843    -0.15451  -0.0018481    0.045899
0.033231  -0.0099683   -0.021661   -0.049595    -0.11845  -0.0076946    0.045249
0.026735   -0.013541    -0.02361   -0.035628   -0.036278   -0.007045    0.035505
0.015042    -0.01484   -0.017114   -0.017439    0.067986  0.00042559    0.023162
0.0052977   -0.013216   -0.007045 -0.00054884     0.16705    0.009845    0.012443
0.0039985  -0.0096434   0.0023744   0.0088706     0.24241    0.015367   0.0065969
0.011469  -0.0031473    0.009845   0.0091954     0.28853    0.014068   0.0056225
0.023162   0.0033489    0.012768   0.0059473     0.30607   0.0072465    0.011144
0.03518   0.0069217    0.012443   0.0033489     0.30607      0.0014    0.019264
0.042651   0.0069217   0.0091954   0.0065969      0.2934   0.0023744    0.026085
0.047847   0.0059473   0.0052977    0.019264     0.27067     0.01017    0.030633
0.050121   0.0072465   0.0020496    0.037778     0.23754    0.023812    0.031607
0.051096    0.013418  -0.0024977    0.054344     0.20278    0.039402    0.029009
0.051745    0.021863  -0.0063954    0.061489      0.1781    0.053369    0.024461
0.052395    0.025761   -0.011592    0.057267     0.17485    0.060515    0.018615
0.050771    0.022512   -0.012892    0.048172     0.21285    0.063113    0.011144
0.044275    0.015042   -0.010293      0.0433     0.31549    0.062139   0.0036737
0.032582     0.01017  -0.0044465      0.0433     0.49641    0.055643  -0.0024977
0.020564   0.0091954  0.00075039    0.048497     0.73904    0.042651  -0.0063954
0.013418    0.012443   0.0065969    0.054993     0.98784    0.028034  -0.0080194
0.009845    0.014068    0.015042     0.06084      1.1714    0.015367  -0.0037969
0.0062721    0.012119    0.023487    0.064737      1.2376   0.0072465   0.0046481
0.0033489   0.0095202    0.024786    0.065387      1.1788   0.0020496    0.014068
0.0049729   0.0095202    0.019264    0.064737      1.0239 -0.00022403    0.024137
0.010495    0.010495    0.012119    0.064737     0.81504 -0.00087364    0.031932
0.016666    0.012443   0.0072465    0.060515     0.57826  -0.0047713    0.036479
0.019264     0.01017   0.0036737    0.048822     0.31192   -0.011917     0.03518
0.018615  0.00075039  0.00042559    0.030308    0.011794   -0.027833    0.030633
0.013743    -0.01549  -0.0031473   0.0088706    -0.28183   -0.051544    0.025761
0.0091954   -0.029457  -0.0073698   -0.011917    -0.50335   -0.076554    0.019914
0.0065969   -0.034978   -0.013216   -0.028482    -0.60599   -0.094418    0.018615
0.0043233    -0.03173   -0.021012     -0.0405     -0.5865   -0.099615    0.019589
0.0023744    -0.02426   -0.028807   -0.045697    -0.47899   -0.094093    0.016341
0.0014   -0.016464   -0.036602   -0.042124    -0.33543   -0.081101   0.0069217
0.0043233  -0.0076946   -0.043099   -0.030756    -0.19966   -0.064211  -0.0054209
0.010819   0.0017248   -0.046347   -0.020037    -0.10351   -0.045047    -0.01614
0.014068    0.011794   -0.047971   -0.014516   -0.053817   -0.023935   -0.024585
0.0072465    0.021213   -0.045697   -0.010618   -0.039201  -0.0024977   -0.027833
-0.0093186    0.025111   -0.038876  -0.0063954   -0.042449    0.015042   -0.026209
-0.028482    0.022188   -0.029457 -0.00054884   -0.055116    0.031607   -0.019712
-0.042774    0.013743   -0.017439   0.0072465   -0.077203    0.046223   -0.010618
-0.050894   0.0056225  -0.0054209    0.017965    -0.10416    0.055643  -0.0067202
-0.04862    0.003024   0.0043233     0.02706    -0.13307    0.054019  -0.0080194
-0.036602   0.0062721    0.011469    0.034206    -0.15776    0.045574   -0.012242
-0.017764    0.013418    0.013743     0.03518     -0.1688    0.033881   -0.011267
0.0020496    0.019589    0.011469    0.031932    -0.15841    0.020564  -0.0050961
0.012768    0.018615   0.0075714    0.031282    -0.12235   0.0065969   0.0017248
0.010495    0.014068   0.0062721    0.032582    -0.05739  -0.0073698   0.0052977
0.0010752   0.0049729    0.009845    0.032906    0.033231    -0.01549   0.0056225
-0.008669  -0.0041217    0.012768    0.031282     0.14594   -0.013216   0.0017248
-0.013866   -0.010618   0.0069217    0.024461     0.27034  -0.0028225  -0.0044465
-0.012567   -0.010618  -0.0063954   0.0095202     0.39344    0.012443   -0.014191
-0.0099683  -0.0044465   -0.018088  -0.0073698     0.50095    0.017965   -0.025559
-0.011917      0.0014   -0.021012   -0.017114      0.5841    0.011144   -0.030106
-0.017439    0.003024   -0.013541   -0.017764     0.61496  -0.0041217   -0.025559
-0.017764   0.0023744   0.0020496  -0.0099683     0.55844   -0.021986   -0.010943
-0.012567   0.0036737     0.01894      0.0014     0.40546   -0.035628   0.0069217
-0.0037969   0.0039985    0.029333    0.014068     0.19434   -0.044073    0.023487
0.0075714   0.0036737    0.029658    0.022188  -0.0024977   -0.047971    0.031932
0.017316   0.0017248     0.01894    0.023487    -0.12625   -0.046347    0.032906
0.024137   0.0020496   0.0036737    0.018615    -0.17205   -0.038876    0.028034
0.029333   0.0049729   -0.010293    0.011144    -0.18374   -0.030431    0.022188
0.032906    0.011794   -0.015815   0.0020496    -0.21849    -0.02426     0.01829
0.031932    0.017316   -0.010943  -0.0028225    -0.31269    -0.02361    0.019914
0.02706    0.018615  0.00010078  -0.0015233     -0.4634   -0.027183     0.02641
0.01829    0.016666    0.015042  0.00010078     -0.6362   -0.031081    0.032582
0.0069217    0.013093    0.025761 -0.00087364    -0.78366   -0.034004    0.032906
-0.00022403    0.008221    0.028359  -0.0011985    -0.86778   -0.038227    0.028034
-0.00022403  0.00010078    0.022512 -0.00022403    -0.87071   -0.044723    0.017965
0.0078962  -0.0073698    0.011469   0.0026992     -0.7986   -0.053492   0.0059473
0.021213   -0.011267  0.00010078   0.0026992     -0.6742   -0.059664  -0.0073698
0.030957   -0.011917  -0.0054209  -0.0028225    -0.52089   -0.058689   -0.017439
0.030308   -0.011917  -0.0044465   -0.012892    -0.35816   -0.050569   -0.025234
0.022512   -0.013541   0.0033489   -0.020037    -0.19998   -0.035953   -0.026858
0.013093   -0.020037    0.013418   -0.019388   -0.062587   -0.018738   -0.020037
0.0085458   -0.029132    0.022188   -0.012892    0.033231 -0.00022403  -0.0060706
0.0088706   -0.034654     0.02641   -0.007045    0.082602    0.016666    0.015042
0.015367   -0.035953     0.02641  -0.0063954    0.095919    0.028684    0.037778
0.02706   -0.028157    0.024786  -0.0093186     0.10631    0.034855    0.054668
0.037129   -0.010293    0.020888   -0.013541     0.15503    0.036479    0.062139
0.037129    0.015367    0.018615   -0.018738     0.26255     0.03453    0.058241
0.024786    0.044275     0.01764   -0.025559     0.41326    0.026085    0.046873
0.0020496    0.070259     0.01764   -0.030756     0.56949    0.016016    0.033556
-0.026858    0.087474    0.016666   -0.030756     0.69941   0.0095202    0.018615
-0.04927    0.092671    0.015692   -0.022961     0.77737    0.009845   0.0056225
-0.058365    0.088773    0.014717  -0.0080194     0.78841    0.017965  -0.0024977
-0.053492    0.078379    0.013743   0.0095202     0.72799    0.026735  -0.0044465
-0.036278    0.066037    0.012768    0.024137     0.60327    0.030308  -0.0011985
-0.014191    0.053369    0.012119     0.03453     0.42332    0.027709   0.0072465
0.0069217    0.041676     0.01017    0.040702     0.20798    0.023487    0.014392
0.019589    0.032582    0.008221    0.043625   -0.017114    0.020564    0.014068
0.029658    0.026735   0.0072465    0.046223    -0.23863     0.01829   0.0069217
0.040702     0.02706   0.0091954    0.050446    -0.45593     0.01829  -0.0018481
0.053694     0.03518    0.011144    0.054019     -0.6703    0.020239  -0.0089938
0.068635    0.048172    0.013093    0.056942    -0.87623    0.024786   -0.014516
0.084226    0.061489    0.014068    0.059541     -1.0565    0.030957    -0.01549
0.093645    0.067986    0.012119    0.056942     -1.1851     0.03583   -0.012242
0.092996    0.065387   0.0020496      0.0433     -1.2316    0.036479  -0.0054209
0.081952    0.056292   -0.013541    0.021863     -1.1764    0.028684   0.0020496
0.062139    0.044924   -0.030756   0.0017248     -1.0305    0.016016   0.0059473
0.042651    0.035505   -0.039851   -0.018088    -0.83141  0.00042559      0.0014
0.027709    0.029658   -0.036602    -0.03303     -0.6245   -0.015815  -0.0089938
0.015692    0.027385   -0.021337   -0.044073    -0.44911   -0.027833   -0.020362
0.0059473    0.026735  -0.0028225   -0.046996    -0.32471    -0.03303   -0.027183
0.00042559    0.027385    0.013093   -0.038227    -0.25227   -0.027508   -0.031081
-0.0018481    0.030633    0.022512   -0.020037    -0.22012    -0.01484    -0.03238
-0.0015233    0.034206    0.021538  0.00010078      -0.212 -0.00054884   -0.033679
-0.0018481    0.037454    0.015042    0.012768    -0.21005    0.013093   -0.033354
-0.0044465    0.037454   0.0088706    0.014392    -0.19771    0.022837   -0.032705
-0.011592    0.030308   0.0049729   0.0065969    -0.16263     0.02706   -0.029457
-0.021012    0.015367   0.0043233  -0.0031473    -0.09994    0.026085    -0.02361
-0.030756  -0.0031473    0.008221   -0.012242   -0.014516    0.019264   -0.017764
-0.038227   -0.018088     0.01017   -0.021012    0.078055   0.0065969    -0.01484
-0.041475   -0.026533   0.0069217   -0.029782     0.17874   -0.012242   -0.014516
-0.04115   -0.029132  -0.0018481   -0.038227      0.2973   -0.034654   -0.015815
-0.041475    -0.03303   -0.014191   -0.045697     0.43892   -0.053492   -0.013541
-0.047646   -0.037902   -0.027833   -0.046996     0.59125   -0.064861  -0.0076946
-0.055116   -0.039526     -0.0405   -0.038876      0.7254   -0.061288  -0.0021729
-0.05804   -0.036927   -0.047321   -0.024585     0.80855   -0.048945  0.00010078
-0.054467   -0.031406   -0.046671  -0.0050961     0.82349   -0.034329  -0.0015233
-0.04862   -0.030756   -0.042449    0.012443     0.77444   -0.024585  -0.0054209
-0.046671   -0.037577   -0.036927    0.023812      0.6835   -0.021661   -0.011267
-0.052518   -0.047971   -0.034654    0.030308     0.57696   -0.028482   -0.017114
-0.065835    -0.05739    -0.03173    0.036154     0.47529   -0.044723   -0.021012
-0.081101   -0.059664   -0.027508    0.041351     0.37915    -0.06551   -0.021012
-0.093444   -0.050894    -0.02361    0.042326     0.27586   -0.081101   -0.015815
-0.097341   -0.035303   -0.020362    0.038753     0.15763   -0.088572   -0.008669
-0.092469   -0.018738    -0.01614    0.031607     0.03453   -0.084024  -0.0041217
-0.082725  -0.0028225  -0.0099683    0.025436   -0.075904   -0.067784  -0.0015233
-0.072656   0.0095202  -0.0047713    0.019589    -0.14834   -0.047646  0.00010078
-0.063237    0.016016  -0.0037969    0.014392    -0.17432   -0.029782   0.0020496
-0.056091     0.01829  -0.0096434    0.013743    -0.16653   -0.016464   0.0085458
-0.051868     0.01829   -0.018088    0.017965    -0.14379  -0.0063954     0.01894
-0.047321    0.018615   -0.020037    0.025111    -0.11878  0.00042559    0.029658
-0.036927    0.015042    -0.01549    0.033881   -0.097341   0.0069217    0.036479
-0.022961   0.0078962  -0.0093186    0.038428   -0.079477    0.013743     0.03583
-0.0096434 -0.00022403  -0.0034721    0.038753   -0.056741    0.021863    0.028359
0.0017248  -0.0083442   0.0010752    0.033231    -0.03173    0.030957    0.020564
0.009845   -0.013216   0.0039985    0.025111  -0.0044465     0.03583     0.01764
0.013743   -0.011592   0.0069217     0.01894    0.019914    0.040052    0.017965
0.013743  -0.0047713   0.0088706    0.016666    0.035505     0.04395    0.016991
0.0088706   0.0017248   0.0095202    0.014392    0.042326    0.048822    0.012768
0.0056225   0.0052977    0.010819    0.011794      0.0433    0.053044   0.0075714
0.0088706   0.0049729    0.014392   0.0059473    0.042326    0.054668   0.0059473
0.017316   0.0010752    0.017316 -0.00054884    0.044599    0.059865    0.011469
0.024461  -0.0060706    0.019589  -0.0057458    0.050121    0.070259    0.023487
0.026085   -0.012892    0.020888   -0.008669    0.055318    0.081952    0.036804
0.023487   -0.016789    0.021863  -0.0099683     0.06084    0.089098    0.044599
0.016991   -0.019063    0.023487  -0.0089938     0.06896    0.090072    0.046223
0.01017   -0.020362    0.022512  -0.0047713    0.082602    0.083251    0.042975
0.0036737   -0.018738    0.017316   0.0017248     0.10209    0.070584    0.037778
0.0039985   -0.012892   0.0095202    0.010819     0.12093    0.055968    0.033231
0.012768  -0.0037969   0.0033489    0.018615     0.12872    0.040377    0.029658
0.028684   0.0052977   0.0020496    0.023487     0.12255     0.02706    0.026735
0.047847    0.012443   0.0072465    0.026735     0.10794    0.022188    0.020564
0.063113    0.016341    0.013418    0.030308    0.094945    0.028034    0.014392
0.078055    0.017965    0.016016    0.033231    0.087799    0.038753    0.011469
0.092021    0.018615    0.013743    0.035505    0.080003    0.047198    0.011144
0.096893    0.015367    0.013093    0.036479    0.072533    0.049796   0.0091954
0.087474   0.0065969    0.016016     0.03583    0.067661    0.042326   0.0065969
0.066037  -0.0057458    0.019914    0.036154    0.064088     0.02706   0.0069217
0.03518   -0.018088    0.019264     0.03583    0.062789    0.009845    0.011469
0.0010752   -0.026533    0.010495    0.034206    0.062464  -0.0037969    0.018615
-0.024909   -0.030756  -0.0011985    0.029658     0.06084  -0.0083442    0.025111
-0.034004   -0.030756   -0.010618     0.01894    0.058566  -0.0060706    0.030633
-0.03238   -0.025559   -0.013541   0.0049729    0.057267  -0.0054209    0.034206
-0.02361   -0.016464  -0.0073698  -0.0067202    0.050121   -0.011267     0.03583
-0.0089938  -0.0044465   0.0056225   -0.011267    0.036804   -0.023285     0.03583
0.0072465   0.0062721    0.020564  -0.0067202    0.018615   -0.035953     0.03583
0.015042    0.013743    0.032257   0.0056225   0.0010752   -0.045372    0.039078
0.012119    0.017965    0.036804    0.017965   -0.012242   -0.055116    0.047847
-0.0015233     0.01829    0.034206    0.024137   -0.017114   -0.064536    0.054019
-0.020362    0.016341    0.027709    0.022837   -0.012892   -0.071682    0.054019
-0.038876    0.012443    0.022837    0.019914  -0.0018481   -0.076229    0.046548
-0.051219    0.012443    0.020239    0.019264   0.0049729   -0.078827    0.036154
-0.055116    0.017965     0.01829    0.019264 -0.00022403   -0.083375    0.026085
-0.04862     0.02641    0.021863    0.019264   -0.011267   -0.095068     0.01764
-0.029132    0.032582    0.030957    0.018615   -0.012892    -0.11521    0.013093
-0.0037969    0.034855    0.040377    0.017316  -0.0060706    -0.13794    0.015042
0.016666    0.030957    0.046223    0.016666  -0.0073698    -0.15873    0.018615
0.025436    0.020239    0.046873    0.015692   -0.035303    -0.17172    0.016016
0.020888   0.0059473    0.041351    0.009845   -0.096692    -0.17822   0.0033489
0.010819   -0.010618    0.029983   0.0010752    -0.17887    -0.18374    -0.01484
0.0020496   -0.026209    0.016666  -0.0060706    -0.26007    -0.18731   -0.031081
-0.0011985   -0.038876    0.003024   -0.007045    -0.31724    -0.18471   -0.038227
0.00010078   -0.042124  -0.0076946  -0.0044465    -0.33315    -0.17205   -0.037252
0.0049729   -0.034978   -0.012892   0.0017248     -0.2997    -0.14834   -0.027833
0.010495   -0.017439   -0.010293   0.0075714    -0.22759    -0.11651   -0.012892
0.016016   0.0056225  0.00010078     0.01017    -0.13599   -0.082076   0.0046481
0.022837    0.029658    0.014068    0.012768   -0.050244   -0.053492    0.023487
0.029658    0.050446    0.023487    0.016341    0.011469    -0.03173    0.039078
0.03518    0.067661    0.025111    0.019914    0.037778    -0.01614    0.047847
0.03518    0.079679     0.01764    0.022512    0.034206  -0.0067202    0.048497
0.031607    0.084551   0.0078962    0.028034   0.0095202  -0.0044465    0.042001
0.031282    0.084226   0.0010752    0.033231   -0.027508  -0.0080194    0.030308
0.037129    0.081303  -0.0018481    0.037454   -0.084674   -0.014516    0.017965
0.044924    0.076755  -0.0034721    0.037778    -0.16782   -0.021337    0.010495
0.054019    0.069934   -0.007045     0.03518    -0.26494   -0.024585    0.010819
0.063113    0.062139   -0.010618    0.032582    -0.35524   -0.025884     0.01829
0.068635     0.05272   -0.013541    0.033556    -0.41013   -0.028807    0.030633
0.06896    0.045249   -0.016789    0.036154    -0.40526   -0.034329    0.041027
0.065062    0.041027   -0.019063    0.036479    -0.33185   -0.036927    0.042651
0.054019    0.036154   -0.018088    0.034206    -0.20225   -0.032055    0.035505
0.034206    0.031932   -0.012567    0.031932   -0.045047   -0.020037    0.019914
0.0091954    0.027385  -0.0037969    0.030633    0.097868  -0.0050961   0.0010752
-0.010618    0.022512   0.0036737    0.028034     0.19141   0.0072465   -0.013541
-0.018413    0.017965   0.0085458    0.024786     0.21577    0.015692   -0.020037
-0.015815    0.016016   0.0059473    0.023487     0.17647    0.022188   -0.017764
-0.0054209    0.013093  -0.0063954    0.021538    0.092996    0.030633   -0.013866
0.011469    0.009845   -0.022311    0.019589   0.0017248    0.039727   -0.010943
0.034206   0.0049729   -0.036278    0.019589   -0.065835    0.044599   -0.010943
0.055968  -0.0021729     -0.0405    0.019264    -0.10221      0.0433    -0.01549
0.070259  -0.0096434   -0.035953     0.01764    -0.12398    0.036804   -0.025234
0.072858   -0.016464   -0.024585    0.014717    -0.14249    0.027709   -0.035628
0.06084   -0.022636  -0.0096434    0.013093    -0.15905    0.021863   -0.044398
0.041676   -0.027183   0.0052977    0.011469    -0.16977    0.025761    -0.04927
0.020239   -0.029457    0.016991   0.0075714    -0.17237     0.03453   -0.050244
0.00075039   -0.025884    0.021538    0.003024    -0.16133    0.046548   -0.046996
-0.011592   -0.015815    0.019589  -0.0021729    -0.13112    0.059541   -0.044398
-0.015165 -0.00087364    0.015042   -0.007045   -0.084024    0.073182   -0.044073
-0.010618    0.015367    0.010819   -0.013866   -0.025234    0.079354    -0.04927
-0.0021729    0.026735   0.0065969   -0.022311    0.042651    0.079029   -0.057065
0.0065969    0.030633  -0.0028225   -0.029457     0.11898    0.074482   -0.066485
0.012443    0.025111   -0.015815   -0.036278     0.19953    0.069934   -0.070707
0.016341    0.013743   -0.027508     -0.0405     0.28593    0.066686    -0.06616
0.020564   0.0010752   -0.031081   -0.043748     0.38305    0.062464   -0.051219
0.030633  -0.0073698   -0.025234   -0.040825     0.48017    0.056942   -0.025559
0.047847  -0.0093186   -0.012242   -0.032055     0.56332    0.054019   0.0072465
0.063438  -0.0024977  0.00075039   -0.021986     0.60976    0.055318    0.040377
0.072208    0.008221   0.0088706   -0.019712     0.58833    0.057592    0.065387
0.069934    0.013743   0.0085458   -0.026533     0.47432    0.050771    0.076106
0.061489   0.0072465  0.00010078   -0.040825     0.27132    0.029333    0.072208
0.052395   -0.007045   -0.010293   -0.053817    0.024461  -0.0011985    0.059216
0.049796   -0.019063   -0.017114   -0.057715    -0.20388    -0.03173    0.045574
0.054344    -0.02426   -0.019712   -0.047321    -0.36109   -0.052843    0.032582
0.058891   -0.021012   -0.021012   -0.027833     -0.4202   -0.059014    0.023162
0.051745   -0.014191    -0.02361  -0.0063954    -0.38577   -0.050894    0.016991
0.026735   -0.008669   -0.029132   0.0085458    -0.28865   -0.029132    0.013093
-0.012567   -0.008669   -0.035628    0.011144    -0.16555  -0.0044465     0.01017
-0.054467   -0.013216   -0.038551   0.0043233   -0.053168    0.012443   0.0072465
-0.08305   -0.017439   -0.035628  -0.0024977     0.02706    0.016991    0.003024
-0.090845   -0.014516   -0.029457  -0.0031473    0.073507    0.011144  -0.0024977
-0.078827  -0.0018481   -0.021986   0.0046481    0.096893  -0.0034721  -0.0099683
-0.056091    0.016341   -0.011267    0.019589     0.10956   -0.021012    -0.01614
-0.030431    0.031607   0.0010752     0.03583     0.11801   -0.029782   -0.017114
-0.007045    0.037778    0.014068    0.049147     0.11833   -0.024909  -0.0083442
0.012768     0.03453    0.026735    0.057917     0.10924  -0.0073698   0.0020496
0.028034    0.022512     0.03583     0.06084    0.090722    0.012119   0.0095202
0.038428   0.0075714    0.041351    0.059216    0.059216    0.023487    0.012443
0.041351  -0.0037969    0.045574    0.058241    0.013743    0.031282    0.010495
0.037454  -0.0080194    0.045574    0.059216   -0.046996    0.038753   0.0026992
0.030308  -0.0063954    0.041027     0.06084    -0.11943    0.047198   -0.008669
0.020888  -0.0015233    0.031932    0.059216    -0.19056    0.056292   -0.018413
0.013743   0.0017248    0.022188    0.053369    -0.24318    0.066362   -0.020037
0.0075714   0.0039985    0.014392    0.041027     -0.2591    0.081627   -0.014516
-0.0011985   0.0049729   0.0059473    0.025436    -0.22174     0.10631  -0.0011985
-0.016789   0.0039985  -0.0031473    0.014392    -0.11845      0.1349    0.016341
-0.046022  -0.0021729   -0.012242    0.012119    0.049796     0.15698    0.031607
-0.084024   -0.011917    -0.01549    0.019264     0.26839      0.1638    0.038428
-0.12203   -0.022311    -0.01549    0.029658     0.51037     0.15373    0.035505
-0.14704   -0.030756   -0.017114    0.036804     0.73871     0.13327    0.025111
-0.15126   -0.032055   -0.022311    0.040377     0.91313     0.11378    0.014392
-0.13275   -0.026858   -0.028807    0.040377      1.0038     0.10177    0.010495
-0.094743   -0.016789   -0.035628    0.041027      1.0044     0.09462    0.013093
-0.046022  -0.0037969   -0.038227    0.040702     0.92775    0.087799    0.017316
-0.0024977   0.0078962   -0.036602    0.037454     0.78971    0.080328    0.019264
0.029009    0.014068   -0.027183    0.033231     0.59775    0.072208    0.015042
0.042651    0.016016   -0.014191    0.027709      0.3431    0.057267    0.008221
0.038753    0.015042  -0.0011985    0.020239   0.0095202    0.031282  -0.0015233
0.030633    0.015367   0.0069217    0.012119    -0.38642   -0.010293   -0.013541
0.027709     0.01829   0.0091954   0.0062721    -0.78171   -0.061613   -0.024585
0.033231    0.029009   0.0059473   0.0036737      -1.089    -0.11001   -0.032055
0.038428     0.04395   0.0020496   0.0017248     -1.2381    -0.14639   -0.038876
0.036804    0.055643  -0.0018481  -0.0024977     -1.2082    -0.16458   -0.047321
0.030957    0.062789  -0.0050961  -0.0067202     -1.0312    -0.16653   -0.054467
0.02641    0.062139   -0.007045   -0.010618    -0.77067    -0.15353   -0.059339
0.022188    0.054668  -0.0076946   -0.010943    -0.49003    -0.13145   -0.060638
0.01764    0.044275  -0.0018481  -0.0054209    -0.23636    -0.10644   -0.056741
0.014717    0.036804   0.0088706   0.0069217   -0.038876   -0.082076   -0.046022
0.014717    0.030633    0.014068    0.021538    0.082927   -0.061937   -0.029132
0.016016    0.020239    0.009845    0.032906     0.13425   -0.044073  -0.0083442
0.01894   0.0056225  -0.0015233    0.038103     0.13652   -0.024585    0.011794
0.01764  -0.0050961   -0.013541    0.033881     0.12515  -0.0063954    0.025111
0.0072465   -0.010618   -0.018088    0.022837     0.13067      0.0014     0.02706
-0.0073698   -0.011592    -0.01614   0.0075714     0.16543  -0.0060706    0.016666
-0.020037  -0.0083442  -0.0096434  -0.0096434     0.22324   -0.026209  -0.0011985
-0.024585 -0.00054884  -0.0034721   -0.022636     0.28301   -0.058365    -0.01614
-0.022311   0.0088706 -0.00022403   -0.029782     0.31711   -0.096692    -0.02426
-0.016789    0.016666    0.003024   -0.032055     0.30704    -0.13275   -0.022636
-0.010943    0.019264   0.0072465   -0.029782      0.2502    -0.15711   -0.013541
-0.0076946     0.01764    0.012768   -0.026209     0.15763    -0.16555  -0.0021729
-0.0057458    0.012768    0.017965   -0.019712    0.042326    -0.15938   0.0078962
-0.0024977   0.0075714     0.01894   -0.012892   -0.085324    -0.14769    0.016666
0.0020496   0.0020496    0.016016   -0.011267    -0.20648    -0.13827    0.022837
0.0075714   0.0017248   0.0065969   -0.011917    -0.29677     -0.1334    0.024137
0.0075714   0.0052977  -0.0018481   -0.010943    -0.32276     -0.1295    0.021538
0.0010752    0.012119  -0.0076946  -0.0096434    -0.25845    -0.11943     0.01764
-0.011267    0.017316  -0.0083442   -0.008669    -0.11423   -0.096692    0.016016
-0.028157    0.017316  -0.0037969   -0.007045    0.060515   -0.062262    0.019589
-0.043748    0.014392  0.00010078  -0.0067202      0.2057   -0.020687     0.02641
-0.050569    0.012768   0.0023744   -0.007045     0.28301    0.021863    0.032906
-0.048296    0.014068    0.003024  -0.0044465     0.28593    0.062464    0.039727
-0.037252     0.01829   0.0036737   0.0010752     0.23234    0.094945    0.042651
-0.024909    0.023162   0.0062721   0.0056225     0.14464     0.11248    0.044275
-0.016789    0.029658    0.011794   0.0072465    0.031932     0.11476    0.042651
-0.011917    0.036804    0.016666   0.0052977    -0.10611     0.11021    0.036804
-0.010618    0.040702    0.020564   0.0010752    -0.27534     0.10566    0.027385
-0.0089938    0.041676    0.020564  -0.0041217    -0.46925     0.10956    0.019914
-0.0050961    0.039402    0.019264  -0.0080194    -0.65991     0.12288     0.01764
-0.0024977    0.035505    0.018615  -0.0080194    -0.81257     0.14009    0.016666
-0.0034721    0.028684     0.01764  -0.0044465    -0.89182     0.15211    0.015042
-0.0093186    0.016341    0.012768  -0.0034721    -0.87948     0.15309   0.0088706
-0.020362      0.0014   0.0036737    -0.01614    -0.78626     0.13782  -0.0028225
-0.03173  -0.0096434  -0.0067202   -0.038551     -0.6362     0.10956   -0.013216
-0.038227   -0.012567   -0.014191   -0.063561    -0.45528    0.079679    -0.01614
-0.037902   -0.010618    -0.01484   -0.079152    -0.26949    0.058891   -0.007045
-0.027833  -0.0060706   -0.010618   -0.082076    -0.10319     0.05142    0.009845
-0.011267  0.00075039  -0.0044465   -0.073631    0.030308    0.050446    0.026085
0.0091954   0.0095202   0.0056225   -0.058365     0.12807    0.053044    0.032582
0.022837    0.016991    0.017316   -0.042449     0.19369     0.05272    0.028684
0.025761    0.022837    0.025436   -0.030431     0.23071    0.045574    0.018615
0.019589    0.025111    0.024137   -0.023285     0.24143    0.033231    0.009845
0.0091954     0.02641    0.016341   -0.017439     0.22812    0.019264   0.0046481
-0.0011985     0.02641   0.0072465  -0.0060706     0.19206   0.0036737   0.0049729
-0.0073698    0.027709   0.0026992    0.011794     0.14237   -0.014516     0.01017
-0.0093186    0.029983   0.0026992    0.031932     0.09462   -0.037577    0.018615
-0.011267     0.03518    0.003024    0.050121    0.061814   -0.055766    0.026735
-0.015815    0.039727 -0.00022403    0.059216    0.047198   -0.063237    0.033881
-0.018413    0.039402  -0.0041217     0.06019    0.050121   -0.061288    0.042001
-0.013866    0.033231   -0.007045    0.058241    0.058891   -0.060313     0.05142
-0.0034721    0.024137  -0.0054209    0.055643    0.048822   -0.069083    0.057592
0.011144    0.015692  -0.0018481    0.050121  0.00075039   -0.092794    0.054668
0.026735   0.0088706   0.0023744    0.042326   -0.078827     -0.1282    0.041676
0.038753   0.0049729    0.003024    0.037129    -0.15808     -0.1636    0.023162
0.043625   0.0033489  -0.0011985    0.036804    -0.19998    -0.18601   0.0059473
0.039727   0.0026992  -0.0044465    0.040052    -0.18439    -0.19219  -0.0050961
0.031932   0.0062721  -0.0034721    0.043625    -0.11456    -0.18017  -0.0083442
0.028034    0.013743 -0.00054884    0.046223  -0.0093186    -0.15516  -0.0089938
0.030308    0.021213   0.0033489    0.048822     0.10599    -0.12333   -0.010618
0.033881    0.025436   0.0036737    0.054019     0.20765   -0.087597   -0.008669
0.036804    0.026735   0.0043233    0.059865     0.27846   -0.053817  -0.0037969
0.033231    0.022837   0.0072465    0.062464     0.31386   -0.022961   0.0020496
0.020239    0.012768   0.0085458    0.062789     0.31484   0.0085458   0.0065969
-0.0024977  -0.0037969   0.0049729    0.064413     0.28431    0.037129   0.0069217
-0.03238    -0.02426  -0.0047713    0.065712     0.23136    0.060515   0.0043233
-0.065186   -0.045697   -0.014516    0.063438      0.1651    0.071558   0.0026992
-0.092794   -0.059989    -0.01614    0.054668    0.090397    0.067661   0.0075714
-0.10546   -0.060963  -0.0099683    0.042975   0.0095202    0.047847    0.013743
-0.10384   -0.047971   0.0023744    0.033556   -0.076229    0.015367    0.016341
-0.092794   -0.025884    0.014068    0.025761    -0.15191   -0.018413    0.014068
-0.077853   -0.007045    0.021863    0.019914    -0.19024   -0.039201    0.011144
-0.062912   0.0017248    0.025111    0.015692    -0.17497     -0.0405   0.0091954
-0.053492 -0.00087364    0.020239    0.013418    -0.10514   -0.028157    0.009845
-0.04992   -0.013541   0.0059473    0.012768   0.0088706  -0.0080194   0.0075714
-0.052193    -0.03173    -0.01549    0.011469     0.14302    0.014392  -0.0011985
-0.054792   -0.051868   -0.037577    0.009845     0.26872    0.030633    -0.01484
-0.054142    -0.06551   -0.052843   0.0078962     0.36194    0.038428   -0.030106
-0.046671    -0.06551   -0.056741    0.008221     0.41163    0.040702   -0.039851
-0.031406   -0.052518   -0.049595    0.011469      0.4191    0.044599   -0.041475
-0.0067202   -0.031406   -0.035303    0.017316     0.39279    0.054993   -0.034654
0.02641   -0.007045   -0.020687    0.023487     0.33887    0.073507   -0.021337
0.061814    0.015042  -0.0096434    0.028684     0.26904    0.097218  -0.0024977
0.088773    0.031607  -0.0021729    0.035505     0.19661     0.12288    0.018615
0.10306    0.039727   0.0046481    0.042326      0.1297     0.14334    0.039402
0.10177    0.044275    0.012443    0.046223    0.066686     0.15633    0.057592
0.0865    0.042651    0.017965    0.042651   0.0059473     0.15861     0.06896
0.063763    0.033556     0.01829    0.033556   -0.049595     0.14854    0.072533
0.044275    0.018615    0.010819     0.01829    -0.10026     0.12613    0.069934
0.032582   0.0023744  -0.0021729  0.00042559    -0.14964    0.096244    0.064088
0.033231  -0.0083442   -0.016789  -0.0089938    -0.20453    0.066686    0.058566
0.0433   -0.010293   -0.030431  -0.0089938    -0.26916    0.044275    0.055643
0.059541  -0.0037969   -0.037902  -0.0015233    -0.34127    0.034855     0.05207
0.07708   0.0059473   -0.039201   0.0069217    -0.40493    0.033881    0.045249
0.087149    0.015042   -0.033679    0.010495    -0.43774    0.032582    0.037454
0.083901    0.022512   -0.019063   0.0088706    -0.41403    0.023487    0.030633
0.067661    0.028684  -0.0021729   0.0033489    -0.32048   0.0052977    0.024786
0.044275    0.034855     0.01017  -0.0021729    -0.15743    -0.01614    0.016341
0.022837    0.038103    0.015042  -0.0034721    0.054344   -0.039201   0.0062721
0.0072465     0.03518    0.011469   0.0023744     0.27846   -0.059664  -0.0067202
0.0017248    0.025436  0.00075039    0.013093     0.48049   -0.072331   -0.022961
0.0023744    0.013093   -0.013866    0.023812      0.6416   -0.076229   -0.038876
0.0049729   0.0026992   -0.024909    0.028034     0.74553    -0.06616   -0.048945
0.0075714  -0.0021729   -0.030756    0.028359     0.78581   -0.050894   -0.051868
0.0072465  -0.0021729    -0.03173     0.02641     0.76989   -0.039526   -0.050244
0.0059473 -0.00054884   -0.031406    0.028034      0.7202   -0.036278   -0.044723
0.003024  0.00010078   -0.028157    0.030957     0.65621   -0.042449   -0.037577
0.0010752 -0.00054884   -0.022961    0.031932     0.57826   -0.056091   -0.032705
0.003024 -0.00054884   -0.019388    0.028359      0.4675   -0.076229    -0.03238
0.0095202      0.0014   -0.019063    0.022188     0.32101   -0.098641   -0.036602
0.016666   0.0059473   -0.020037    0.016341     0.16608    -0.11683   -0.042774
0.021863    0.013418   -0.017439    0.011144    0.047198    -0.12463   -0.048296
0.027385    0.019589  -0.0076946   0.0072465   -0.011267    -0.12138   -0.046347
0.03583    0.020239   0.0062721   0.0059473   -0.019063    -0.10676   -0.036927
0.044599    0.016016    0.021538   0.0078962  -0.0041217    -0.08305    -0.02361
0.050771   0.0085458     0.03518    0.012768   0.0049729   -0.051219   -0.013541
0.05272   0.0036737    0.046548     0.01894  -0.0057458   -0.018738   -0.008669
0.045574  0.00010078    0.055968    0.025436   -0.038551   0.0065969   -0.010618
0.032906   0.0010752    0.062789    0.030308    -0.08305    0.023487   -0.013866
0.02706   0.0033489    0.067986    0.031932    -0.12463    0.032257   -0.012892
0.030308   0.0049729    0.070584    0.027709    -0.15418    0.030633   -0.008669
0.04395   0.0056225    0.069934     0.01764    -0.16588    0.016666   -0.007045
0.061165   0.0065969    0.065712   0.0010752    -0.16295  -0.0089938  -0.0096434
0.072858    0.008221    0.059541   -0.016464    -0.15029   -0.039526   -0.014516
0.072858    0.013418    0.053369   -0.027833    -0.13015    -0.06681    -0.01614
0.06084    0.017965    0.046548   -0.028807    -0.10741   -0.086948   -0.013216
0.039727    0.024786    0.042651   -0.021661   -0.086623   -0.098316  -0.0047713
0.015367    0.033881    0.039402   -0.013541    -0.07493   -0.099615   0.0065969
-0.0073698    0.040702     0.03583  -0.0096434   -0.080127   -0.093769    0.016666
-0.021986    0.042001    0.031282  -0.0080194    -0.10968   -0.080776    0.022188
-0.027508    0.037778    0.026735  -0.0034721    -0.16588   -0.064211    0.025111
-0.024909    0.034206    0.022837   0.0065969    -0.24773   -0.048296    0.031932
-0.016789    0.032257    0.023162    0.017316    -0.34842   -0.034004    0.042001
-0.0083442    0.029333    0.023487    0.025761    -0.45008   -0.022311    0.048822
-0.0054209    0.020888    0.021538     0.02641    -0.53583   -0.016464    0.045899
-0.012567   0.0049729    0.017316    0.016666    -0.60956   -0.019388    0.030308
-0.024585   -0.014191    0.013093   0.0010752    -0.68005   -0.027833   0.0069217
-0.034329   -0.028157   0.0059473   -0.013866    -0.74208    -0.04115   -0.016464
-0.037577   -0.034004  -0.0031473   -0.022636    -0.77489   -0.056416   -0.034654
-0.029132   -0.029132  -0.0096434   -0.023935     -0.7528   -0.069733   -0.044073
-0.01549   -0.018088   -0.012567   -0.020037    -0.66543   -0.073955   -0.045047
-0.00054884  -0.0011985  -0.0063954   -0.011917    -0.53811   -0.067784   -0.038551
0.01017    0.016991   0.0069217  -0.0018481    -0.41208   -0.053817   -0.030431
0.014392    0.033231    0.021538   0.0075714    -0.32016   -0.031081   -0.022636
0.012443    0.041027    0.031607    0.011794    -0.27534  -0.0047713   -0.017114
0.0036737    0.039402    0.034855    0.013743    -0.26689     0.01894   -0.014191
-0.010293    0.032582    0.033556    0.014717    -0.27436    0.032257   -0.013216
-0.021661    0.026735    0.029983    0.014068    -0.27664     0.03518  -0.0083442
-0.025559    0.026085    0.021213    0.012119    -0.26169     0.03583    0.003024
-0.021986    0.030633    0.008221   0.0078962    -0.22759    0.034855    0.012119
-0.013216    0.037129  -0.0041217  0.00010078    -0.18244    0.032906    0.011794
-0.0057458    0.037778   -0.014516  -0.0044465    -0.13762    0.031282   0.0020496
-0.0047713    0.030957   -0.021986  -0.0028225   -0.093119    0.031607  -0.0096434
-0.0093186    0.020888   -0.025884   0.0033489   -0.042774    0.031932   -0.015815
-0.0093186    0.014068   -0.025559   0.0091954    0.022512    0.029333   -0.013541
-0.0018481    0.014068   -0.022636    0.011794     0.10469    0.021863  -0.0054209
0.008221     0.01894   -0.020037   0.0088706      0.2057     0.01017   0.0026992
0.015042    0.024786   -0.021012      0.0014     0.32296  -0.0024977   0.0069217
0.016666    0.029333   -0.025559   -0.010618     0.43469    -0.01614   0.0033489
0.0095202    0.026735   -0.028807   -0.025559     0.49965    -0.03173  -0.0050961
-0.0050961    0.015692   -0.028157   -0.040825     0.48082   -0.052193   -0.012567
-0.023285  -0.0018481   -0.022961   -0.048296      0.3772   -0.073306   -0.012892
-0.039201   -0.019063    -0.01484   -0.043748     0.23656   -0.090845  -0.0063954
-0.048296   -0.029132   -0.011592   -0.027508     0.13392    -0.10254   0.0036737
-0.049595   -0.026209   -0.016464  -0.0093186     0.11118    -0.10709    0.015042
-0.044073   -0.013216   -0.027833   0.0046481     0.16153    -0.10221    0.021538
-0.037577    0.003024   -0.038876    0.011144     0.24208     -0.0837    0.022837
-0.030756    0.014392   -0.042774    0.012768     0.31289   -0.056741    0.019264
-0.022961    0.014068   -0.042774    0.012119     0.35219   -0.028157    0.013418
-0.013541      0.0014   -0.039526   0.0075714     0.35512   0.0017248    0.009845
0.0026992   -0.017439   -0.034978  -0.0011985     0.33043    0.031607     0.01017
0.022512   -0.035953   -0.027508   -0.010293     0.28593    0.063763    0.014717
0.042326   -0.046022   -0.015815    -0.01484     0.23039    0.092671    0.020888
0.056292   -0.038227  -0.0015233   -0.011267     0.16738     0.11183    0.025111
0.058891   -0.013216    0.010819  -0.0018481     0.10112     0.11963    0.025761
0.044599    0.017965    0.019264   0.0065969     0.03518     0.11703    0.022512
0.019589    0.039078    0.022512    0.009845   -0.021986     0.11346    0.017316
-0.0044465    0.044599    0.019589   0.0046481    -0.06551     0.11411    0.012443
-0.023935    0.039402    0.017316  -0.0060706   -0.096042     0.11931    0.012443
-0.034329    0.032257    0.017965   -0.017439    -0.11293     0.12353    0.020888
-0.032055    0.023812    0.024786   -0.020037    -0.11618     0.12255     0.03583
-0.021337    0.013093     0.03518   -0.013866    -0.10351     0.11443    0.053044
-0.0060706  -0.0028225    0.045899  -0.0011985   -0.075255     0.10274    0.067011
0.0039985   -0.017114     0.05142    0.015692   -0.037902    0.087474    0.074806
0.0059473   -0.026533    0.047523    0.031282   0.0091954    0.067986    0.075456
0.0023744   -0.025884    0.033556    0.041351    0.081952    0.044599    0.071234
-0.0050961    -0.01614    0.014717    0.040702     0.20473    0.019589    0.063113
-0.012567 -0.00022403 -0.00087364    0.035505      0.3837  -0.0041217    0.051745
-0.019063     0.01764  -0.0093186    0.029658     0.59125   -0.027508    0.038428
-0.025559    0.032582   -0.013866    0.028034      0.7673   -0.049595     0.02706
-0.034004    0.039727   -0.018088    0.030633     0.85045   -0.067459    0.019589
-0.046671    0.039078   -0.021986    0.038753      0.8092   -0.079152    0.015692
-0.062587    0.032906   -0.021661    0.049472     0.64842   -0.084674    0.012443
-0.07428    0.023487   -0.019712    0.056942     0.41261   -0.084024   0.0085458
-0.076229    0.013093   -0.020362    0.057267     0.15633   -0.081426   0.0091954
-0.062262   0.0056225   -0.019063    0.050121   -0.081751   -0.072331    0.015042
-0.036278   0.0036737  -0.0099683    0.041027      -0.288   -0.054792    0.022188
-0.0073698   0.0075714   0.0095202    0.037778    -0.46632   -0.030756     0.02706
0.01829    0.014392     0.03453    0.042651     -0.6232  -0.0031473    0.034206
0.039402    0.023812    0.054344     0.05142     -0.7593    0.022837    0.039727
0.059541    0.029009    0.058891    0.054344    -0.86096    0.041676    0.039727
0.081303    0.024461    0.040377    0.047198    -0.90546    0.048822    0.033881
0.10079   0.0056225   0.0062721    0.029658    -0.87753    0.043625    0.023162
0.11411   -0.023285   -0.028157   0.0075714    -0.77359    0.028684    0.012119
0.12125    -0.04992   -0.052193   -0.011592    -0.59722     0.01017   0.0052977
0.12483   -0.062912   -0.059989   -0.025884    -0.37343  -0.0054209   0.0039985
0.12353   -0.057065   -0.053492   -0.032705    -0.13502   -0.013866    0.013093
0.11671   -0.036927   -0.040825   -0.034004    0.084876   -0.013216    0.028684
0.10599  -0.0076946   -0.026533   -0.030431     0.26872  -0.0018481    0.046873
0.090397    0.024786   -0.013866   -0.022311     0.40579    0.018615    0.061489
0.06896    0.051745  -0.0021729   -0.011917     0.48991    0.041676    0.064413
0.044924    0.070909    0.010819  -0.0011985     0.51687    0.057917    0.056942
0.019589     0.07773     0.02706   0.0059473     0.49381    0.063763    0.041351
-0.0041217    0.072533    0.042001    0.013743     0.43827    0.059865    0.021213
-0.022636    0.058566    0.048822    0.023162     0.36421    0.049796   0.0023744
-0.032705    0.038103    0.044599    0.034855     0.27521    0.037129   -0.010943
-0.037577    0.015367    0.030308    0.044275     0.16445    0.017965   -0.017114
-0.037902  -0.0054209    0.011144    0.050446     0.02706  -0.0021729   -0.014516
-0.034654   -0.020687  -0.0057458     0.05142    -0.13599   -0.018738  -0.0041217
-0.027183   -0.028157   -0.012892    0.046548    -0.33283    -0.03303   0.0056225
-0.019063   -0.031406   -0.014191    0.036479    -0.57253   -0.053168   0.0075714
-0.017114   -0.033354   -0.010943    0.021863     -0.8353   -0.082076  0.00075039
-0.018413   -0.032705  -0.0089938   0.0088706     -1.0594    -0.11098   -0.013541
-0.019063   -0.028807   -0.011917 -0.00087364     -1.1802    -0.13047   -0.027508
-0.01549   -0.021661   -0.020687  -0.0041217      -1.165    -0.14119   -0.039851
-0.0073698   -0.011267   -0.028807  -0.0047713     -1.0188    -0.14281   -0.045372
0.0062721  0.00075039   -0.036602  -0.0034721    -0.78528    -0.13372   -0.043099
0.023487    0.014392   -0.041475  -0.0037969    -0.52706    -0.11228   -0.036602
0.037454     0.02706   -0.042449  -0.0024977    -0.30749   -0.080127   -0.027508
0.03518    0.037778   -0.037902   0.0023744    -0.17952   -0.043748   -0.019063
0.014392    0.046873   -0.029132    0.008221    -0.18179  -0.0096434   -0.011917
-0.017114    0.055318   -0.018413    0.014717    -0.31139    0.013743  -0.0054209
-0.046996    0.064088   -0.007045    0.019914    -0.49848    0.023487 -0.00022403
-0.06551    0.070584   0.0039985    0.022512    -0.63555     0.01829  0.00042559
-0.067784    0.072208     0.01017    0.019264    -0.64204  -0.0034721  -0.0063954
-0.056741    0.069285    0.013093     0.01017    -0.50627   -0.037252    -0.01549
-0.039851    0.061814    0.013743  -0.0011985    -0.27306   -0.077203    -0.02361
-0.02426    0.049472    0.012768   -0.013216   -0.011267    -0.11326   -0.029457
-0.013866    0.031282    0.008221   -0.020687      0.2174    -0.13534   -0.034654
-0.0073698   0.0075714   0.0017248   -0.023285     0.38175    -0.14541   -0.038551
-0.00022403    -0.01549  -0.0073698   -0.024909     0.48017    -0.14801   -0.043423
0.0091954   -0.034654   -0.013866   -0.030756     0.52726    -0.15516   -0.051219
0.01829   -0.047321   -0.017764   -0.044723      0.5435    -0.16815   -0.060638
0.021213   -0.055441   -0.019712   -0.062587     0.54285    -0.18342   -0.073955
0.015042   -0.057715   -0.019388   -0.075579     0.52629    -0.19543   -0.084024
0.0036737   -0.057715   -0.018738   -0.078503     0.49316    -0.19641   -0.087597
-0.0037969   -0.059014    -0.01614   -0.070382     0.44281    -0.18277   -0.084024
-0.0028225   -0.059664   -0.012242   -0.052193     0.39149    -0.15321   -0.075579
0.0069217   -0.060963   -0.007045   -0.031081     0.35252    -0.11066   -0.061937
0.024137   -0.063561  -0.0041217   -0.015815      0.3366   -0.065186   -0.045697
0.042651   -0.064536  -0.0083442   -0.012567     0.34927   -0.021337   -0.034978
0.057592   -0.060313   -0.020687   -0.018413     0.39019    0.017965   -0.032705
0.066362   -0.046671   -0.031081   -0.026209     0.45191     0.05207   -0.037577
0.064737   -0.027508   -0.034654   -0.025559     0.52564    0.078704   -0.042124
0.055643  -0.0073698   -0.029782   -0.011917     0.59872    0.098842   -0.034329
0.038103     0.01017   -0.021337   0.0095202     0.65166     0.11411   -0.012567
0.011144    0.025111   -0.015165    0.025436     0.66661     0.12743    0.013743
-0.021012    0.034206   -0.011592    0.030957     0.63867     0.13912    0.032257
-0.055441     0.03583   -0.013866    0.024786     0.57339     0.15179     0.03518
-0.088247    0.032582   -0.020687    0.012768     0.48569     0.16705    0.029983
-0.11456    0.031607   -0.026209   0.0039985     0.39994     0.18654    0.025436
-0.12625    0.033881   -0.027508   0.0052977      0.3431      0.2057    0.026735
-0.11813    0.037129   -0.021661    0.016341     0.32426     0.21675    0.030308
-0.098641    0.038103   -0.013216    0.028684     0.33238     0.21285    0.032906
-0.082076    0.030957  -0.0083442    0.032257     0.34797     0.19628    0.033881
-0.072981    0.014392  -0.0083442    0.024461     0.35382     0.17517    0.032582
-0.068434   -0.007045  -0.0093186    0.015042      0.3379     0.15536    0.030633
-0.064536   -0.026858  -0.0057458    0.013743     0.29568     0.13652    0.030308
-0.057715   -0.037252   0.0033489    0.024461     0.23039     0.11931     0.03583
-0.046347    -0.03173    0.012443    0.042975     0.15081     0.10501    0.050121
-0.031406   -0.012242    0.013743    0.059541    0.074157     0.09462    0.070909
-0.017114   0.0095202   0.0062721    0.070259    0.012768    0.087149    0.088448
-0.0050961     0.02706  -0.0024977    0.074157   -0.028482    0.083251    0.095594
0.0075714    0.034206  -0.0063954    0.075781   -0.059339    0.077405    0.091696
0.017965    0.030308   -0.007045     0.07708   -0.084999    0.067661    0.081627
0.021538    0.016341  -0.0063954    0.075131    -0.10059    0.050121     0.06961
0.017965  -0.0044465  -0.0057458    0.069285   -0.084999     0.02641     0.06019
0.013093   -0.022636  -0.0050961    0.062464   -0.025234   0.0033489    0.053044
0.01017    -0.03173  -0.0034721    0.058241    0.076755   -0.010618    0.049147
0.0085458   -0.032705   0.0010752    0.058891     0.20116   -0.017764    0.046223
0.0059473   -0.028482    0.013743    0.064088     0.31744   -0.017764     0.04395
0.0014   -0.021986    0.030957    0.072858     0.39637  -0.0083442     0.04395
-0.0021729   -0.013541    0.044599    0.081952     0.41131    0.013418    0.048172
-0.0028225  -0.0011985    0.050121    0.088124     0.35966    0.042001    0.055643
-0.0031473    0.014717    0.046548    0.087149     0.25995    0.065712    0.064088
-0.0021729    0.024786    0.038428    0.081303     0.15081    0.080978    0.066686
0.0023744    0.024786    0.029009    0.073507    0.065062      0.0865     0.06019
0.012768    0.013743    0.015367    0.066686    0.024461    0.085525    0.047523
0.026085  -0.0044465  0.00010078    0.057267    0.029658    0.081303    0.036479
0.041351   -0.022961    -0.01549    0.042651    0.065387    0.074806    0.028359
0.056942   -0.034654   -0.023935    0.027385     0.11248    0.069285    0.020888
0.067986   -0.038876    -0.02361    0.012443     0.15633    0.068635    0.013093
0.06831   -0.036602   -0.017764 -0.00054884     0.18134    0.072533      0.0014
0.061489   -0.027183  -0.0096434  -0.0076946     0.17842    0.081303   -0.010943
0.051745  -0.0096434   0.0010752  -0.0057458     0.14529    0.092996   -0.019388
0.0433    0.015042    0.015042   0.0039985    0.086175     0.10501   -0.023285
0.035505    0.044599    0.028359    0.016666  -0.0018481     0.11118   -0.023285
0.028034    0.072208    0.037454    0.029983    -0.11423     0.11086   -0.019712
0.019589    0.089748    0.039078    0.037129    -0.23571     0.10274   -0.013866
0.008221    0.092671    0.037778    0.033231    -0.34582    0.084876  -0.0031473
-0.0067202    0.079679    0.037129    0.025111    -0.44261    0.057267   0.0091954
-0.018088    0.057917    0.035505    0.016666    -0.52998    0.016341     0.01829
-0.023285    0.031932    0.031607    0.009845    -0.61086   -0.028157    0.021538
-0.021012   0.0095202    0.022837   0.0049729    -0.67972   -0.064861    0.020239
-0.013866  -0.0031473    0.014068   0.0023744    -0.73039   -0.087922    0.015692
-0.0037969  -0.0044465   0.0088706   0.0026992    -0.75865   -0.096042    0.012119
0.0062721      0.0014   0.0078962   0.0065969    -0.77002   -0.097017   0.0095202
0.015367     0.01017    0.008221     0.01017    -0.78528   -0.097991    0.010819
0.020564    0.017316   0.0075714   0.0072465     -0.8457    -0.10546    0.013093
0.022188    0.022188   0.0052977  -0.0047713    -0.99576    -0.12235    0.014717
0.020564    0.024786    0.003024   -0.020687     -1.2407    -0.14574    0.017965
0.021538    0.026085  0.00010078   -0.029132     -1.5167     -0.1688    0.020888
0.023812    0.028359   0.0020496   -0.026533     -1.7162    -0.18991    0.019914
0.028359     0.03518   0.0062721   -0.015815     -1.7422      -0.212    0.013418
0.032582    0.042326   0.0095202  -0.0083442     -1.5479    -0.23311  -0.0011985
0.036479    0.048172   0.0069217  -0.0067202     -1.1559    -0.25098    -0.02361
0.038428    0.051096   0.0033489   -0.011267    -0.63717    -0.25877   -0.046671
0.037778    0.051096   0.0017248   -0.016789   -0.094418    -0.25487   -0.062912
0.030633    0.050771   0.0065969   -0.018413     0.37006    -0.24091   -0.065186
0.019264    0.049147    0.016666    -0.01614     0.67895    -0.21785   -0.054142
0.0091954    0.046223     0.02641  -0.0080194     0.81342    -0.18764   -0.036927
0.00075039     0.04395    0.030633    0.003024     0.80205    -0.15451   -0.024909
-0.0015233    0.042001    0.029009    0.013093     0.69551    -0.12657   -0.020362
0.0033489     0.03583    0.024461    0.013743     0.55195    -0.10579   -0.022311
0.011794    0.025111    0.020239   0.0069217     0.41553   -0.096367   -0.025884
0.018615    0.015367    0.017965  -0.0037969     0.30672   -0.096367   -0.031081
0.01894    0.011794     0.01764    -0.01549     0.22779    -0.10221   -0.033679
0.015692    0.015367    0.020239   -0.024585     0.17452    -0.10644   -0.032705
0.013418    0.022188    0.020888   -0.025884     0.13814    -0.10546   -0.024585
0.014392    0.025111    0.020239   -0.017764     0.11476    -0.10156   -0.013216
0.016341    0.023162    0.019914  -0.0015233     0.10404   -0.094418  -0.0021729
0.019914    0.016991    0.019264     0.01894     0.10436   -0.085324   0.0023744
0.024461   0.0091954    0.018615    0.034855     0.11346   -0.071032  0.00042559
0.027709  0.00010078    0.013743    0.038428      0.1297   -0.053817  -0.0047713
0.026085   -0.012242    0.003024    0.033231     0.15146   -0.037252   -0.011592
0.021213   -0.024585   -0.011267    0.023812     0.17517   -0.023935    -0.01614
0.014392   -0.033354   -0.024585    0.015042     0.19693    -0.01484   -0.017114
0.0085458   -0.034654   -0.030431   0.0046481     0.20798  -0.0089938   -0.013216
0.0059473   -0.026533   -0.029782  -0.0060706     0.20733  -0.0024977  -0.0054209
0.0062721   -0.008669   -0.023285   -0.015815     0.19499   0.0046481   0.0052977
0.0062721     0.01764   -0.010943   -0.017439     0.17745    0.013743    0.015367
-0.0021729    0.041027   0.0052977   -0.011917     0.16121    0.026735    0.021538
-0.013216    0.051745     0.01829  -0.0018481     0.15114    0.039727    0.023812
-0.020362    0.044275     0.02641   0.0088706     0.14886    0.048172    0.021863
-0.018413    0.023162    0.029658    0.016016     0.15179    0.053369     0.01764
-0.0073698  -0.0015233    0.028359    0.016991     0.15601    0.052395    0.010495
0.010819   -0.018088    0.026735    0.012443     0.16315    0.046873      0.0014
0.032582   -0.018738    0.022837   0.0056225     0.17582    0.039402  -0.0041217
0.053369  -0.0057458     0.01829    0.003024     0.20018    0.038428  -0.0054209
0.072858    0.011469    0.010495   0.0049729     0.23818    0.046223  -0.0031473
0.085525    0.026085  -0.0011985    0.010819     0.28691     0.06084  -0.0050961
0.092671    0.034206   -0.014191    0.015042     0.33952    0.078055   -0.011917
0.092346    0.033881   -0.021012    0.016666     0.38597    0.091696   -0.020037
0.082277    0.026735   -0.022311    0.017965     0.41456    0.097218   -0.022636
0.056617    0.015367   -0.017114    0.019914     0.40936    0.094945   -0.018738
0.022188   0.0039985   -0.011592    0.021538     0.35966    0.084876   -0.011592
-0.01484  -0.0024977  -0.0089938    0.019914     0.27294    0.067011  -0.0067202
-0.043099  -0.0031473  -0.0093186    0.022837      0.1651    0.048497  -0.0073698
-0.05739  -0.0018481   -0.010943    0.031607    0.063763    0.032906   -0.012242
-0.057715  0.00075039   -0.012892    0.041027   -0.007045    0.020888    -0.01484
-0.048945   0.0059473   -0.016789    0.045574   -0.042124    0.014068   -0.015815
-0.038227    0.011144   -0.020037    0.043625   -0.052843    0.014068   -0.016464
-0.031406    0.013418   -0.020687    0.036154   -0.060963     0.01764   -0.017439
-0.030431   0.0078962   -0.019712    0.025761   -0.085973    0.026735   -0.019712
-0.035628  -0.0060706   -0.021012    0.012768    -0.13567     0.03583   -0.022961
-0.042449   -0.025559    -0.02426  -0.0034721    -0.19673    0.041027   -0.025884
-0.04927   -0.043748   -0.027833   -0.021012    -0.25195    0.041676   -0.028482
-0.053817    -0.05804   -0.030756    -0.03303    -0.28053    0.041676   -0.032055
-0.051868    -0.06551   -0.032055   -0.035628    -0.27209    0.042651   -0.031081
-0.043748   -0.068434   -0.030431   -0.031406    -0.22467    0.045249   -0.025234
-0.033354   -0.065186   -0.026209   -0.025559    -0.13794    0.046548    -0.01549
-0.023935   -0.053168   -0.022311   -0.020037   -0.018413    0.045249  -0.0054209
-0.01549   -0.030431   -0.018088    -0.01484     0.12645    0.042326   0.0046481
-0.0099683 -0.00022403   -0.013216  -0.0089938     0.28918    0.039402    0.016666
-0.007045    0.030308  -0.0057458  -0.0031473     0.45353    0.036154    0.030308
-0.0076946    0.052395   0.0033489   0.0049729      0.5945    0.037778    0.043625
-0.008669    0.063113    0.013418    0.010819     0.69324    0.045899    0.056617
-0.0099683    0.065387    0.019264    0.013418     0.73644    0.053044    0.063763
-0.013541    0.063763    0.015692    0.012119     0.72117     0.05272    0.062789
-0.018413    0.058891   0.0052977   0.0056225     0.64582      0.0433    0.053694
-0.020037    0.049472  -0.0034721  0.00042559     0.51427    0.029333    0.040377
-0.013866    0.039078 -0.00054884 -0.00022403     0.33693    0.010495    0.027709
-0.00054884    0.029333    0.012443   0.0052977      0.1232  -0.0080194    0.016016
0.013418    0.024786    0.027385    0.013418    -0.11683   -0.028157   0.0052977
0.022188    0.025761    0.041027    0.021863    -0.36173   -0.048296 -0.00087364
0.024786    0.031932    0.048822    0.030633     -0.5891    -0.06551  0.00010078
0.022837    0.038103     0.05142    0.037129    -0.78593   -0.078178   0.0085458
0.018615    0.039402    0.048172    0.041676    -0.94801   -0.089221    0.020888
0.012443    0.032582    0.040702    0.042975     -1.0669    -0.10189     0.03518
0.0052977    0.021863    0.032906    0.039402     -1.1192    -0.11261    0.042975
-0.0083442   0.0062721    0.028034    0.032257     -1.0867    -0.12203    0.041676
-0.025559   -0.010618     0.02641    0.023812    -0.96003    -0.12982    0.032906
-0.040175    -0.02426     0.02641    0.016341    -0.75508    -0.13534    0.022512
-0.045372   -0.031081    0.028034    0.011794    -0.50433    -0.13502    0.016341
-0.042124   -0.031081    0.029333   0.0075714    -0.25845     -0.1269    0.011469
-0.029782   -0.027833    0.027709   0.0026992   -0.072981    -0.11196    0.009845
-0.013541   -0.025234     0.01894  -0.0060706    0.019264   -0.091495    0.009845
0.0062721   -0.024909   0.0052977   -0.017114     0.01829   -0.065835   0.0088706
0.027385   -0.026858  -0.0099683   -0.027508   -0.058689   -0.039851   0.0075714
0.042001   -0.029457   -0.026209   -0.038551    -0.19056   -0.016789   0.0059473
0.048822   -0.029782   -0.036927   -0.047971    -0.35329   0.0020496   0.0085458
0.050446   -0.023935   -0.038227   -0.051544    -0.52446    0.024786    0.019589
0.048172   -0.011592   -0.029132   -0.045047    -0.68264    0.053369     0.03518
0.041351   0.0020496    -0.01549   -0.034654    -0.80997    0.083251    0.046873
0.029009    0.014068  -0.0044465   -0.024909    -0.87753     0.10339    0.050121
0.010819    0.022837   0.0017248   -0.021337    -0.86259     0.10859      0.0433
-0.01484     0.02641  0.00075039   -0.023285    -0.76157    0.099167    0.027385
-0.047646    0.026085  -0.0047713    -0.03238     -0.5891    0.079354   0.0091954
-0.080451    0.020888   -0.012892   -0.044398    -0.37148    0.059216  -0.0067202
-0.10741    0.011144   -0.021337   -0.054467    -0.13957    0.044924   -0.017439
-0.1217 -0.00054884   -0.027833   -0.057065    0.079354    0.041676   -0.020687
-0.11488  -0.0099683   -0.030431   -0.052518     0.25767    0.048497   -0.018413
-0.086298   -0.013866   -0.029457   -0.044398      0.3785    0.063113   -0.013866
-0.040825   -0.014191   -0.026209   -0.034329     0.44184    0.080653  -0.0067202
0.0046481   -0.015165   -0.023935   -0.022311      0.4597    0.097543  -0.0018481
0.040052   -0.016464   -0.024585  -0.0099683     0.45126     0.11151  -0.0015233
0.062789   -0.014191   -0.025234 -0.00054884     0.43892     0.11833  -0.0031473
0.080978  -0.0044465   -0.020687   0.0026992     0.42982     0.11866  -0.0080194
0.097218    0.013093   -0.010293   0.0026992     0.42397     0.11054   -0.013541
0.11054     0.03583   0.0049729   0.0049729     0.41878    0.093645   -0.019712
0.11736     0.06019    0.020239   0.0095202     0.41293     0.06961    -0.02426
0.11508    0.079679    0.028034    0.016016     0.40416    0.040377   -0.026209
0.10274    0.089098    0.022837     0.01894     0.38987    0.012443   -0.029457
0.086175    0.081627   0.0069217    0.017316     0.37136  -0.0093186   -0.036278
0.070259    0.059541   -0.014191    0.013743     0.35154   -0.023935   -0.048945
0.06084     0.02641   -0.033354     0.01017     0.33173   -0.031406   -0.067784
0.063438   -0.007045   -0.045047   0.0069217     0.31354   -0.035628     -0.0837
0.078704   -0.033354    -0.04927   0.0072465     0.30542   -0.037252   -0.090521
0.096893    -0.04927   -0.046996    0.012768     0.31062   -0.034978   -0.084024
0.10794   -0.054792   -0.040825    0.022837     0.32686   -0.025559    -0.06616
0.10599   -0.057065   -0.032055    0.032906     0.34862  -0.0099683   -0.040175
0.084876   -0.055116   -0.018738    0.041027     0.36648    0.010819  -0.0093186
0.046223   -0.046022  -0.0015233    0.046873      0.3746     0.03518    0.022188
-0.0024977   -0.029782    0.017965    0.054344     0.36811    0.056617     0.05207
-0.052843  -0.0093186    0.031607    0.066037     0.35317    0.069285    0.073182
-0.094743    0.010495    0.036479    0.079679     0.33823     0.06896    0.079029
-0.11748    0.022188    0.031607    0.090397     0.33238    0.058891    0.070909
-0.12008    0.022512    0.023162     0.09462     0.34212    0.044924    0.055968
-0.10709    0.013743    0.015042    0.090397      0.3746    0.029983    0.036479
-0.085324  -0.0021729    0.009845    0.082602     0.42917    0.013093    0.011794
-0.060963   -0.019388   0.0026992    0.071558     0.49316 -0.00054884   -0.010293
-0.039201   -0.034978  -0.0076946    0.056292     0.53928   -0.010618   -0.025559
-0.023285     -0.0405   -0.021012    0.035505     0.54285   -0.019388   -0.030431
-0.011267    -0.03238    -0.03173    0.016016     0.49608   -0.024909   -0.027508
-0.0028225   -0.012892    -0.03303   0.0020496     0.40643   -0.028482   -0.021337
0.00075039    0.012443   -0.026209  -0.0018481     0.29405   -0.026533   -0.018738
0.00075039    0.034855   -0.017764  -0.0021729     0.18037   -0.023285   -0.021661
-0.0028225    0.046223   -0.012567  0.00075039    0.087474   -0.022961   -0.024909
-0.0063954    0.042651   -0.013216   0.0043233    0.028684   -0.021337   -0.022636
-0.0063954    0.029333   -0.019388    0.010495   0.0010752   -0.012892   -0.011917
0.0020496    0.016341   -0.027508    0.020888  -0.0037969   0.0036737   0.0072465
0.016991    0.011144    -0.03303    0.031282   0.0052977    0.027385     0.02641
0.031282    0.019589    -0.03238     0.03453    0.014392    0.049147    0.039078
0.039727    0.038103   -0.025559    0.025111   0.0033489     0.06084    0.042326
0.039402    0.059865   -0.017439    0.012119    -0.03303    0.061489    0.039402
0.03453    0.076431   -0.012892 -0.00022403   -0.083375    0.052395    0.034855
0.029983      0.0865   -0.013216  -0.0083442     -0.1243     0.03453    0.032582
0.028684    0.092346   -0.012892   -0.011917    -0.13859    0.016991    0.030957
0.031282    0.093645  -0.0099683  -0.0096434    -0.11618   0.0078962    0.029333
0.036154    0.089423  -0.0037969  -0.0047713   -0.052518   0.0078962    0.030957
0.040052    0.080003   0.0043233  0.00075039    0.040052    0.008221     0.03518
0.039078    0.065387    0.011144      0.0014     0.13684    0.003024    0.036804
0.031607    0.045574    0.013743  -0.0047713     0.20668  -0.0076946    0.036479
0.020888     0.02706    0.012119  -0.0089938     0.20863   -0.021986    0.040052
0.0062721     0.01017   0.0088706  -0.0060706     0.10047   -0.037902    0.049147
-0.0073698  0.00042559   0.0059473   0.0017248    -0.10838   -0.059989    0.057917
-0.018413  -0.0037969   0.0039985   0.0062721    -0.34744   -0.088896    0.058891
-0.029132  -0.0054209  0.00075039   0.0026992    -0.54005    -0.12235    0.049472
-0.038227  -0.0076946  -0.0044465   -0.010618    -0.65341    -0.15386    0.032257
-0.041799   -0.012242  -0.0076946   -0.028807     -0.7083    -0.18049    0.012768
-0.039851   -0.020687   -0.010618   -0.044723    -0.74338    -0.19901  -0.0015233
-0.034978   -0.029782  -0.0096434   -0.051219    -0.78106    -0.21102   -0.007045
-0.034329   -0.036602  -0.0073698   -0.047971    -0.81582    -0.21817  -0.0054209
-0.037252   -0.037902  -0.0037969   -0.037902    -0.83433    -0.22239 -0.00022403
-0.040825   -0.034654   0.0010752   -0.023935    -0.82296    -0.22174   0.0046481
-0.045372   -0.029457   0.0091954  -0.0057458    -0.77034     -0.2133   0.0059473
-0.050569    -0.02361    0.015692    0.015692    -0.66868    -0.19803   0.0052977
-0.057065   -0.019063    0.016341    0.037129    -0.51634    -0.17789   0.0052977
-0.063237   -0.013866    0.014717    0.054344    -0.32666    -0.15841    0.008221
-0.067459  -0.0080194    0.013093    0.064088     -0.1256    -0.13827    0.012443
-0.068109 -0.00087364    0.012768    0.063763    0.049472    -0.11943    0.016341
-0.062587   0.0072465    0.017316    0.053369      0.1638    -0.10059    0.016991
-0.053817    0.012443    0.026735    0.036479      0.2057     -0.0824    0.015042
-0.048296    0.014392    0.037454    0.016341     0.19271   -0.068109    0.011794
-0.047646     0.01017    0.042651 -0.00022403     0.15114    -0.05739    0.010495
-0.046996   0.0017248    0.039727  -0.0080194     0.10501   -0.050894    0.012443
-0.047971  -0.0076946    0.029658  -0.0050961    0.065712   -0.044398    0.017965
-0.050244   -0.015165     0.01894   0.0036737    0.033556   -0.035303    0.024786
-0.056741   -0.018738   0.0095202    0.014717   0.0046481   -0.022961    0.030633
-0.062912   -0.019063   0.0026992    0.021213   -0.018413  -0.0099683    0.036154
-0.062587   -0.019712 -0.00022403    0.022837   -0.031406 -0.00054884    0.037454
-0.052843   -0.020687   0.0033489    0.017965   -0.032705   0.0043233    0.033231
-0.035303   -0.022311    0.014717    0.011144   -0.024585    0.010495    0.026735
-0.010943    -0.02426    0.029658   0.0085458  -0.0099683    0.019589    0.022188
0.014068   -0.027508    0.039727    0.013093   0.0056225    0.029009    0.019914
0.031282   -0.029457    0.041676    0.023487    0.020564     0.03453    0.020888
0.039078   -0.026533    0.039402    0.031282    0.031607     0.03583    0.025436
0.040377   -0.020362     0.03453    0.032582    0.038428     0.03583    0.032906
0.042975   -0.011592    0.029658    0.032906    0.046873    0.034855    0.039727
0.046873  -0.0018481    0.028684    0.032257    0.055968    0.032257    0.042001
0.05142   0.0085458    0.031932    0.032582    0.066362    0.032257    0.042001
0.057917    0.020239    0.038103    0.034206    0.077405    0.038428    0.041027
0.066037    0.029983    0.046548    0.039402    0.088124    0.050771    0.042651
0.071558    0.038428    0.051745    0.047198    0.098517    0.062139    0.044924
0.075456    0.045574    0.051745    0.053694     0.10794    0.069285    0.045899
0.076755    0.051096    0.050121    0.059541     0.11346    0.067986    0.046548
0.073507     0.05272    0.045249    0.061165     0.11281    0.059216    0.046873
