0.0059473   -0.045697    -0.01614    0.054344     0.20863    0.098193    0.051096
0.025111   -0.026858   -0.010618     0.06831     0.13522     0.12125    0.040052
0.034206   -0.013216  -0.0080194    0.074806    0.062139     0.13847    0.032906
0.036804  -0.0060706   -0.011917    0.073182  -0.0050961     0.14919    0.030308
0.037129  -0.0034721    -0.01614    0.063113   -0.051544     0.15341    0.029658
0.036154  -0.0028225    -0.01614    0.047198   -0.063561     0.15731    0.029333
0.03518 -0.00054884   -0.012242    0.030633   -0.037252     0.16478    0.029333
0.031282   0.0039985  -0.0067202    0.014068     0.02641      0.1755    0.028034
0.019589   0.0072465  -0.0015233   0.0020496     0.12028     0.18524    0.024786
0.0026992   0.0059473  0.00042559  -0.0018481     0.23526     0.19109    0.020564
-0.010618   0.0026992   0.0043233   0.0010752     0.36648     0.19239    0.015367
-0.017114   0.0017248    0.010495   0.0072465      0.5055     0.18687    0.012443
-0.018413   0.0049729    0.019264    0.016341     0.63802     0.17712    0.011469
-0.019712    0.011794     0.02641    0.023812     0.74164     0.16218    0.009845
-0.022636     0.01764    0.026735     0.02641     0.78581     0.14107   0.0036737
-0.027508    0.019589    0.021213    0.019914     0.73741     0.11183  -0.0083442
-0.028807    0.015042    0.011794   0.0065969     0.59028    0.075131   -0.019388
-0.021661   0.0072465   0.0020496   -0.007045     0.38142     0.03583   -0.022961
-0.0057458   0.0033489  -0.0073698   -0.014191     0.17127  0.00075039   -0.020037
0.017965   0.0095202    -0.01614   -0.012892   0.0017248   -0.026858   -0.015165
0.041676    0.025761   -0.021337  -0.0041217    -0.11878   -0.049595   -0.015165
0.056942    0.044275   -0.017764   0.0069217     -0.2172   -0.072331   -0.021661
0.056292    0.054019  -0.0073698    0.012768    -0.31496   -0.094093    -0.03238
0.037454    0.049472   0.0033489   0.0091954    -0.40883    -0.11326   -0.042774
0.0056225    0.032906    0.010495  -0.0031473    -0.48159    -0.12917   -0.046671
-0.021986    0.010495   0.0095202    -0.01614    -0.52804    -0.13729   -0.042124
-0.032055   -0.012242   0.0049729   -0.023285    -0.55662    -0.13404   -0.027183
-0.02361   -0.027833  -0.0021729   -0.020362    -0.58358    -0.12625  -0.0063954
-0.0073698   -0.034004   -0.013216   -0.007045     -0.6232     -0.1217   0.0091954
0.0062721   -0.027833    -0.02361    0.008221     -0.6781    -0.12527    0.010495
0.015692   -0.014191   -0.028807    0.016666    -0.74533    -0.13957      0.0014
0.01894   0.0049729   -0.027183    0.012768    -0.81679    -0.16425   -0.010943
0.015042    0.023487   -0.019388 -0.00054884    -0.89897    -0.19446   -0.016789
0.008221    0.036804  -0.0073698   -0.014516    -0.99446    -0.21947   -0.013541
0.00075039    0.041027   0.0033489    -0.02361     -1.0831    -0.23214  -0.0044465
-0.0099683    0.036154   0.0056225   -0.026858     -1.1202    -0.23571   0.0017248
-0.022961    0.027709   0.0010752   -0.028807      -1.061    -0.23701  -0.0021729
-0.033354    0.023812  -0.0047713   -0.035303     -0.8915    -0.24188   -0.013541
-0.033679    0.028034  -0.0093186   -0.044398    -0.63555    -0.24675    -0.02426
-0.029457    0.037778   -0.016464   -0.052843     -0.3377    -0.25098   -0.025559
-0.023935    0.048822   -0.025559   -0.053817   -0.042124     -0.2513    -0.01549
-0.019388    0.053694   -0.028482   -0.042124       0.207    -0.24415  -0.0034721
-0.015815    0.053694   -0.022961   -0.020037     0.37525    -0.23019   0.0065969
-0.013866    0.050771   -0.014516   0.0023744     0.45028    -0.20908    0.017965
-0.013866    0.041027  -0.0080194    0.016016     0.44216    -0.18407    0.033881
-0.014516    0.029658  -0.0054209    0.016341      0.3785    -0.15548    0.048497
-0.014191    0.020239  -0.0096434   0.0072465     0.29957    -0.12982    0.054993
-0.013541    0.013093   -0.016464  -0.0050961     0.23624    -0.10514    0.048172
-0.015165   0.0095202   -0.019063   -0.015815     0.21058   -0.077853    0.029658
-0.013866   0.0085458   -0.014191    -0.02426     0.22877   -0.048296   0.0043233
-0.0034721   0.0091954  -0.0054209   -0.030106     0.27879   -0.021012   -0.017764
0.022512   0.0085458  -0.0041217    -0.03303     0.34212 -0.00054884   -0.028482
0.063763   0.0033489   -0.012892   -0.033354     0.40221    0.011794   -0.032705
0.11736  -0.0083442   -0.024909   -0.030431     0.44704    0.021863   -0.035953
0.17225    -0.02426    -0.03303   -0.023935     0.47075    0.041027   -0.038876
0.20733   -0.040825    -0.03173   -0.013216     0.47822    0.073507   -0.037902
0.20603   -0.056091   -0.020037 -0.00054884     0.46912     0.11151   -0.032705
0.16478   -0.067134 -0.00022403    0.012443     0.44216     0.14919   -0.022961
0.096893   -0.070058    0.019914    0.021213     0.40189     0.18199   -0.007045
0.030308   -0.060313    0.033231    0.024461     0.35869     0.21123    0.013093
-0.015815   -0.038551     0.03518    0.028684     0.31809     0.23494    0.036479
-0.039851   -0.011592    0.029658     0.03583     0.28333     0.25865    0.062789
-0.055116    0.012443    0.022837    0.048822     0.25897     0.28723    0.092021
-0.076554    0.027709     0.01894     0.06896     0.24273     0.32004     0.12353
-0.10579    0.031607    0.021213    0.093321     0.22454     0.34602     0.14919
-0.14152    0.024137    0.033231     0.11216     0.18881     0.35576     0.16056
-0.17757    0.009845     0.05207     0.11508      0.1258     0.34797     0.15503
-0.20615  -0.0037969    0.069934     0.10534    0.032906     0.32231     0.13652
-0.22207   -0.012242    0.079679    0.091696   -0.078827     0.28366     0.11573
-0.22012   -0.015165    0.078055    0.082277    -0.19121     0.24078    0.096569
-0.19641   -0.017439    0.065712    0.076755    -0.28411     0.20116    0.079029
-0.15581   -0.021986    0.047198    0.071558      -0.339      0.1677    0.062139
-0.11488   -0.032055    0.028359    0.063113    -0.35069     0.13879    0.044599
-0.080127   -0.045372    0.017965    0.055318    -0.32471     0.10989    0.025761
-0.052193   -0.052193     0.01894    0.051096    -0.26689    0.075781   0.0078962
-0.023285   -0.043423    0.028684    0.047198    -0.17692    0.035505  -0.0047713
0.012768    -0.01614    0.039727    0.042326   -0.055116   -0.011592   -0.012242
0.055318    0.022188    0.050121    0.030957    0.099492   -0.061937   -0.017439
0.095594    0.062789    0.053694    0.014392     0.27554    -0.10709   -0.023935
0.12483    0.089098    0.047198  -0.0028225     0.44574    -0.14216   -0.035953
0.13912    0.095919    0.032582   -0.015165     0.56981    -0.16393   -0.052193
0.13879    0.087799     0.01764   -0.022636     0.62341    -0.17107   -0.065835
0.12937    0.073832   0.0095202   -0.026858     0.60294    -0.16815   -0.071682
0.11671    0.057592   0.0065969   -0.030431     0.52856    -0.15353   -0.069733
0.10631    0.038103   0.0062721   -0.034004      0.4269    -0.13047   -0.064211
0.092346    0.013093   0.0020496   -0.035303     0.30607    -0.10221   -0.057065
0.067011   -0.018088  -0.0096434   -0.032705     0.14691   -0.074605   -0.052518
0.028034    -0.04992   -0.024909   -0.025234   -0.068758   -0.053817   -0.051868
-0.01549    -0.07493   -0.033679   -0.014516    -0.32146   -0.041799   -0.052843
-0.051544   -0.085648   -0.029457  -0.0050961    -0.55597   -0.037252   -0.052193
-0.075579   -0.084999   -0.016464   0.0017248    -0.71383   -0.034004   -0.049595
-0.085973   -0.082725  0.00010078   0.0075714    -0.76287   -0.026858   -0.043099
-0.088896   -0.087922    0.015367    0.010819     -0.7096   -0.014516   -0.037902
-0.088247    -0.09994    0.024137    0.011469    -0.59235  0.00010078   -0.034004
-0.091495    -0.10806    0.029333    0.009845     -0.4595    0.014717   -0.029132
-0.097017   -0.093769    0.032582   0.0085458    -0.35199     0.02706   -0.021661
-0.096692   -0.054467    0.031932   0.0085458    -0.28411    0.037778   -0.013541
-0.077528   0.0010752    0.025111   0.0056225    -0.25845    0.040052   -0.010618
-0.035628    0.054019    0.012443  -0.0047713    -0.26494    0.029333   -0.018413
0.015367    0.090072  -0.0047713   -0.017114    -0.28476   0.0088706   -0.035628
0.056292     0.10501   -0.022311   -0.027508    -0.29775   -0.015815   -0.052518
0.076755     0.10761   -0.034004   -0.031081    -0.28605   -0.034329    -0.05739
0.080003     0.10664   -0.035953   -0.025234    -0.24058   -0.039201   -0.052193
0.075456     0.10696   -0.027183   -0.012567    -0.16393    -0.03173   -0.038551
0.071883     0.10859   -0.012242   0.0046481   -0.072331   -0.017439   -0.025559
0.073507     0.10696   0.0069217     0.01829    0.013743  -0.0083442   -0.019388
0.07773    0.099167    0.025111    0.029333    0.086175   -0.012242   -0.022961
0.077405     0.08585    0.038753    0.035505     0.16185   -0.029132   -0.036602
0.068635    0.069934    0.045249    0.036804     0.26319   -0.055116   -0.056741
0.054993    0.054668    0.044275    0.033881     0.39702   -0.081101   -0.077528
0.044599    0.044275    0.037129    0.029333     0.54026    -0.10286   -0.090845
0.042651    0.040377    0.023162    0.024137     0.66173    -0.11553   -0.094418
0.047847    0.043625   0.0049729    0.020239     0.74099    -0.11715   -0.086623
0.055968    0.049796   -0.011917    0.019589     0.78094    -0.10871   -0.068109
0.06084     0.05272   -0.020687    0.024137     0.78646   -0.093769   -0.042774
0.061165    0.047523   -0.017764    0.030957     0.77574   -0.076879   -0.018088
0.053369    0.033231   -0.007045    0.041676     0.77866   -0.061613  -0.0050961
0.034855   0.0088706  0.00075039     0.05207     0.81017   -0.053817   -0.008669
0.008221   -0.019388      0.0014    0.058241     0.86506   -0.053817   -0.021337
-0.019388   -0.046996 -0.00022403    0.058566     0.91541   -0.055116   -0.035303
-0.045372   -0.068109   0.0017248     0.05142     0.93002   -0.052843   -0.039851
-0.06681   -0.075904   0.0065969    0.041351     0.89137   -0.043748   -0.034329
-0.077528   -0.071357    0.013418    0.033231     0.79523   -0.027183   -0.018088
-0.070058    -0.05804     0.01829    0.027385     0.64777  -0.0047713   0.0017248
-0.044073   -0.045372    0.014392     0.01894     0.46458    0.015042     0.01894
-0.0024977   -0.037577  -0.0028225    0.008221     0.26255    0.022837    0.030308
0.045249   -0.038227   -0.028482  -0.0041217     0.05207    0.015692    0.035505
0.084876   -0.040825   -0.056416    -0.01614    -0.16263  0.00042559    0.037778
0.10501   -0.034004   -0.074605   -0.026858     -0.3835   -0.012892    0.040377
0.10274   -0.008669   -0.078503   -0.036602    -0.61379   -0.017114    0.041351
0.0865    0.032906   -0.067134   -0.044398    -0.84732  -0.0099683    0.040702
0.066037    0.079354   -0.050894    -0.04992     -1.0597    0.011469    0.033881
0.05207     0.11963   -0.038876   -0.051219     -1.2247    0.040377    0.023487
0.048172     0.14529   -0.034329   -0.046347     -1.3196    0.067011    0.014068
0.05142     0.15568   -0.029457   -0.036602     -1.3186    0.085525   0.0085458
0.051096     0.14919   -0.016464   -0.025559     -1.2105    0.094945   0.0072465
0.03583     0.12937   0.0023744   -0.016789     -1.0013    0.095919    0.009845
0.0036737     0.10339    0.020888   -0.010618    -0.72519    0.092346    0.012119
-0.038551    0.080653    0.036479   -0.008669    -0.43417    0.084226    0.011144
-0.077528    0.066037    0.043625  -0.0093186    -0.17432    0.074482   0.0095202
-0.10384    0.055968    0.038103   -0.012892    0.024137    0.063113     0.01017
-0.11813    0.045899    0.020888   -0.020037     0.15179    0.050446    0.009845
-0.1243    0.031607  -0.0076946    -0.03303     0.21155    0.031607   0.0036737
-0.12755    0.013743    -0.04115   -0.049595     0.21545   0.0017248   -0.010293
-0.13015   -0.012242   -0.069733   -0.063237     0.18297   -0.033679   -0.023935
-0.12657   -0.042124   -0.085648    -0.06616     0.13262   -0.064536   -0.029132
-0.11358   -0.071357   -0.082725   -0.055441    0.081627   -0.075904   -0.017764
-0.084999   -0.093444    -0.06551   -0.036927    0.036154   -0.057065   0.0065969
-0.039526    -0.10091   -0.043748    -0.01549  -0.0024977   -0.007045    0.037454
0.012768   -0.090196   -0.023285   0.0026992   -0.035953    0.064088    0.066037
0.058241   -0.066485   -0.010293     0.01764   -0.069408      0.1349    0.083576
0.084551   -0.037577  -0.0060706    0.029333    -0.10449     0.18687    0.089748
0.089748   -0.014191  -0.0044465    0.041676    -0.13502     0.21252    0.086175
0.082602   0.0020496 -0.00087364    0.057267    -0.15743     0.21317    0.083576
0.071883    0.016991   0.0056225    0.073182    -0.17237     0.19628    0.088448
0.062789    0.031932    0.014068    0.085525    -0.18601     0.17095    0.098193
0.057592    0.047523    0.024786    0.091372    -0.19803     0.13977     0.10924
0.05272    0.062464    0.037454    0.088448     -0.2081     0.10242     0.11963
0.044924    0.070909    0.049796    0.076755     -0.2159     0.05142     0.12483
0.032257    0.066362    0.057917     0.06084    -0.23019   -0.012242     0.11995
0.014068    0.045249    0.057917    0.044599    -0.25585     -0.0837     0.10469
-0.0028225   0.0095202    0.044599    0.033231    -0.28963    -0.15841    0.082927
-0.0041217   -0.034329    0.021863    0.020888    -0.32568    -0.23019    0.063113
0.016991   -0.078178  -0.0073698   0.0069217    -0.35751    -0.29288    0.050121
0.053044    -0.10774   -0.034329  -0.0024977    -0.37375    -0.33672    0.045899
0.092346    -0.11001   -0.048945  -0.0024977    -0.35751    -0.35686    0.050446
0.1232   -0.081751   -0.044723   0.0078962    -0.29028    -0.35816     0.06019
0.14107   -0.034654   -0.029457    0.021863    -0.16263    -0.34907     0.06961
0.14659    0.011144   -0.014516    0.029983    0.012443    -0.33965    0.073182
0.14269    0.040702  -0.0050961    0.032257     0.20863    -0.33218     0.06896
0.1323    0.055968   0.0036737    0.038103     0.40091    -0.31789    0.064088
0.11086    0.065712    0.016016    0.053694     0.57371    -0.28573    0.064413
0.07708     0.07773    0.029983    0.076755     0.71857    -0.22921    0.073832
0.039078    0.092021    0.044599     0.10209     0.82901    -0.15678    0.089423
0.0059473     0.10014    0.054993     0.12158     0.89884   -0.082076     0.10371
-0.017764    0.094945    0.055318      0.1284     0.92028   -0.017114     0.10924
-0.027833    0.073507    0.046223     0.11995     0.89917    0.032582     0.10404
-0.029457    0.043625    0.029658    0.098842     0.84622    0.065062    0.092346
-0.024909    0.014068    0.011144    0.069934     0.78029    0.083576    0.078055
-0.017764  -0.0018481  -0.0063954    0.045574     0.71955    0.095919     0.06084
-0.015165  -0.0024977   -0.017439    0.030633     0.66855     0.10274      0.0433
-0.023935   0.0085458   -0.018738    0.026085     0.61788     0.10242    0.027385
-0.038551    0.023487   -0.012892    0.028034     0.56234    0.092996   0.0095202
-0.04862     0.03583  -0.0031473    0.031932     0.49608     0.07773  -0.0076946
-0.042449      0.0433   0.0072465    0.031282     0.40936    0.067011   -0.021986
-0.021661    0.043625    0.014392    0.023812     0.27716    0.062789   -0.030106
0.0039985    0.040052    0.015042    0.011144    0.048172    0.061489   -0.032705
0.01894    0.032582   0.0091954 -0.00087364    -0.33413     0.05142   -0.034654
0.014717    0.024786  0.00075039   -0.010293    -0.88208    0.024461   -0.038876
-0.0047713    0.016666  -0.0037969   -0.013866      -1.506   -0.021661   -0.045047
-0.022636     0.01017  -0.0034721   -0.014516     -2.0348   -0.076554   -0.045372
-0.026858   0.0062721   0.0033489   -0.014191     -2.3158    -0.12398   -0.040175
-0.018413  0.00075039   0.0072465   -0.015165     -2.2953    -0.14866   -0.034978
-0.0076946  -0.0099683   0.0059473   -0.018738     -2.0361    -0.14769   -0.032705
-0.0060706   -0.022636   0.0023744   -0.023935     -1.6571    -0.12787   -0.034654
-0.010618   -0.033679 -0.00022403   -0.028157     -1.2676   -0.099615   -0.038876
-0.013866   -0.037902   0.0017248   -0.027833    -0.93502   -0.068109   -0.044398
-0.010943   -0.033679    0.010819   -0.026858    -0.68232   -0.037252   -0.044723
-0.0041217   -0.021986    0.021538   -0.026858    -0.50108   -0.010618   -0.040175
-0.0021729  -0.0096434    0.024461   -0.028482    -0.36563   0.0026992   -0.034004
-0.010943  -0.0018481    0.016666   -0.033354    -0.24058   0.0046481   -0.028482
-0.033354  -0.0041217   0.0020496   -0.042124    -0.09994  0.00010078   -0.026209
-0.064861   -0.018413   -0.013866    -0.04992    0.057267  -0.0044465    -0.03238
-0.097017   -0.037252   -0.027183   -0.058689      0.2109  -0.0044465   -0.046996
-0.1217   -0.052193   -0.038876   -0.067134     0.33303   0.0023744   -0.067134
-0.13307    -0.05804   -0.047646   -0.073955     0.40741    0.013093   -0.084999
-0.1295   -0.052518   -0.055116   -0.079802       0.423    0.020888   -0.097341
-0.11488   -0.039526   -0.062587   -0.084024     0.37265    0.024137    -0.10319
-0.094093   -0.022311   -0.068434   -0.085648     0.25507    0.023812    -0.10319
-0.070382  -0.0073698   -0.068109   -0.082076    0.091047    0.025761    -0.10189
-0.04862   0.0049729   -0.060638   -0.073306   -0.083375    0.029658    -0.10124
-0.033679   0.0091954   -0.052193   -0.064861    -0.23993    0.031282   -0.097017
-0.027833   0.0023744   -0.044723   -0.059339    -0.35881    0.032257   -0.088247
-0.023935   -0.011267   -0.042774   -0.056416    -0.43092    0.032257   -0.078503
-0.014191   -0.024585   -0.043099   -0.055116     -0.4595    0.033881   -0.069733
0.00010078   -0.035953   -0.043099   -0.052193    -0.44521    0.038428   -0.065835
0.017316   -0.044723   -0.040175    -0.04862     -0.3822    0.043625   -0.064536
0.031282   -0.048945   -0.033354   -0.046347    -0.26332    0.047847   -0.062587
0.035505   -0.047646   -0.025884   -0.038876   -0.085324     0.05142   -0.059014
0.032582   -0.042124   -0.019388   -0.025234     0.14172    0.055318   -0.053168
0.02706   -0.034329   -0.012892   -0.010293      0.3876    0.056942   -0.042449
0.024786   -0.025884  -0.0073698    0.003024     0.61431    0.056617   -0.028157
0.026085   -0.014191   0.0023744    0.012443     0.78126     0.06084   -0.017439
0.02641  -0.0047713    0.016666    0.019264     0.86311    0.072208    -0.01484
0.021213  0.00010078    0.030633    0.026735     0.86214    0.086175    -0.01614
0.0062721  -0.0015233    0.036154    0.033881     0.80335    0.099167   -0.017114
-0.01614  -0.0054209    0.029983    0.042651     0.71955     0.10696   -0.017764
-0.037902   -0.010943    0.016991     0.05142       0.639     0.10761   -0.020362
-0.050569   -0.015815  0.00010078    0.056292     0.58151     0.10436   -0.027508
-0.051868   -0.017764   -0.017439    0.054993     0.55292     0.10177   -0.033354
-0.041799   -0.017439   -0.028157    0.048822     0.54968     0.10014   -0.030756
-0.026858   -0.016789   -0.027508    0.042001     0.55909     0.10144   -0.017114
-0.012242   -0.016789    -0.01549    0.039078     0.56884     0.10436   0.0072465
-0.0018481   -0.014191   0.0059473    0.041351     0.57046     0.10956    0.034206
-0.0015233   -0.007045    0.033231    0.050121     0.56039     0.11541    0.054993
-0.0044465   0.0010752    0.059216    0.059865     0.54091      0.1206    0.063763
-0.0054209   0.0072465    0.073832    0.065712     0.51687      0.1219    0.057917
0.0033489    0.009845    0.074806    0.064088     0.49348     0.11866    0.041676
0.018615   0.0072465    0.062789    0.057267      0.4701     0.11216    0.025436
0.030633   0.0023744    0.044275    0.051745     0.44444     0.10501    0.016341
0.032906  -0.0031473    0.019914    0.046223      0.4152    0.099817    0.012443
0.026085  -0.0054209  -0.0024977    0.042326     0.38825     0.10047    0.015042
0.011144   0.0010752   -0.015815    0.045249     0.36583     0.10501    0.028359
-0.0076946    0.019264   -0.012242    0.055968     0.34927     0.11216    0.050446
-0.025234     0.05142   0.0059473    0.070259      0.3405     0.12158    0.076106
-0.036602    0.084226    0.029009    0.083901      0.3418     0.12905    0.096893
-0.0405     0.10599    0.046873    0.092996     0.35057     0.13262     0.10794
-0.033679     0.10956    0.049796    0.094295     0.36291     0.13457     0.11151
-0.018413    0.094945    0.040052    0.085525     0.37233     0.13392     0.10924
-0.00054884    0.069285    0.025436     0.06896     0.37298     0.12872     0.10209
0.01764    0.041676   0.0091954    0.047847     0.35674     0.11768    0.089423
0.03453    0.013093  -0.0076946    0.026735     0.32653     0.10014     0.06896
0.041676   -0.013541    -0.02426   0.0078962     0.28821    0.076431    0.047847
0.039402   -0.035303   -0.037577  -0.0054209      0.2489    0.046873    0.033881
0.030308   -0.044073   -0.046022  -0.0089938     0.21188    0.019264    0.028684
0.01894   -0.034978   -0.046671  -0.0044465     0.17907  -0.0011985    0.025436
0.008221  -0.0083442   -0.038227   0.0046481     0.14886   -0.019063    0.019589
-0.0011985    0.028034   -0.022961    0.011144     0.11963   -0.038876   0.0085458
-0.0063954    0.065387  -0.0011985    0.011469    0.089423   -0.059339  -0.0063954
-0.0089938    0.095594    0.025436   0.0095202    0.055318   -0.075904   -0.019712
-0.018088     0.11118    0.050121   0.0069217    0.015692   -0.084674   -0.027508
-0.035303     0.10859    0.064088   0.0095202   -0.031081   -0.087922   -0.030756
-0.052518    0.088448    0.061814    0.018615   -0.081426   -0.089546   -0.030106
-0.05739    0.059216     0.04395    0.029333     -0.1269   -0.090196   -0.029457
-0.046022    0.027385     0.01764    0.033556    -0.15905    -0.09117   -0.029132
-0.025559 -0.00022403  -0.0083442    0.024786    -0.17692   -0.095393   -0.031081
-0.0099683   -0.019388   -0.024585   0.0065969    -0.18342    -0.10351    -0.03238
-0.0037969   -0.022636   -0.026533   -0.008669    -0.18277    -0.11261    -0.03173
-0.0047713   -0.011917    -0.01549  -0.0096434    -0.18309    -0.11748    -0.02361
-0.010618   0.0075714   0.0033489   0.0046481    -0.19381    -0.11521  -0.0063954
-0.020362    0.022512    0.021863    0.028034    -0.21817    -0.10514     0.01764
-0.028482    0.028359    0.034206    0.048497       -0.25   -0.091495    0.041351
-0.028482    0.023487    0.039402     0.06084    -0.27793   -0.075255    0.059865
-0.019712    0.012443    0.038428    0.064088    -0.28768   -0.059989    0.067661
-0.0063954   0.0010752    0.034855    0.060515    -0.26104   -0.050894    0.063763
0.0072465  -0.0054209    0.032257    0.053694    -0.18309   -0.051219    0.049796
0.013743  -0.0028225    0.028034    0.043625   -0.057065   -0.056091    0.033231
0.012443   0.0091954    0.024786    0.030957    0.091696   -0.057715    0.019914
0.0065969    0.026085    0.023487    0.013093     0.22682   -0.055441    0.012768
0.0085458    0.040702    0.022512  0.00042559     0.31679    -0.04992   0.0085458
0.025436    0.045249    0.020888  -0.0015233      0.3444   -0.043099   0.0075714
0.061489      0.0433    0.020888   0.0091954     0.31516   -0.030756    0.017316
0.11021    0.036804    0.021213    0.027385     0.24663   -0.010293    0.036479
0.16185     0.02706     0.01894    0.045899     0.15796    0.014717    0.061489
0.20343    0.019914    0.016341    0.054993    0.055643    0.040052    0.083251
0.22324    0.019589    0.014717    0.054344   -0.070058    0.060515    0.092996
0.2135    0.030957    0.015042    0.046873    -0.22629    0.071883    0.086175
0.17062    0.047523    0.017965    0.036154    -0.42117    0.067986    0.061814
0.099492    0.060515    0.023487    0.025761    -0.65439    0.048822    0.029658
0.01829    0.061814    0.029983    0.019264    -0.91391    0.022837   0.0010752
-0.045697    0.048172    0.037454    0.016341     -1.1741  -0.0015233    -0.01549
-0.080776     0.02641    0.040702    0.014717     -1.3985   -0.019712   -0.020687
-0.084674   0.0062721     0.03583    0.011144     -1.5479   -0.030756   -0.022961
-0.06551  -0.0054209    0.021538   0.0020496     -1.5824   -0.036927   -0.024909
-0.032055  -0.0060706   0.0020496   -0.012892     -1.4869   -0.038551   -0.027833
0.0075714  -0.0050961   -0.011267   -0.033354      -1.277   -0.036927   -0.028157
0.040052  -0.0073698   -0.021337   -0.056416    -0.99836   -0.034654    -0.02361
0.059216   -0.012892    -0.03173   -0.078827    -0.69499   -0.033354   -0.013541
0.064737   -0.019388   -0.045047   -0.094743    -0.39681   -0.033354  -0.0041217
0.062464    -0.02361   -0.057065    -0.10059    -0.11391   -0.037902   0.0020496
0.05207   -0.021661   -0.061288   -0.092145     0.14204   -0.043423   0.0036737
0.038428    -0.01614   -0.051544   -0.072656     0.36226   -0.048945   0.0046481
0.021538   -0.011917   -0.034004    -0.04927     0.53051   -0.054142   0.0056225
0.0059473  -0.0089938   -0.013541   -0.028482     0.63283   -0.058689    0.008221
-0.00054884  -0.0080194   0.0026992   -0.015165     0.66368    -0.06551    0.011144
0.0026992  -0.0096434   0.0085458   -0.010293     0.64225   -0.075255    0.012768
0.011144   -0.013541   0.0020496   -0.012892     0.60359   -0.084674    0.009845
0.022188   -0.016464   -0.012242   -0.020037     0.59093   -0.087922   0.0062721
0.031932   -0.019712   -0.027833   -0.026533     0.62308   -0.084999   0.0046481
0.033556   -0.024909   -0.037252   -0.027508     0.68187   -0.079477   0.0059473
0.029983    -0.03173   -0.037252   -0.021986     0.73157   -0.073631   0.0072465
0.020239   -0.036927   -0.028482  -0.0083442     0.73352   -0.067784   0.0069217
0.0039985   -0.039851    -0.01614    0.010819     0.66953   -0.062912   0.0039985
-0.019063   -0.037252  -0.0054209    0.031607     0.54545   -0.062262  -0.0031473
-0.048296   -0.031406   0.0020496    0.048172     0.38045   -0.066485   -0.010943
-0.076229   -0.022961   0.0065969    0.057592     0.19791   -0.075904   -0.017439
-0.093769   -0.014516   0.0065969    0.059541    0.021863   -0.090196   -0.019388
-0.09929  -0.0076946   0.0017248    0.055318    -0.12495    -0.11261   -0.017114
-0.094093  -0.0044465  -0.0047713    0.046548    -0.24221    -0.14411   -0.011267
-0.081426   -0.008669  -0.0089938    0.032906    -0.34549    -0.18342  -0.0054209
-0.064536   -0.023285  -0.0089938    0.012119     -0.4556    -0.22402  0.00010078
-0.050244   -0.046671  -0.0050961   -0.012242    -0.57903    -0.25812   0.0033489
-0.036602   -0.070707   0.0017248    -0.03173    -0.69921    -0.28508   0.0023744
-0.018413   -0.085648   0.0075714   -0.043099    -0.77976    -0.30457  -0.0073698
0.0026992   -0.084349   0.0091954   -0.047971    -0.78821    -0.31626   -0.022311
0.025436   -0.062262   0.0062721   -0.048945    -0.73007    -0.31464   -0.035953
0.046873   -0.023935    0.003024   -0.044398    -0.63587    -0.29353   -0.037902
0.063113    0.016341   0.0026992   -0.035953     -0.5446    -0.25227   -0.025234
0.073182    0.046873    0.008221   -0.022961    -0.47964    -0.20128  -0.0037969
0.082602    0.058241    0.014392   -0.007045    -0.43904    -0.14736    0.016666
0.089748    0.050771    0.013743   0.0072465    -0.41046   -0.095068    0.029658
0.09462    0.023812   0.0052977    0.015042    -0.37895   -0.051219    0.030308
0.098842   -0.017114   -0.011267    0.014068    -0.34452   -0.023935    0.019264
0.097218   -0.060313   -0.030756   0.0049729    -0.31204   -0.019388  -0.0011985
0.089748   -0.089871   -0.050244   -0.012892    -0.28248   -0.034654   -0.024585
0.076106   -0.095717   -0.068109   -0.034329    -0.25098    -0.05804   -0.044073
0.059216    -0.07493    -0.08305   -0.054467    -0.21037   -0.076229   -0.051219
0.038753   -0.034654   -0.088572   -0.065835    -0.15743   -0.079152   -0.044723
0.01894    0.013418   -0.081751   -0.067134    -0.10059   -0.064536   -0.028482
-0.0018481    0.055643   -0.062262   -0.056741   -0.050244   -0.037902  -0.0080194
-0.024909    0.081303   -0.036602   -0.037252   -0.014516  -0.0054209    0.011794
-0.045697    0.088773   -0.010943   -0.013216   0.0072465    0.028359    0.024786
-0.055766    0.083251    0.011469   0.0088706    0.019589    0.058566    0.028034
-0.054467    0.071558    0.029333    0.023812    0.023812    0.081303    0.021538
-0.043423     0.06084    0.042326    0.030308    0.022188    0.092021    0.013418
-0.027183    0.050771    0.049147     0.02706    0.017965    0.088773   0.0052977
-0.011267    0.041351    0.046873    0.017316    0.020888    0.074157  -0.0050961
0.0010752    0.030957    0.036804   0.0075714    0.039402    0.055318   -0.014516
0.0056225    0.016991    0.023162   0.0023744    0.075131    0.044275   -0.020037
0.0017248   0.0036737    0.012119   0.0046481     0.12418    0.047847   -0.022961
-0.008669  -0.0018481   0.0039985    0.014717     0.18297    0.065712   -0.022961
-0.025884   0.0017248  -0.0028225    0.027385     0.25345    0.093645   -0.019063
-0.043423     0.01017  -0.0096434     0.03518     0.33075     0.12158  -0.0096434
-0.053168    0.017965   -0.011592    0.037778     0.40773     0.14659   0.0069217
-0.04992    0.024786  -0.0060706    0.039078     0.47302     0.16608    0.023487
-0.037902    0.030633   0.0078962    0.040702     0.51135      0.1781    0.034206
-0.019388    0.038103    0.028359    0.042326      0.5146     0.18492    0.037454
0.0010752    0.047847    0.050121    0.047198     0.48082     0.18784     0.03453
0.021863    0.056617    0.066686    0.054993     0.42105     0.18394    0.024461
0.03583    0.061489    0.072533     0.06019     0.35609     0.17355     0.01017
0.041676    0.058891    0.067011    0.058241     0.30477     0.15633   -0.007045
0.038103    0.049796     0.05142    0.047523     0.27846     0.13587   -0.026858
0.023487    0.039727    0.029333    0.030957     0.28073     0.11476   -0.044398
-0.0024977    0.031282    0.012443    0.012768     0.31289     0.10112   -0.056091
-0.030756    0.025111   0.0056225  -0.0011985     0.36681    0.095919   -0.055766
-0.051219    0.025111   0.0072465  -0.0080194     0.42397     0.10177   -0.048296
-0.060313     0.02706    0.011469  -0.0054209      0.4662     0.11281   -0.037577
-0.062262     0.02706    0.013093   0.0069217     0.47757     0.12645   -0.028807
-0.061288    0.020564     0.01017    0.023812      0.4597     0.13814   -0.021661
-0.059014    0.010495   0.0069217    0.040052     0.42365     0.14561   -0.018088
-0.052518  0.00010078   0.0049729     0.05272     0.38175     0.14561   -0.019063
-0.040175  -0.0054209   0.0033489    0.061165     0.34115     0.13814    -0.02426
-0.021012  -0.0021729   0.0078962    0.066362     0.30769     0.12548   -0.026533
-0.0031473   0.0078962    0.016341    0.066037     0.27911     0.11183   -0.025234
0.0069217    0.020564    0.021863    0.059216     0.24663    0.098517   -0.023285
0.0072465    0.029983    0.020239    0.047198     0.20213    0.090722   -0.024909
0.0026992    0.036479    0.012768    0.037778     0.14399    0.084876   -0.027183
0.0023744    0.042975   0.0049729    0.036154    0.078055    0.075456   -0.027183
0.0085458    0.053044      0.0014    0.043625   0.0095202    0.063113   -0.025234
0.015692    0.066362    0.003024    0.055643   -0.065835    0.047847   -0.022636
0.0078962    0.082277    0.008221    0.066686     -0.1714    0.025436   -0.021012
-0.020037    0.096244    0.012119    0.070584     -0.3377   -0.008669    -0.02361
-0.061937     0.10826    0.013093    0.061814    -0.55207   -0.049595   -0.028807
-0.10741     0.11346    0.010495    0.037454    -0.75767   -0.087597   -0.033679
-0.14606     0.10469   0.0026992   0.0069217    -0.87948    -0.11618    -0.03173
-0.1714    0.078055  -0.0099683   -0.020687     -0.8772    -0.13015   -0.016789
-0.17984    0.034855   -0.025234   -0.037577    -0.76774    -0.12885   0.0075714
-0.16945   -0.018738   -0.035303   -0.038551    -0.61963    -0.11586    0.032582
-0.14184   -0.072656   -0.038876   -0.023935    -0.49426   -0.092794    0.045574
-0.10579    -0.11488   -0.034978  0.00010078    -0.41013   -0.062912    0.048172
-0.069083     -0.1308   -0.027183    0.024137    -0.35004   -0.028807    0.045249
-0.03303    -0.11683   -0.019712    0.040052    -0.28573   0.0036737    0.045899
0.01017   -0.079802   -0.013866    0.044599    -0.20128     0.03453    0.053694
0.066037   -0.036602   -0.012567    0.037454    -0.11488    0.066037    0.065062
0.12548  -0.0063954   -0.019388    0.022837   -0.068434    0.098193    0.076431
0.17127  -0.0054209    -0.03173   0.0059473    -0.10059     0.12288    0.084876
0.19271   -0.029457   -0.039851  -0.0047713     -0.2081     0.13977    0.091372
0.18751   -0.062262   -0.042124  -0.0028225    -0.34647     0.15049    0.096244
0.16868   -0.081101   -0.034978   0.0088706     -0.4569     0.15958    0.097868
0.14724   -0.075579   -0.022636    0.025111    -0.49653     0.16933    0.097218
0.12678   -0.046671  -0.0050961    0.042326    -0.45301     0.17972    0.092346
0.10566  -0.0041217    0.015042    0.054668    -0.34614     0.18719    0.087799
0.085525    0.040377    0.029333    0.056617    -0.20225     0.18719    0.083251
0.06831    0.076106    0.031607    0.045899   -0.047971     0.17842    0.079029
0.050121    0.097543    0.021538    0.027385    0.096244     0.15666    0.073507
0.030633     0.10794   0.0039985    0.008221     0.21935     0.12158    0.063438
0.01894     0.11118   -0.012242  -0.0044465     0.31127    0.080328    0.052395
0.020239     0.10989   -0.022311  -0.0076946     0.35966    0.039402    0.041351
0.033881     0.10566   -0.022311  -0.0018481     0.36811   0.0033489    0.031607
0.050771    0.099817   -0.013541   0.0062721     0.34764   -0.028807    0.023812
0.06084    0.092671  -0.0031473   0.0072465     0.32328   -0.064861    0.012119
0.059865    0.079029   0.0052977  -0.0044465     0.31776    -0.11001  -0.0034721
0.05142    0.054993   0.0088706   -0.023935     0.33952    -0.15938   -0.026858
0.040702    0.025111   0.0078962     -0.0405     0.38305     -0.2016   -0.051544
0.032582  -0.0057458   0.0049729   -0.046347     0.43632    -0.22499   -0.069408
0.03453   -0.028807  -0.0031473   -0.039851     0.47822    -0.22467   -0.073631
0.046548   -0.042124   -0.017764   -0.030756     0.48504    -0.20388   -0.065186
0.060515   -0.047321   -0.029457   -0.028157     0.45581    -0.17107   -0.045047
0.065062   -0.047646   -0.033679   -0.033354     0.40676    -0.12917   -0.016789
0.055968    -0.04862   -0.032055   -0.038227     0.36421   -0.082725    0.014068
0.03583   -0.052843   -0.026209   -0.033354     0.35576   -0.036602    0.042651
0.01017   -0.059339   -0.020037   -0.017439      0.3863  0.00042559    0.063438
-0.011592    -0.06551    -0.01614   0.0033489     0.44054    0.021213    0.076755
-0.025884   -0.067784   -0.011917    0.023487     0.49088     0.02706    0.084226
-0.033354   -0.064536  -0.0057458    0.036479     0.50777     0.01829      0.0865
-0.034329   -0.054792    0.003024     0.03583     0.46652   0.0020496    0.082602
-0.028807   -0.039851    0.013418    0.021863     0.37265   -0.014516    0.067661
-0.020687   -0.020362    0.020888   0.0049729     0.25702   -0.022311    0.048822
-0.011267  -0.0044465    0.024137   -0.007045     0.15633   -0.020037     0.03518
-0.0057458      0.0014    0.021538   -0.010293    0.094295  -0.0080194    0.030957
-0.007045  0.00075039    0.014068  -0.0054209    0.076755    0.012119    0.035505
-0.016464 -0.00054884   0.0020496   0.0026992     0.09462    0.029333    0.043625
-0.024909  -0.0011985   -0.010293    0.013743     0.12905    0.035505    0.049147
-0.026858 -0.00087364    -0.01484    0.026085     0.15893    0.032582    0.050446
-0.021012  0.00010078  -0.0089938    0.039727     0.17355    0.025761    0.045249
-0.013216   0.0020496   0.0069217    0.055643     0.17062    0.019264    0.031607
-0.0067202   0.0020496    0.024786    0.067011     0.15146   0.0095202    0.013743
-0.0015233      0.0014    0.041027    0.071883     0.11768  -0.0018481 -0.00022403
0.0039985      0.0014    0.051745     0.06896    0.074157   -0.013866  -0.0037969
0.010819   0.0052977    0.057267    0.062139    0.025436    -0.02361   0.0010752
0.020239    0.011794    0.055643    0.054668   -0.022311    -0.03303   0.0078962
0.028684    0.016666    0.049472    0.048497   -0.062912   -0.042774   0.0095202
0.031282    0.016666    0.040702    0.042975   -0.089871   -0.052518   0.0039985
0.029009   0.0085458    0.031607    0.040702   -0.098965   -0.062262  -0.0037969
0.024137  -0.0047713    0.023812    0.037778   -0.087597   -0.067459   -0.013216
0.015367   -0.023285    0.018615    0.033231   -0.064536   -0.067784   -0.022961
0.0017248   -0.045047    0.015042    0.023812   -0.044398   -0.068434   -0.031406
-0.017439   -0.067459     0.01017     0.01017    -0.04115   -0.070707     -0.0405
-0.038551   -0.084999  0.00010078  -0.0047713   -0.050894   -0.076879   -0.051544
-0.054792    -0.09182   -0.013866   -0.017439   -0.057065   -0.084999   -0.062912
-0.064211   -0.088896   -0.026209   -0.027833   -0.038227    -0.09182   -0.072331
-0.069408   -0.079152   -0.032705   -0.034004   0.0043233   -0.095393   -0.073631
-0.072981   -0.062912   -0.033679   -0.036927    0.037129   -0.087597   -0.064536
-0.069408   -0.043423   -0.032055   -0.036278    0.016666   -0.068758   -0.047321
-0.05804   -0.020037   -0.028157   -0.035303   -0.092794   -0.045047   -0.023935
-0.037902   0.0056225    -0.02426   -0.034654    -0.30035   -0.019388 -0.00022403
-0.017764    0.030957   -0.020687   -0.032705    -0.58423   0.0026992     0.01764
-0.0076946    0.054019   -0.016789   -0.027508    -0.90059    0.013418    0.029658
-0.0093186    0.068635   -0.013541   -0.022961     -1.1913   0.0052977    0.031932
-0.019063    0.071558  -0.0093186   -0.020037     -1.3894   -0.023285    0.024461
-0.029132    0.064413  -0.0060706   -0.021661     -1.4385   -0.064211    0.010495
-0.03303    0.049147  -0.0041217   -0.026533     -1.3323    -0.10286  -0.0057458
-0.02426    0.030957  -0.0034721   -0.031406     -1.1107    -0.12852   -0.018413
-0.0083442    0.015367  -0.0037969    -0.03303    -0.83693    -0.13469   -0.022961
0.0069217    0.011794  -0.0041217   -0.029132    -0.56994     -0.1191   -0.025234
0.015042     0.01829  -0.0060706   -0.021337    -0.35004    -0.09117   -0.028807
0.013093    0.031282   -0.010293   -0.010293    -0.19511   -0.063561   -0.034654
-0.0044465    0.042001   -0.012242    0.003024    -0.10644   -0.042124   -0.039851
-0.039526    0.048172  -0.0076946    0.017965   -0.073631   -0.025884   -0.044073
-0.089871    0.045899  0.00075039    0.030633   -0.080776   -0.016789   -0.045697
-0.14541    0.037454   0.0095202    0.038753    -0.10156   -0.012892   -0.047646
-0.19089    0.025761    0.019914     0.04395   -0.098316  -0.0093186   -0.045047
-0.21427    0.011794    0.028359    0.044275   -0.042449  -0.0060706   -0.034978
-0.2107  -0.0054209    0.031607    0.040052    0.075456  -0.0041217   -0.021986
-0.18829   -0.023935    0.028034    0.030633     0.24598  -0.0011985  -0.0096434
-0.15418   -0.039201     0.01894    0.022512     0.44379   0.0023744  -0.0011985
-0.11358   -0.049595   0.0069217    0.015692     0.63835   0.0046481    0.008221
-0.066485   -0.056741  -0.0073698   0.0062721     0.80238   0.0075714     0.01829
-0.015815   -0.067134   -0.029782  -0.0073698     0.91996   0.0088706    0.023812
0.036154   -0.082076   -0.062262   -0.022961     0.98394   0.0062721    0.023812
0.082277   -0.092469   -0.095068   -0.034004     0.98654  -0.0011985     0.01894
0.11768   -0.082725    -0.11488   -0.035303     0.91736   -0.017114    0.013093
0.13912   -0.043748    -0.10871   -0.025559     0.77866     -0.0405   0.0078962
0.14399    0.021213   -0.076879  -0.0083442     0.59645    -0.06681   0.0049729
0.13944    0.091696    -0.03303   0.0078962     0.41683   -0.086623   0.0020496
0.13457     0.14854   0.0095202    0.014717     0.28691   -0.094418  -0.0011985
0.13912     0.18134    0.039727    0.011794     0.22552   -0.091495  -0.0037969
0.14919     0.19174     0.05207   0.0046481     0.22519   -0.082725  -0.0047713
0.15861     0.18459    0.050771 -0.00022403       0.258   -0.071357  -0.0054209
0.15633      0.1716    0.047198  -0.0015233     0.28756   -0.061288  -0.0063954
0.13977     0.15991    0.046223   0.0033489     0.29535   -0.051219  -0.0041217
0.10989     0.14984    0.050121    0.010819     0.28171   -0.043748   0.0023744
0.079029     0.14042    0.056942    0.021863     0.26222   -0.039201    0.010495
0.055968     0.12548    0.061814    0.036154     0.24046   -0.039201    0.016991
0.044924     0.10274    0.059541    0.048497     0.19304   -0.044073     0.01829
0.042326    0.076431    0.048497    0.053369    0.077405   -0.055441    0.012768
0.041676    0.046873    0.028034    0.046873    -0.13047   -0.078827   0.0036737
0.039727     0.01764  0.00075039    0.032906    -0.40104    -0.10676  -0.0018481
0.03583  -0.0050961   -0.027183    0.016016    -0.66868    -0.13047 -0.00087364
0.034855   -0.019063   -0.048296  0.00010078    -0.87168    -0.14054   0.0036737
0.038103   -0.024909   -0.057715   -0.011917    -0.97595    -0.13534   0.0072465
0.044924   -0.026533   -0.053168   -0.017114    -0.98926    -0.11586    0.010819
0.053044   -0.027508   -0.042124    -0.01484    -0.94411   -0.087922    0.013418
0.056292   -0.026533   -0.029457  -0.0093186      -0.885   -0.057715    0.013093
0.047523   -0.024585   -0.021012  -0.0093186     -0.8418   -0.028482   0.0091954
0.024461   -0.021012   -0.018088   -0.015165    -0.81841  -0.0060706  0.00075039
-0.010293   -0.013866   -0.017764   -0.029132    -0.80575   0.0078962   -0.010943
-0.04927  -0.0011985   -0.018413   -0.046671    -0.78918    0.018615   -0.024585
-0.079477    0.015367   -0.017764   -0.059989     -0.7645    0.031607   -0.034329
-0.093444    0.029333   -0.017764    -0.06681    -0.73494    0.045574   -0.035303
-0.089221    0.032582   -0.017764   -0.068758    -0.69564    0.057267   -0.030756
-0.075255    0.022837   -0.019063   -0.069408    -0.62775     0.06084   -0.026209
-0.057715   0.0052977   -0.017764   -0.071357    -0.51862    0.053369   -0.026533
-0.033679   -0.012567  -0.0099683   -0.073955    -0.36466    0.039727   -0.029457
0.00010078   -0.024585      0.0014   -0.073955    -0.17952    0.027709   -0.032055
0.036804   -0.034329    0.011144   -0.067784    0.011794    0.024137   -0.027833
0.063763   -0.042124    0.014392   -0.054792     0.17939    0.028684   -0.015165
0.071558    -0.04862    0.013093   -0.038227     0.30704    0.039078   0.0056225
0.054668   -0.052518   0.0085458   -0.018738     0.39214    0.054668    0.028684
0.014717   -0.050569   0.0065969 -0.00022403     0.43729    0.069934    0.050446
-0.038227   -0.040175   0.0072465    0.019264     0.45061    0.081952    0.067336
-0.085973   -0.021661    0.012443     0.03583     0.43729    0.090397    0.074482
-0.11131   0.0010752    0.020239    0.050121     0.40319    0.096893    0.069285
-0.10936    0.021538    0.027385     0.06084     0.35057     0.10306    0.051745
-0.089221    0.031282    0.031282    0.067336     0.28138     0.10631    0.033231
-0.065835    0.029009    0.033556    0.067336     0.19563     0.10079    0.019264
-0.050894     0.01894    0.032906    0.065062    0.097543    0.086824    0.015042
-0.044723   0.0039985    0.032906    0.062139  -0.0047713     0.06896    0.015042
-0.044073   -0.010943     0.03453    0.057917    -0.10026    0.053044    0.015042
-0.045047   -0.024585     0.03453    0.054019      -0.174    0.041351    0.011144
-0.045697   -0.039851    0.030308    0.050446    -0.21557     0.03453   0.0010752
-0.045372   -0.055116    0.020239    0.045574    -0.21232    0.027709    -0.01484
-0.043748   -0.067459   0.0065969    0.042001    -0.15061     0.01764    -0.03173
-0.039851   -0.069408  -0.0037969    0.040377   -0.025234   0.0039985   -0.044073
-0.03303   -0.052843  -0.0044465      0.0433     0.15438  -0.0080194   -0.050894
-0.020687    -0.02361   0.0026992    0.046873     0.36291    -0.01549   -0.054142
-0.0018481    0.008221    0.011144    0.047523     0.55682   -0.018413   -0.052193
0.021213    0.033881    0.015042    0.044924     0.69844   -0.016464   -0.045047
0.0433    0.048822    0.015367    0.042651      0.7634  -0.0093186   -0.032705
0.06084    0.053369    0.013418    0.045249     0.75625      0.0014   -0.016464
0.071883    0.049472    0.014392    0.053044     0.69616    0.016666  0.00010078
0.073832    0.039402     0.01829    0.059865     0.61334    0.036479    0.014392
0.067011    0.026735    0.020888    0.064737     0.53116    0.055968    0.021538
0.054993    0.015367    0.019589    0.066686     0.46458     0.06831    0.018615
0.039402   0.0036737    0.016991    0.064088     0.41585    0.071883   0.0065969
0.020888   -0.010293    0.013743    0.053694      0.3876    0.068635   -0.010943
0.0052977   -0.029457    0.011144    0.039727     0.38078    0.062139   -0.027508
-0.0034721    -0.04862   0.0065969    0.025436     0.39052    0.055318   -0.038876
-0.0076946   -0.061288  -0.0015233    0.014068     0.41001    0.050121     -0.0405
-0.0083442   -0.065835  -0.0089938   0.0069217     0.44021    0.047847   -0.035628
-0.0044465   -0.058689  -0.0096434   0.0075714     0.47627    0.051096   -0.026858
0.0036737     -0.0405  -0.0018481    0.015367      0.5068    0.057267   -0.016464
0.013093    -0.01549    0.013093    0.026085     0.52012    0.067011  -0.0057458
0.021538   0.0095202    0.031932    0.038428     0.51005    0.079354   0.0062721
0.026085    0.029333    0.047198    0.048822     0.47432    0.090722    0.019589
0.026735    0.040377    0.046548    0.054344     0.41293     0.10177    0.031282
0.021538     0.03583    0.026735     0.05142      0.3327     0.11021    0.037454
0.013093    0.019264  -0.0028225    0.041351     0.24501     0.11476    0.037454
0.0059473   0.0010752   -0.028807    0.033231     0.16315     0.11183    0.036154
0.0049729  -0.0099683   -0.039526    0.029983    0.099167    0.099492    0.039727
0.013093   -0.013541   -0.033354    0.030633    0.053044    0.080328    0.046548
0.032582   -0.013216   -0.013216    0.033231   0.0059473    0.061165    0.056292
0.055968   -0.011917    0.010495    0.038428   -0.078503    0.046223    0.066362
0.071883   -0.014191    0.026085    0.044275    -0.23766    0.031607    0.070909
0.079679   -0.019063    0.026735    0.047198    -0.46437    0.013418    0.068635
0.082602   -0.023935     0.01764    0.046223    -0.70473   -0.007045    0.063763
0.087149   -0.020037   0.0085458    0.044599    -0.88045   -0.027508    0.057267
0.095269   0.0033489   0.0036737    0.045574    -0.92982   -0.046347    0.049796
0.099817    0.044924    0.008221    0.045574     -0.8431   -0.057065    0.046873
0.09397    0.093321    0.021863    0.042651    -0.65828   -0.055441    0.048497
0.076106     0.13295    0.036154    0.040052    -0.44489   -0.040175    0.050771
0.048172     0.14919    0.044924    0.038753    -0.25552   -0.016789     0.05207
0.019589     0.13912    0.045249      0.0433     -0.1217   0.0046481    0.054668
-0.0063954     0.10956    0.037778    0.051096   -0.051868    0.017965    0.055318
-0.024909    0.070584    0.023487    0.052395    -0.05739     0.01764    0.050771
-0.040175    0.031282   0.0056225    0.040377    -0.13404  -0.0015233    0.037454
-0.050244  -0.0041217    -0.01549    0.012768       -0.25   -0.035953    0.018615
-0.058365   -0.031081   -0.034654   -0.021986    -0.35816   -0.073631   0.0049729
-0.062912   -0.048296   -0.044398   -0.051219    -0.42117    -0.10611   0.0026992
-0.062262   -0.054467   -0.043099   -0.069408    -0.41988    -0.12495   0.0056225
-0.055116   -0.050244   -0.037577    -0.07428    -0.35102    -0.12852   0.0062721
-0.043748   -0.037577   -0.035303   -0.067134    -0.22856    -0.12333  0.00075039
-0.031081   -0.020687   -0.037577   -0.054142   -0.085648    -0.11326  -0.0083442
-0.024585  -0.0083442   -0.041799   -0.039201     0.03453    -0.10319   -0.010293
-0.022636  -0.0089938   -0.047321   -0.030431     0.10144   -0.092794  -0.0021729
-0.021661   -0.022636   -0.056416   -0.033679     0.10404   -0.086948   0.0046481
-0.017439   -0.044073   -0.068109   -0.044723    0.057592   -0.085324   0.0043233
-0.013216   -0.062262   -0.080127   -0.055441  -0.0050961   -0.084674      0.0014
-0.012567   -0.067459   -0.087922   -0.065835   -0.053817   -0.080776      0.0014
-0.020362   -0.052193   -0.089871    -0.07428   -0.071357   -0.072331    0.010819
-0.039851   -0.022636   -0.077528   -0.077528   -0.054142   -0.057715    0.028359
-0.072981   0.0095202   -0.053817   -0.071357   -0.015815   -0.039201    0.048497
-0.11293    0.036479   -0.022961   -0.055441    0.026735   -0.020362    0.061165
-0.15191    0.054668   0.0062721   -0.030431    0.057917  -0.0031473    0.061489
-0.18244    0.067336    0.031282  -0.0011985    0.066362   0.0088706     0.05207
-0.19381    0.076431    0.049147    0.022837    0.051096    0.015692    0.039402
-0.18309    0.086175    0.059541    0.034855    0.015042    0.017316    0.026085
-0.15418    0.097218    0.061165     0.03453   -0.037902    0.013093    0.013418
-0.11878     0.10339     0.05272    0.026735    -0.10514   0.0039985 -0.00022403
-0.082725    0.095919    0.030633    0.014392    -0.17952   -0.008669   -0.014191
-0.046022    0.065387  -0.0031473   0.0039985     -0.2474   -0.021661   -0.025559
-0.0093186    0.010495   -0.043423  -0.0047713     -0.2984   -0.029782   -0.028482
0.024137   -0.059989   -0.076229  -0.0067202    -0.31886   -0.032055   -0.021337
0.057267    -0.11651   -0.090196  -0.0018481    -0.29353   -0.031406   -0.011267
0.092996    -0.13372   -0.082076    0.012443     -0.2146    -0.03238 -0.00087364
0.1297    -0.10449   -0.053492     0.03518   -0.092469    -0.03303   0.0075714
0.15861   -0.043099   -0.013866     0.06084     0.05272   -0.027508    0.015692
0.17485    0.022512    0.021538    0.081303     0.20181   -0.010618    0.022188
0.17095    0.068635    0.042651    0.091372     0.34115    0.017316     0.02641
0.14302    0.083576    0.049472    0.089748      0.4571    0.046223    0.023812
0.098842    0.072533    0.047198    0.079354     0.53311    0.065387    0.016341
0.056292    0.052395    0.037129    0.063113     0.55844    0.071558   0.0069217
0.024786    0.036154    0.021213      0.0433     0.53636    0.062789  0.00010078
0.0091954     0.02706   0.0062721    0.024461     0.49153    0.042001  -0.0073698
0.008221    0.022188  -0.0021729    0.011144     0.45516    0.020564   -0.017764
0.012443    0.017965  -0.0037969   0.0043233     0.43632   0.0075714   -0.031081
0.01764    0.014717    0.003024 -0.00022403     0.41975   0.0059473   -0.039851
0.01829   0.0095202    0.015692  -0.0083442     0.38272    0.015692   -0.043423
0.014717   0.0036737    0.025761   -0.019063     0.31257    0.033231   -0.042449
0.0059473  -0.0044465    0.028359   -0.029782     0.21577    0.051745    -0.04115
-0.0034721   -0.014191    0.024137   -0.038227     0.11281    0.064737   -0.041475
-0.0083442   -0.026533     0.01894   -0.042124     0.02706     0.06961   -0.043099
-0.0054209   -0.037577    0.012768   -0.043099   -0.029782    0.069285   -0.044398
0.0020496   -0.044073   0.0078962   -0.043748   -0.062587    0.064413   -0.042774
0.0075714   -0.043748   0.0017248   -0.046347   -0.079152    0.055968   -0.037252
0.009845   -0.036278  -0.0037969   -0.050244   -0.084674    0.046873   -0.030431
0.009845   -0.023285  -0.0083442   -0.050569   -0.082076    0.039727   -0.027183
0.016991  -0.0067202  -0.0099683   -0.043423   -0.073306     0.03583   -0.025884
0.036154   0.0095202  -0.0099683   -0.034329   -0.057715     0.03583   -0.023935
0.066037    0.021863  -0.0063954    -0.02426    -0.04115     0.03518   -0.017439
0.097543    0.026085  0.00010078   -0.015165   -0.027833    0.028034  -0.0076946
0.1219     0.02641   0.0085458  -0.0089938   -0.019712    0.013418   0.0026992
0.12872    0.028684    0.016666  -0.0057458   -0.018088  0.00075039    0.012443
0.11378    0.037129     0.02706      0.0014   -0.018088  0.00075039    0.021863
0.084876    0.047847    0.040377    0.013743   -0.012892    0.010819    0.030308
0.049796    0.056617     0.05142     0.02706  -0.0060706     0.01894     0.03583
0.014392     0.06019    0.053044    0.037454  -0.0054209    0.012443    0.033881
-0.013866    0.059865    0.042326    0.046873   -0.019712    -0.01549    0.024786
-0.032705    0.054993    0.023162    0.055318   -0.046022   -0.064861   0.0091954
-0.041799    0.046548   0.0039985    0.063763   -0.080776    -0.12495  -0.0063954
-0.040825    0.033231  -0.0067202    0.071883    -0.12625    -0.18699    -0.01614
-0.027508     0.01894  -0.0083442    0.074157    -0.19283    -0.24123   -0.019063
-0.007045   0.0049729  -0.0028225    0.071234      -0.288    -0.27826   -0.017114
0.012443  -0.0080194   0.0017248    0.064737    -0.40981    -0.29775   -0.012567
0.025761   -0.019388   0.0039985    0.057917     -0.5407     -0.2997   -0.007045
0.029658   -0.024909   0.0056225     0.05207    -0.65601    -0.28346  -0.0018481
0.026735   -0.021661    0.008221    0.050446    -0.73169    -0.25325   0.0049729
0.021213   -0.008669   0.0085458    0.053694    -0.75475    -0.21752    0.012119
0.016666    0.011794   0.0023744    0.056292    -0.73266    -0.18049    0.019589
0.013093     0.03583  -0.0076946    0.056292    -0.68264    -0.14411    0.024786
0.0095202    0.054993   -0.016464    0.054668    -0.61573    -0.10384    0.025436
0.0072465    0.065062   -0.016789    0.049796    -0.53616   -0.061288    0.020564
0.0065969    0.063438  -0.0093186    0.043625    -0.44748   -0.021986    0.011144
0.0036737    0.050771   0.0023744    0.036804    -0.35816   0.0075714 -0.00054884
-0.0011985    0.033881    0.015692    0.031282    -0.27858    0.023812  -0.0093186
-0.0076946    0.016991    0.022837    0.029333      -0.212    0.032257    -0.01549
-0.011917   0.0020496     0.01764    0.026085    -0.15646     0.03453   -0.019712
-0.01484  -0.0093186   0.0052977    0.024461    -0.10968    0.035505   -0.023935
-0.016789   -0.017114  -0.0047713    0.028684   -0.066485    0.039078   -0.025559
-0.014516    -0.02426  -0.0073698    0.035505   -0.025884    0.047198   -0.027183
-0.0073698   -0.031081  -0.0050961    0.036804    0.016016    0.057592   -0.030756
0.00010078   -0.037902  -0.0011985    0.030633    0.061814    0.064088   -0.034978
0.0043233   -0.043099  -0.0018481     0.01764     0.11606    0.067986   -0.039526
0.0065969   -0.042774  -0.0096434      0.0014     0.17192    0.067986   -0.039201
0.0091954   -0.036278   -0.021012   -0.012892     0.22259    0.066362   -0.030756
0.011794   -0.027508   -0.030756   -0.022636     0.26125     0.06084   -0.017114
0.0095202   -0.018738   -0.037252   -0.028482     0.28918    0.053044  -0.0057458
0.0043233   -0.010943   -0.038876   -0.030756     0.30997    0.045574  -0.0024977
-0.0037969  -0.0011985   -0.035628   -0.030106     0.32588    0.042651  -0.0063954
-0.015165   0.0095202   -0.027833    -0.02426      0.3379    0.047847   -0.013866
-0.03238    0.020239   -0.020362   -0.014516       0.347    0.059865   -0.021337
-0.051219    0.029983   -0.011267  -0.0021729     0.35512    0.072208   -0.022961
-0.065835    0.036804  -0.0021729     0.01017     0.35934    0.083251    -0.01614
-0.071682    0.041027   0.0023744    0.019264     0.35317     0.08585  -0.0011985
-0.069733    0.042975      0.0014    0.021863     0.32913    0.078704    0.016341
-0.064536    0.042001  -0.0034721    0.016666     0.28236    0.063763    0.033556
-0.053492    0.038753  -0.0080194   0.0059473     0.21252    0.047198    0.044599
-0.039526    0.030308  -0.0093186  -0.0044465     0.12353    0.032582    0.045574
-0.023935     0.01894   -0.010943   -0.010293    0.019914    0.023162    0.038428
-0.0063954    0.008221   -0.014191   -0.011267    -0.10189    0.017316    0.029009
0.011469   0.0049729   -0.017764  -0.0099683    -0.23993     0.01017    0.020564
0.031607     0.01017   -0.016464   -0.012242    -0.37538  -0.0018481    0.014068
0.05142     0.02641  -0.0096434   -0.012892    -0.47444   -0.013866    0.011469
0.065387    0.052395  -0.0011985   -0.012892    -0.50725   -0.020037    0.010819
0.070259    0.080653   0.0036737   -0.013541     -0.4621   -0.021661    0.011794
0.063438    0.097868   0.0033489   -0.013216    -0.36303   -0.016789    0.012443
0.040377    0.095269  -0.0021729   -0.011592    -0.25975  -0.0057458    0.012119
0.0033489    0.070259   -0.011267  -0.0057458    -0.19933    0.011794     0.01017
-0.038876    0.029009   -0.018738   0.0056225    -0.20128    0.034206    0.011144
-0.079477   -0.018413   -0.025234    0.020564    -0.25877    0.058566    0.022188
-0.10774   -0.060963   -0.028157    0.033881    -0.34257    0.082602    0.040702
-0.11683   -0.090521   -0.023935    0.038103     -0.4176    0.099167     0.06019
-0.11131    -0.10709   -0.015815    0.031282    -0.46243     0.10144    0.067986
-0.10156    -0.11326  -0.0067202     0.01764    -0.47867    0.091047    0.058891
-0.097666    -0.11228   0.0010752   0.0039985    -0.48419    0.073507    0.036479
-0.10124    -0.10709   0.0033489  -0.0031473    -0.48289    0.055968    0.010819
-0.10936   -0.097341  -0.0034721  -0.0093186    -0.46145     0.04395   -0.010293
-0.11163   -0.088247   -0.017764   -0.021661    -0.39844    0.037454   -0.025559
-0.10676   -0.082076   -0.034329   -0.038227    -0.27696    0.032582   -0.034978
-0.10319   -0.078503   -0.047321   -0.054142   -0.094418    0.026085   -0.042124
-0.11163   -0.069083   -0.051219   -0.060638      0.1336    0.016341   -0.043423
-0.1321    -0.04927   -0.044723   -0.056741     0.38565     0.01017   -0.036602
-0.15938   -0.017114   -0.027508   -0.045372     0.63965    0.015367   -0.019712
-0.18114    0.018615  -0.0024977    -0.03173     0.85987    0.029658    0.003024
-0.18894    0.049147    0.022837   -0.021012      1.0119    0.043625    0.024137
-0.17627    0.063438    0.041676   -0.018738      1.0843    0.049147     0.03583
-0.14899    0.063438    0.050771   -0.024585      1.0885    0.043625    0.032906
-0.11261    0.057267    0.048822   -0.032055      1.0479    0.028684    0.017316
-0.070707    0.054344    0.041027   -0.036927      1.0018    0.015042  -0.0021729
-0.017764    0.056617    0.029983   -0.036602     0.98459    0.016991   -0.014516
0.042326    0.058891     0.01764   -0.029457     0.98557    0.041027    -0.01484
0.097218     0.05272   0.0062721   -0.016789     0.95439    0.079679  -0.0063954
0.13262    0.036479  -0.0031473 -0.00054884     0.85207      0.1206   0.0033489
0.14269    0.012443  -0.0096434    0.016666     0.67473     0.14886     0.01017
0.12905   -0.012567   -0.007045    0.030308     0.45126     0.16088    0.014392
0.10014   -0.026858   0.0026992    0.038103     0.23234     0.15926    0.016991
0.072858   -0.026209    0.021538    0.043625    0.058891     0.14691    0.016666
0.056617   -0.013866    0.040702    0.048172   -0.061288     0.12613    0.013418
0.051096 -0.00087364    0.055318    0.049796    -0.15061     0.10209   0.0095202
0.05207      0.0014    0.059541    0.046548     -0.2461    0.080003   0.0091954
0.061489   -0.014516    0.051745    0.036154    -0.36726    0.064413    0.012768
0.076755     -0.0405    0.036479    0.020239     -0.5066    0.054993    0.021863
0.098842   -0.061288     0.01764   0.0052977    -0.62223    0.047523     0.03453
0.12613   -0.063561   0.0036737  -0.0024977     -0.6742    0.040377    0.049796
0.15568   -0.039526  0.00075039  -0.0011985     -0.6388    0.032906    0.064737
0.18199   0.0075714   0.0075714   0.0088706    -0.52251     0.01829    0.080003
0.19888    0.062464    0.020239    0.021863    -0.35199  -0.0057458    0.091047
0.20376     0.10761    0.031282    0.033231    -0.15841   -0.040175    0.096893
0.19693     0.13457    0.032906    0.038428     0.03453   -0.077853    0.098517
0.18492     0.14269    0.026085    0.038428      0.2122    -0.11456    0.097543
0.169     0.13912    0.016666     0.03518     0.36681    -0.14671    0.097868
0.15179     0.13197    0.010819    0.029983     0.49381    -0.17465     0.10112
0.131     0.12678    0.009845    0.023812     0.59158    -0.20225     0.10859
0.10631     0.12483    0.013418    0.016341     0.66271    -0.23279     0.11768
0.083576     0.12483    0.022837    0.009845     0.70851    -0.26429     0.12255
0.070259      0.1284    0.036154   0.0046481     0.72929    -0.29288     0.12028
0.071234     0.13295    0.047198   0.0052977     0.71987    -0.31171     0.10956
0.084551     0.13684    0.047198   0.0088706     0.66823    -0.31561    0.092671
0.10339     0.13392    0.036479    0.009845      0.5422    -0.30977    0.072208
0.11573      0.1219    0.022188   0.0069217     0.29795    -0.30262    0.056617
0.11508     0.10599    0.013093  0.00010078   -0.073631    -0.30197    0.046223
0.097543    0.087474   0.0085458  -0.0034721    -0.52219    -0.31106    0.038753
0.070584    0.070259   0.0065969  -0.0041217    -0.94704    -0.33348    0.027385
0.040377    0.055968   0.0056225  -0.0041217     -1.2446    -0.35979    0.012443
0.013418    0.041676   0.0026992  -0.0018481     -1.3488    -0.37473  -0.0011985
-0.008669    0.026735  -0.0015233   0.0046481     -1.2631    -0.36336   -0.010943
-0.030431     0.01017  -0.0067202    0.013743     -1.0458    -0.31983    -0.01614
-0.053492  -0.0031473   -0.012242    0.023162    -0.76807    -0.24773   -0.020362
-0.077203   -0.015165   -0.018413    0.029983    -0.48938    -0.15938   -0.024585
-0.093444   -0.022311   -0.020687    0.036154    -0.24643   -0.069408   -0.031406
-0.093119   -0.023285   -0.019063    0.041027   -0.047646   0.0059473   -0.039526
-0.078503   -0.022311   -0.010618    0.045574     0.11378    0.057592   -0.047971
-0.054792    -0.02426   0.0026992    0.050121     0.23818    0.088124   -0.054467
-0.027833   -0.029132    0.016991    0.054344     0.31906     0.10144   -0.056741
-0.0050961   -0.038227     0.02641    0.057267     0.34894     0.10794   -0.052843
0.0091954   -0.046671    0.029658    0.059216     0.31874     0.11801     -0.0405
0.014392   -0.052193    0.027709    0.061489     0.23136      0.1336   -0.028157
0.017316   -0.055441    0.021863     0.06019     0.10436     0.15016   -0.022311
0.020564    -0.05739    0.015692    0.050121   -0.048945     0.15926   -0.021661
0.020564   -0.057065    0.013418    0.031282    -0.21914     0.15276   -0.020037
0.015367   -0.054467    0.013093   0.0088706    -0.37635      0.1323    -0.01484
0.0075714   -0.050244   0.0095202   -0.012242    -0.47412     0.10306   -0.008669
-0.0015233    -0.04115   0.0039985   -0.026533    -0.48224    0.075781  -0.0028225
-0.0096434   -0.025884  -0.0024977   -0.029782    -0.40591    0.054993 -0.00087364
-0.013866  -0.0083442  -0.0067202   -0.024585    -0.27761    0.043625 -0.00022403
-0.011592   0.0039985   -0.010943   -0.016789    -0.14476    0.044599   0.0017248
-0.0057458   0.0046481   -0.019388   -0.010943     -0.0405    0.056617   0.0046481
0.0014  -0.0037969   -0.030106  -0.0067202    0.022837    0.076431   0.0065969
0.0072465   -0.018088   -0.035303   0.0010752    0.040052    0.097218   0.0046481
0.011144   -0.031406   -0.033354   0.0091954   0.0088706     0.11021  -0.0041217
0.013743   -0.037252   -0.024585    0.014068   -0.063886     0.11378   -0.018088
0.016666   -0.035628   -0.012567    0.015042    -0.16035     0.11118    -0.03303
0.019264   -0.027508  -0.0011985    0.015692    -0.25065     0.10794   -0.043423
0.016991   -0.017439   0.0043233    0.018615    -0.30522     0.10501    -0.04992
0.0088706  -0.0093186    0.003024    0.022188    -0.30165    0.099167   -0.055441
-0.0024977  -0.0076946  -0.0021729     0.02706    -0.23993    0.089098   -0.060638
-0.011592   -0.015815  -0.0099683     0.02706    -0.14022    0.076431   -0.065835
-0.015165   -0.031406   -0.016464    0.021863   -0.028807    0.062464    -0.07428
-0.015165   -0.048945   -0.019063     0.01764    0.070259    0.044924   -0.084024
-0.013541   -0.060638    -0.01484     0.01829     0.14984    0.025436   -0.089546
-0.010293   -0.060963  -0.0067202    0.022512     0.21188   0.0095202   -0.090521
-0.0037969   -0.053492  0.00075039    0.030308      0.2528  -0.0015233   -0.088896
0.00010078   -0.042124   0.0026992     0.03453      0.2606  -0.0028225   -0.084024
-0.0021729    -0.03303 -0.00022403    0.033231     0.22487   0.0036737   -0.076229
-0.010943   -0.029132   -0.007045    0.024786     0.15211    0.016016   -0.070707
-0.027183   -0.031081   -0.016464    0.011144    0.056292    0.029658   -0.071357
-0.047321   -0.035953   -0.026858  -0.0050961   -0.046022    0.042326   -0.077528
-0.06616   -0.038551   -0.033679   -0.015165    -0.14184     0.05207   -0.085324
-0.080451   -0.036927   -0.039201   -0.016789    -0.21525    0.055643   -0.092145
-0.088572   -0.035303   -0.043748   -0.011267    -0.25455    0.053369   -0.095717
-0.089546   -0.033679   -0.046347  0.00010078    -0.25682    0.050446   -0.092794
-0.092145   -0.030106   -0.038876    0.016016    -0.22889    0.047847   -0.084024
-0.10026   -0.024585    -0.02361    0.032906    -0.16685    0.045249   -0.068109
-0.11293   -0.022311  -0.0083442    0.044924   -0.062912    0.039727   -0.048296
-0.12917   -0.021986  0.00042559     0.05272      0.0852    0.029658   -0.027508
-0.14379    -0.02361   0.0046481    0.053369     0.26677    0.018615   -0.011267
-0.14899    -0.02361   0.0072465    0.048172     0.46425   0.0088706  -0.0031473
-0.14314   -0.018088   0.0072465    0.037454     0.65491   0.0036737   0.0023744
-0.12398  -0.0073698   0.0026992    0.022837     0.81537   0.0056225   0.0059473
-0.090845   0.0075714  -0.0034721    0.013093      0.9284    0.015692   0.0056225
-0.052518    0.020888  -0.0096434   0.0075714     0.98427    0.032906      0.0014
-0.022311    0.032257   -0.007045    0.010495     0.98069    0.056292  -0.0067202
-0.0060706    0.040702    0.010495    0.019264      0.9284    0.078704   -0.016464
0.00042559    0.048497    0.039727    0.031282     0.84038    0.095269    -0.02426
0.0049729     0.05272    0.066037     0.03453     0.73319    0.099167   -0.025884
0.0095202    0.053044    0.076106    0.027709     0.61756    0.085525   -0.019063
0.015692    0.045249    0.063763    0.014068     0.49901    0.061165  -0.0044465
0.024786    0.023162    0.038753  -0.0018481     0.38142    0.029658    0.014392
0.038428  -0.0073698    0.010819   -0.017114     0.25832  -0.0018481    0.032257
0.055968   -0.034004   -0.014516   -0.031081     0.11118   -0.033354    0.047198
0.074157   -0.044398   -0.035303   -0.042449   -0.078503    -0.06681    0.061165
0.084876   -0.034654   -0.051868   -0.053817    -0.32568    -0.10156    0.074157
0.080328   -0.011917   -0.063237   -0.061937    -0.61411    -0.13404    0.081952
0.054344    0.011794   -0.072656   -0.069408    -0.89182    -0.16588    0.074482
0.009845    0.028034   -0.076229   -0.076554     -1.0922    -0.19576     0.05272
-0.04115    0.036804   -0.072656   -0.081751     -1.1841    -0.21427    0.026085
-0.081751    0.042651   -0.063561   -0.079477     -1.1718      -0.212   0.0075714
-0.09929    0.047847   -0.051868   -0.067459     -1.0809    -0.18277   0.0072465
-0.087922    0.054993   -0.038227   -0.045047    -0.94411     -0.1334     0.02641
-0.058365     0.06019   -0.026533   -0.021986    -0.78951   -0.078503     0.05207
-0.02361    0.056942   -0.020037  -0.0060706    -0.63295   -0.035303    0.072858
0.003024    0.040052   -0.018413  -0.0011985    -0.47769   -0.013541    0.081303
0.013743    0.016016   -0.019063  -0.0034721    -0.31983   -0.011592    0.080003
0.0056225  -0.0067202   -0.019063  -0.0067202    -0.15873   -0.015165    0.075456
-0.014516   -0.021012   -0.016789  -0.0083442  -0.0028225   -0.018413    0.073832
-0.031406   -0.027833   -0.010943   -0.010618     0.13197   -0.018413    0.078704
-0.030756   -0.029782  -0.0044465   -0.013541     0.22779    -0.01614    0.080978
-0.0063954    -0.03238 -0.00087364    -0.01614     0.27814   -0.017114    0.074157
0.03518   -0.034329  -0.0076946   -0.017764      0.2947   -0.028482    0.055643
0.072533   -0.037902   -0.022961   -0.018413      0.3038   -0.050244    0.028034
0.087799   -0.041475   -0.037577   -0.017439     0.32653   -0.072006 -0.00087364
0.079354   -0.045047    -0.04115  -0.0099683     0.36356   -0.080776   -0.017764
0.058241   -0.042124   -0.030431   0.0078962     0.39702    -0.06616   -0.019388
0.042001   -0.030106  -0.0096434    0.034206     0.40643   -0.033679  -0.0067202
0.042651  -0.0093186    0.014392    0.061165     0.38078   0.0036737    0.009845
0.058566   0.0091954    0.036154    0.080978     0.31841    0.032582    0.021863
0.076755    0.017965    0.045899    0.088773     0.22812    0.047523    0.026085
0.081627    0.011469     0.03453    0.083251     0.12515     0.04395    0.019264
0.063438  -0.0080194   0.0046481    0.066686    0.030957    0.025111   0.0026992
0.024786   -0.032055   -0.031081    0.044599   -0.035303   0.0026992   -0.017439
-0.021012   -0.048945   -0.056741    0.027385   -0.062262   -0.010293    -0.03303
-0.060638   -0.048296    -0.06616     0.01764   -0.052193  -0.0073698   -0.035628
-0.08305   -0.025884   -0.057065    0.015042   -0.016789    0.014068    -0.02361
-0.089546    0.012443   -0.031081    0.020888    0.032257    0.048172   0.0010752
-0.085973    0.056942   0.0046481    0.031932    0.076755    0.084551    0.030957
-0.076554    0.096569    0.035505    0.041676     0.10339     0.10761    0.054344
-0.061288     0.12223    0.052395    0.044275     0.10859     0.11313    0.064413
-0.039851     0.13197    0.053369    0.039402     0.09462     0.10242    0.061814
-0.017439     0.12743    0.043625    0.033556    0.060515      0.0865    0.053044
0.0020496     0.11476    0.031932    0.030633   0.0088706    0.074806    0.042651
0.015042     0.10047    0.027385    0.032582   -0.058689     0.06896    0.028684
0.019914      0.0865    0.030957    0.040702    -0.13567    0.064088     0.01017
0.01894    0.074157    0.038103    0.046873    -0.20908    0.054668  -0.0063954
0.019264    0.065062    0.047198    0.045574    -0.27274    0.040052    -0.01549
0.023812    0.058891    0.054668    0.037778    -0.32308    0.025761   -0.015165
0.033556     0.05142    0.059216    0.027709    -0.35816    0.015042  -0.0099683
0.04395    0.040377    0.059541    0.020239      -0.377   0.0056225 -0.00022403
0.05142    0.025111    0.056292    0.017965    -0.37668  -0.0050961   0.0095202
0.053694   0.0065969     0.05142     0.01829    -0.35686   -0.021661    0.011469
0.050121  -0.0096434    0.045249     0.01764    -0.32178   -0.043423   0.0023744
0.039078   -0.022961    0.036479    0.012768    -0.27631    -0.06616   -0.014191
0.018615   -0.029132    0.029009   0.0078962    -0.21752   -0.084674   -0.032705
-0.0060706   -0.030431    0.022837   0.0049729    -0.14119   -0.097341    -0.04992
-0.028807   -0.028482    0.015042  0.00010078   -0.045697    -0.10611   -0.062912
-0.044398   -0.026858   0.0052977   -0.011267    0.059541    -0.11293   -0.069083
-0.051868   -0.029782  -0.0096434   -0.025884     0.15568    -0.11878   -0.068758
-0.04927   -0.035953   -0.026533   -0.039201     0.22389    -0.12268   -0.065186
-0.037252   -0.044398   -0.040175   -0.048945     0.25215    -0.11975   -0.057715
-0.015815   -0.053492   -0.046671   -0.052843     0.23624    -0.11163   -0.044723
0.012119   -0.060963   -0.047971   -0.051219     0.18492    -0.09994   -0.027508
0.037129   -0.062912   -0.046022   -0.044398     0.11963   -0.084999   -0.010618
0.056292   -0.055116   -0.042124   -0.032055    0.067011   -0.071032      0.0014
0.070909   -0.038551    -0.03303   -0.017439    0.042975   -0.059014   0.0017248
0.0852   -0.016789   -0.020037  -0.0044465    0.045249   -0.047646   -0.007045
0.09397    0.003024  -0.0050961   0.0062721    0.062464   -0.034654   -0.012567
0.092021    0.020239   0.0095202    0.013743    0.082277   -0.017114  -0.0028225
0.081303    0.034855    0.022837    0.022512    0.094945   0.0059473    0.022188
0.064413    0.050446    0.033231    0.037778    0.096569    0.031607    0.055968
0.049147    0.065712    0.041027    0.058241    0.087149    0.059865    0.089423
0.039402    0.081952    0.048497    0.083901    0.071234    0.083576     0.11216
0.035505    0.097218    0.054993     0.10631    0.052395    0.097868     0.11898
0.03583     0.11054    0.063763      0.1206    0.036154     0.10274     0.10989
0.037454     0.11736    0.069934      0.1245    0.024786     0.10177    0.089423
0.037778     0.11313    0.068635      0.1206    0.019589    0.092671    0.065712
0.038428     0.10112    0.059541     0.11086     0.01829    0.080653    0.044924
0.047847    0.087799    0.050771    0.097218    0.019589    0.073507    0.036804
0.067661    0.079029    0.044275    0.078704    0.024137     0.07773    0.042975
0.095919    0.079029    0.038428    0.059865    0.038753    0.089748     0.06019
0.1245    0.086824    0.033556    0.048497    0.067661    0.098517    0.078055
0.14724    0.097218    0.028359    0.046223     0.10534     0.10177    0.088773
0.15926     0.10534    0.023162    0.048172     0.13717    0.097218    0.090397
0.15536     0.10566    0.014392    0.046548     0.14594    0.088448     0.08585
0.13879     0.09462 -0.00087364    0.037129     0.12125    0.079679    0.076755
0.10924    0.071883   -0.017764    0.020564    0.063763    0.069934    0.064413
0.070584    0.039727   -0.031406   0.0062721   -0.010618    0.057917    0.050446
0.031607   0.0069217   -0.035953   0.0010752   -0.078178    0.046223    0.041027
-0.00022403   -0.014516    -0.02426   0.0059473    -0.12398    0.038428    0.036804
-0.023935   -0.019712      0.0014    0.016016    -0.14574    0.037454    0.038103
-0.038876  -0.0099683    0.028034    0.021863    -0.15093    0.036479      0.0433
-0.042774   0.0072465    0.041676    0.019264    -0.14964    0.032257    0.048497
-0.037902    0.022837    0.036804    0.013093    -0.14736    0.024137    0.048497
-0.027183    0.031932    0.021538   0.0062721    -0.14022    0.016991    0.044924
-0.019063    0.030308   0.0085458  0.00042559    -0.11683    0.009845    0.042001
-0.021012    0.016341   0.0075714  -0.0067202   -0.073955   0.0043233    0.040052
-0.028157  -0.0096434     0.01829    -0.01484   -0.015815  -0.0011985    0.037129
-0.034329     -0.0405    0.031607   -0.025884    0.050121   -0.010293    0.033231
-0.035953   -0.069733    0.039402   -0.041799     0.11963    -0.02361    0.028359
-0.034004   -0.089546    0.036804   -0.059664     0.19661   -0.041475     0.01894
-0.029457   -0.092794    0.025436   -0.072656     0.28041   -0.058365   0.0052977
-0.021337   -0.079477    0.010819   -0.074605     0.35771   -0.063237  -0.0073698
-0.0099683   -0.054142  -0.0028225   -0.064211     0.40546   -0.052518    -0.01614
0.0049729   -0.025234   -0.012892    -0.04927     0.39961   -0.030431   -0.018738
0.022188  -0.0018481   -0.017439   -0.038227     0.32426   -0.012567   -0.017439
0.039727    0.012119   -0.020362   -0.032055     0.18232   -0.012242   -0.014191
0.050446     0.01829   -0.023285   -0.027508  -0.0076946    -0.03238   -0.010943
0.050771    0.019914   -0.024909   -0.017764    -0.21687   -0.062912  -0.0096434
0.038753    0.024137   -0.022636  -0.0021729    -0.41988   -0.093444  -0.0073698
0.013418    0.032582   -0.016464    0.016991    -0.60567    -0.11196  -0.0024977
-0.020687    0.042326  -0.0093186    0.033231    -0.77164    -0.11586   0.0026992
-0.055766    0.049796  -0.0060706    0.040052     -0.9204    -0.11456   0.0010752
-0.084349    0.049147  -0.0073698    0.036154     -1.0429    -0.11748  -0.0099683
-0.10644    0.038753   -0.012892    0.025436     -1.1215    -0.12625   -0.027183
-0.12398     0.01764   -0.020037    0.011469     -1.1361    -0.13599   -0.050244
-0.13502   -0.010943   -0.025559  -0.0018481     -1.0672    -0.13469   -0.073306
-0.13534   -0.038876   -0.028807   -0.012242    -0.90806    -0.11553   -0.087597
-0.1191   -0.055116   -0.029782   -0.020362    -0.66835   -0.079477   -0.086298
-0.086948   -0.054142   -0.026209   -0.026209    -0.38122   -0.035303    -0.07428
-0.040825   -0.038551   -0.018738   -0.030756   -0.093444    0.008221   -0.060963
0.0065969   -0.017764   -0.012242   -0.038227     0.15309    0.042975   -0.054142
0.045249      0.0014  -0.0096434   -0.050569     0.33725     0.06084   -0.051544
0.070584    0.014717   -0.014516   -0.064536     0.45646    0.057267   -0.049595
0.089098    0.023162   -0.021986   -0.073631     0.52142    0.035505    -0.04862
0.10306    0.032906   -0.030431    -0.07428     0.54935   0.0043233   -0.050569
0.11118      0.0433   -0.038876   -0.068758     0.56299   -0.025234   -0.053817
0.10242    0.055643   -0.048945   -0.061288     0.57923   -0.046347   -0.058689
0.072533    0.063438   -0.053817   -0.051868     0.60879   -0.053168   -0.062587
0.028034    0.061165   -0.047971   -0.039851     0.65946   -0.042449   -0.062912
-0.018088    0.050771   -0.036278   -0.024585     0.73449   -0.020037   -0.059339
-0.052193     0.03453   -0.024585   -0.010943     0.82479   0.0056225   -0.048296
-0.064211    0.014392   -0.016789   0.0010752     0.90956     0.02641   -0.031081
-0.060638  -0.0073698   -0.017439    0.011469     0.95796    0.037454   -0.011917
-0.051219   -0.025884   -0.024585    0.019589     0.93002    0.036804   0.0056225
-0.045697   -0.040175   -0.032055    0.028684     0.78516    0.026085    0.013418
-0.045047    -0.04927   -0.035303    0.037129     0.50648    0.008221    0.012443
-0.051544   -0.051544   -0.035303    0.040052     0.12385   -0.014191   0.0033489
-0.064211   -0.050569   -0.033354     0.03518    -0.28086   -0.043423  -0.0089938
-0.078503   -0.051544   -0.028807    0.023487    -0.60047   -0.076554   -0.021661
-0.090521   -0.058365   -0.025559    0.010819    -0.75995    -0.10546   -0.034004
-0.097666   -0.071032   -0.025559   0.0039985    -0.74208    -0.12073   -0.046671
-0.096367   -0.086623   -0.029132   0.0062721    -0.59332    -0.11521   -0.056741
-0.087272    -0.09929   -0.028482    0.016991    -0.40526   -0.097341   -0.061613
-0.071682    -0.10221   -0.021012     0.02641    -0.27404   -0.080776   -0.060963
-0.053492   -0.092469  -0.0093186    0.032906    -0.24318   -0.073631   -0.054142
-0.038551   -0.073955   0.0056225     0.03583    -0.30619   -0.076554   -0.044723
-0.030431   -0.053168    0.019264    0.036804    -0.42085   -0.082076   -0.031406
-0.029457   -0.033679    0.029658    0.036804    -0.54687   -0.084999    -0.01484
-0.028482   -0.022636    0.031607    0.032906    -0.65471   -0.080776  0.00042559
-0.018088   -0.021012    0.024461    0.021538    -0.73819   -0.071357    0.011144
0.0069217   -0.027833    0.013418   0.0052977    -0.81419   -0.058365    0.017965
0.042651   -0.038551      0.0014   -0.008669    -0.91131   -0.045047    0.022188
0.076755   -0.044073  -0.0080194   -0.017114      -1.036   -0.035628    0.023162
0.094945   -0.038876   -0.011917   -0.021337      -1.151   -0.030756    0.019914
0.091047   -0.021012   -0.011917   -0.021661     -1.1958    -0.03303    0.012443
0.064737   0.0043233  -0.0076946   -0.020687     -1.1247   -0.044398  -0.0018481
0.020564    0.031932 -0.00087364    -0.01614     -0.9256    -0.05804   -0.018413
-0.029457    0.058241   0.0085458  -0.0067202    -0.61281   -0.065835   -0.028482
-0.069083    0.079679    0.016991   0.0036737    -0.22726   -0.062912   -0.025234
-0.089221    0.092671    0.020564    0.011144     0.16185   -0.049595   -0.013216
-0.087272    0.092021     0.01894    0.012119     0.48179   -0.029132   0.0023744
-0.071032    0.075781    0.010495   0.0043233     0.68869  -0.0067202    0.015042
-0.047646    0.046223  -0.0037969  -0.0041217     0.77444    0.016666    0.024137
-0.02361    0.011144   -0.017114  -0.0067202      0.7595    0.041351    0.030957
-0.0057458   -0.017114   -0.023285  -0.0018481     0.68057    0.066037    0.036479
0.0017248   -0.034654    -0.02426   0.0072465     0.58313    0.082927    0.038103
0.0014   -0.035303   -0.022961    0.015367     0.49965    0.092671     0.03583
-0.0021729   -0.021661   -0.016464    0.020239     0.44704     0.10339    0.033881
-0.0047713  0.00075039  -0.0034721    0.021863     0.42917     0.11671    0.037454
-0.0096434    0.021538    0.014717    0.023487     0.44574      0.1323    0.045249
-0.021012    0.034855    0.033231    0.027709     0.48666     0.14594    0.053694
-0.040175    0.038428    0.044924     0.03518     0.53571     0.15438    0.057267
-0.059664     0.03453    0.048172    0.043625     0.57858     0.15926    0.055968
-0.072656    0.029009    0.044275     0.05142     0.60424     0.16283    0.053694
-0.075904    0.022188    0.036154    0.054668     0.61269     0.16998     0.05272
-0.069408     0.01017     0.02641     0.05142     0.60782     0.17907     0.05207
-0.055116  -0.0096434    0.017316    0.044599     0.59775     0.18622    0.047523
-0.038227   -0.034004   0.0059473    0.039078     0.58346     0.18297     0.03583
-0.022636   -0.055766  -0.0057458    0.034855     0.56104     0.16608    0.024461
-0.0099683   -0.068109   -0.012892    0.031607     0.53408     0.14269    0.019589
0.0026992   -0.067784   -0.012242    0.027709     0.50713      0.1206     0.02706
0.020564   -0.055116  -0.0034721    0.026735     0.48569     0.10599    0.040052
0.047523   -0.034654   0.0069217    0.029009     0.47497    0.099817    0.053369
0.078379   -0.010293    0.010819    0.030633     0.47627    0.096244    0.061165
0.10989    0.014392   0.0046481    0.025761     0.48276    0.091696    0.063763
0.13295    0.039402  -0.0080194     0.01894     0.49153     0.07708    0.061489
0.13912    0.065062   -0.019388    0.013743     0.49771     0.05142    0.053369
0.1271    0.087149   -0.025884   0.0095202     0.49413    0.021538    0.038103
0.10664    0.098517   -0.026533   0.0036737     0.47724  -0.0031473    0.017965
0.0865    0.095594   -0.017114  -0.0015233     0.44769   -0.019712  -0.0034721
0.071558    0.082927  -0.0034721  0.00010078     0.41131   -0.033354   -0.018413
0.060515    0.067986   0.0085458    0.010819     0.37038   -0.047321   -0.019712
0.056292    0.054993    0.017316    0.027709     0.32134   -0.062587  -0.0057458
0.061814    0.048172     0.02641    0.046548     0.25378   -0.078827    0.019264
0.075131    0.049147    0.036479    0.063113     0.15763   -0.092794    0.041027
0.091696    0.056292    0.045899    0.070584    0.031607    -0.10871    0.049147
0.10924    0.065062    0.050446    0.065062    -0.11293    -0.13177    0.044599
0.12613    0.069285    0.048497     0.05272     -0.2513    -0.15776    0.037129
0.14139    0.065387    0.043625    0.039727    -0.35556    -0.17789    0.033556
0.15341    0.057267    0.039402    0.030633     -0.4124    -0.18342    0.034855
0.15438    0.046873    0.033881     0.02641    -0.41565     -0.1714    0.037129
0.13847    0.033556     0.02641    0.025111    -0.37213    -0.14541    0.038103
0.10339    0.019264    0.017316    0.024137    -0.30717    -0.11261    0.036479
0.055968   0.0072465   0.0056225    0.017316    -0.24253   -0.078178    0.029658
0.008221  -0.0041217  -0.0054209   0.0069217    -0.19316   -0.051544    0.016341
-0.029782   -0.019388   -0.013216  -0.0034721    -0.16068   -0.037902   0.0033489
-0.059014   -0.038227   -0.014516  -0.0076946    -0.14087    -0.03173  -0.0024977
-0.085324   -0.056091   -0.010943  -0.0060706    -0.12203   -0.024585   0.0033489
-0.11001   -0.063237   -0.010293 -0.00087364   -0.093119   -0.012567    0.016666
-0.12917   -0.056091   -0.013216   0.0010752   -0.056416   0.0010752    0.030308
-0.13404   -0.037252   -0.017114  -0.0015233   -0.019063    0.012443    0.037454
-0.12073   -0.010618    -0.01614  -0.0015233    0.008221    0.019264    0.036804
-0.091495    0.013743   -0.010293   0.0046481    0.021863     0.01829    0.031282
-0.056741    0.033556  0.00042559    0.013418    0.022512    0.011469    0.025436
-0.029782    0.045899   0.0088706    0.021213   0.0078962  -0.0015233     0.01829
-0.017439    0.052395     0.01894    0.026735   -0.024585   -0.017764    0.011144
-0.020362    0.055968     0.02641    0.029658   -0.072981   -0.025234   0.0075714
-0.027833    0.065712    0.034206    0.029333    -0.13047   -0.021661   0.0072465
-0.03238     0.07773    0.042326     0.02706    -0.18666   -0.012242   0.0091954
-0.029782    0.083901    0.048172    0.019589    -0.23636   -0.007045    0.008221
-0.018088    0.080653     0.04395   0.0085458    -0.27176   -0.011592   0.0017248
-0.00022403    0.064737    0.029983  -0.0011985    -0.28638   -0.021661   -0.007045
0.016016    0.036154    0.010495  -0.0083442    -0.27923    -0.03303   -0.013866
0.022512  0.00075039  -0.0037969   -0.010943    -0.25812   -0.037902   -0.020687
0.017965   -0.031406  -0.0060706  -0.0057458    -0.23798   -0.036278   -0.026858
0.0056225   -0.050244   0.0010752   0.0046481    -0.23084   -0.030106   -0.029457
-0.0047713   -0.053492   0.0095202    0.022512    -0.24318   -0.026533   -0.024909
-0.0080194   -0.047646    0.016991    0.039727    -0.26624   -0.026209   -0.013541
-0.0037969   -0.042124    0.020564    0.048497    -0.28833   -0.025234  0.00075039
0.0039985   -0.040825    0.017965    0.046873    -0.30067   -0.021012    0.013093
0.009845   -0.045047    0.011794    0.037778    -0.29872   -0.013541    0.017965
0.0085458   -0.052843  -0.0018481    0.024461    -0.27923  -0.0050961    0.016666
0.0020496   -0.060638   -0.019712   0.0049729    -0.24448   0.0046481   0.0095202
-0.0024977   -0.065835   -0.036278   -0.017439    -0.19998    0.014068  -0.0015233
-0.0018481   -0.063237   -0.047971   -0.037577    -0.14931    0.018615   -0.015165
0.0010752   -0.050569   -0.052843   -0.051219   -0.088572    0.014717    -0.03303
0.0023744   -0.027183   -0.053492   -0.059989   -0.022311   0.0049729   -0.054142
-0.0063954   0.0026992   -0.054792    -0.06551    0.039078  -0.0034721   -0.071357
-0.021661    0.030633    -0.05739   -0.064861    0.079029  -0.0047713   -0.080127
-0.038227    0.045574    -0.05804   -0.058365    0.092996   0.0026992   -0.077528
-0.042124    0.049147   -0.050894   -0.047646      0.0852    0.014717    -0.06551
-0.032055    0.047523   -0.033679    -0.03173    0.067986    0.027385    -0.04927
-0.017764    0.049472  -0.0083442   -0.015815    0.058891    0.041676   -0.033354
-0.013541    0.058891    0.023487   0.0039985    0.073182    0.058241   -0.019063
-0.025234    0.075131    0.055318    0.025436     0.11411    0.077405  -0.0083442
-0.050894    0.092671    0.081627    0.045899     0.17582    0.094945  -0.0034721
-0.079477    0.097868    0.095269    0.058241     0.24143     0.10664  -0.0047713
-0.10026    0.080653    0.092996    0.057917     0.28398     0.10664   -0.011267
-0.10449    0.038753    0.075781    0.049147     0.28918    0.094945   -0.017439
-0.088572   -0.015815    0.052395    0.040377      0.2554    0.072533   -0.027183
-0.053817   -0.064861    0.033231    0.032582     0.19109    0.042326   -0.036602
-0.0073698    -0.09182    0.020564    0.024461     0.11118   0.0049729   -0.048296
0.050771   -0.090521   0.0095202    0.013418    0.029983   -0.038551   -0.061937
0.11281   -0.068109  -0.0041217  -0.0057458   -0.047321   -0.083375   -0.071682
0.16283   -0.038876   -0.022636   -0.030431    -0.11813    -0.13015    -0.07493
0.18492   -0.017764   -0.043748   -0.050894    -0.18179    -0.17205   -0.071032
0.169   -0.010293   -0.057065   -0.060963    -0.23409    -0.19543   -0.062912
0.11476   -0.014516   -0.060638   -0.058689    -0.27664    -0.19348   -0.048945
0.034206   -0.021661   -0.058689   -0.044723    -0.30814     -0.1701   -0.032705
-0.044073   -0.022636    -0.04927   -0.021012    -0.31854    -0.13827    -0.01484
-0.092794  -0.0067202   -0.034978   0.0062721     -0.2971    -0.11066  0.00075039
-0.098316    0.026735   -0.020362    0.026735    -0.24286   -0.095393    0.014068
-0.065186    0.064737   -0.017439    0.029333    -0.17497   -0.097341    0.020888
-0.010943    0.086175   -0.030106    0.010819    -0.12592    -0.11163     0.01829
0.0433    0.076755   -0.056091   -0.016464    -0.10611    -0.12657   0.0065969
0.079679    0.040702     -0.0824   -0.037902    -0.10514    -0.12917  -0.0089938
0.089098  -0.0057458   -0.097017   -0.043099    -0.11066    -0.11001   -0.018413
0.066686   -0.043748   -0.089871   -0.033354    -0.11521   -0.073955   -0.014516
0.027709   -0.067784    -0.06551   -0.014191    -0.11553   -0.030431      0.0014
-0.0099683   -0.086948   -0.032705    0.008221    -0.11196   0.0085458    0.023812
-0.03303    -0.10838  -0.0018481     0.02706    -0.10546    0.038103      0.0433
-0.043099    -0.13404    0.019914    0.040052   -0.093119    0.062139    0.053694
-0.045697    -0.15711    0.030308    0.047198   -0.076879      0.0865    0.056617
-0.044398    -0.16653    0.031607    0.048822   -0.062262     0.10859    0.055318
-0.043748    -0.15483    0.027385    0.049796   -0.058365      0.1219     0.05272
-0.046996    -0.12722    0.015367    0.045574   -0.072981     0.12093    0.050121
-0.050894   -0.090521  0.00010078    0.040052    -0.11163     0.10729    0.046873
-0.052843   -0.044723   -0.011592     0.03583     -0.1675    0.087799    0.042975
-0.053492   0.0075714    -0.01484     0.03453    -0.22239    0.067011    0.036479
-0.056741    0.063438  -0.0093186    0.038103    -0.25162    0.053044    0.031607
-0.064211     0.11183  0.00075039     0.04395    -0.24286    0.048822    0.034855
-0.067134     0.14269    0.011144    0.048822    -0.19283    0.053369    0.043625
-0.065835     0.15796    0.017316     0.05207    -0.11618    0.064088    0.055318
-0.060313     0.16088    0.015692    0.053044   -0.035953    0.075131     0.06084
-0.046671     0.15568    0.008221    0.054019    0.027385    0.082602    0.057267
-0.020037     0.14367   0.0036737    0.054668    0.063113    0.083576     0.05142
0.019264     0.12678   0.0059473    0.051745    0.072208    0.077405    0.050771
0.057592     0.10664    0.014392    0.044275    0.058566    0.062789     0.05272
0.084226    0.089098    0.025436    0.034206    0.028359    0.041676    0.054344
0.099492    0.079029     0.03583    0.023162   -0.023285    0.016666     0.05272
0.10404    0.081303     0.04395    0.011794    -0.10416   -0.012567    0.048172
0.097868    0.091696    0.046873   0.0010752     -0.2094   -0.045047      0.0433
0.082602     0.10144    0.044275   -0.010943    -0.30424   -0.078827    0.041351
0.066037     0.10209    0.037778   -0.023935    -0.34939    -0.10774    0.044275
0.055643    0.089098    0.030633    -0.03238    -0.31691    -0.12722     0.05207
0.053044    0.063438    0.024786    -0.03173    -0.20843    -0.12982    0.064088
0.055643    0.032582    0.015367   -0.021661   -0.055441    -0.11358    0.081952
0.062139  -0.0024977  0.00075039   -0.010618    0.098193   -0.086298    0.092346
0.072858   -0.035628   -0.018088  -0.0076946     0.21545   -0.061937    0.084876
0.087474   -0.057065   -0.037902   -0.013866     0.29145   -0.048945    0.057917
0.10209   -0.058689    -0.04927   -0.020362     0.35187   -0.048296    0.020564
0.10761   -0.042124   -0.050244   -0.021661     0.43177   -0.055766  -0.0099683
0.099167   -0.014191   -0.043423   -0.018413      0.5513   -0.060313   -0.025884
0.07773    0.012119   -0.030431   -0.012567     0.70201   -0.055766   -0.025559
0.049147    0.025111   -0.013541  -0.0037969     0.85857   -0.034978  -0.0089938
0.017316    0.022188   0.0072465   0.0095202     0.98329   0.0017248    0.019589
-0.012892   0.0052977    0.027709    0.027385      1.0349    0.048822    0.044924
-0.036278   -0.017764    0.039402    0.047847     0.98492    0.098517    0.056942
-0.047321   -0.039526    0.035505    0.066362     0.82739     0.14139     0.05142
-0.046996   -0.052843    0.017965    0.080003     0.58151     0.17452    0.032582
-0.037252   -0.047971  -0.0041217    0.086824     0.28528     0.19693    0.010495
-0.020037   -0.023935    -0.01614    0.090397   -0.021986      0.2148  -0.0057458
0.00075039    0.010495   -0.011592    0.091696    -0.31171     0.22649   -0.014191
0.019589    0.045249   0.0069217    0.090397    -0.56896     0.23006   -0.016789
0.032906    0.072208    0.032582    0.084226    -0.77846     0.22422   -0.016789
0.041676    0.089098    0.055318    0.076755    -0.92495      0.2122   -0.015815
0.043625    0.095594    0.067336    0.071234      -1.001     0.19434   -0.011592
0.040377     0.09397    0.063763    0.065387    -0.99868     0.17095  -0.0080194
0.030957    0.086175    0.048172    0.056617    -0.91553     0.13977  -0.0080194
0.016016    0.072533    0.027385    0.041027    -0.76677    0.093645   -0.010293
-0.0031473    0.056292    0.011469    0.021213    -0.58325    0.029333   -0.012892
-0.022636    0.042651   0.0043233   0.0010752    -0.39584   -0.051868   -0.017439
-0.039201    0.031932   0.0065969   -0.011917    -0.22304    -0.14054   -0.023935
-0.056091     0.01894    0.012119   -0.018413    -0.06551    -0.22109   -0.037902
-0.075255  0.00075039    0.012768   -0.018413    0.061814    -0.28053   -0.055116
-0.092794   -0.022636   0.0095202   -0.017764      0.1336    -0.30847   -0.072981
-0.10286   -0.046671   0.0036737   -0.019388     0.14107    -0.30912     -0.0837
-0.10059   -0.064536  -0.0044465   -0.026209     0.09462    -0.29255   -0.084349
-0.085324   -0.067784    -0.01614   -0.036927    0.017316    -0.27176   -0.073306
-0.056091   -0.053817   -0.025884   -0.045047    -0.06681     -0.2526   -0.055441
-0.019063   -0.030106   -0.030756   -0.043423    -0.15256    -0.23766   -0.036927
0.018615  -0.0024977   -0.028482   -0.034004    -0.26559    -0.22532   -0.023285
0.050771    0.019914   -0.025559   -0.021661    -0.46307     -0.2172   -0.015165
0.073832    0.031282   -0.022311   -0.013216    -0.78269    -0.21395   -0.011917
0.080653    0.029009   -0.020362   -0.010943     -1.1796    -0.21655   -0.010943
0.067986    0.017316   -0.019063   -0.013866     -1.5496    -0.22044   -0.013541
0.041027   0.0043233   -0.016464   -0.020037     -1.7711    -0.22207   -0.021661
0.010495  -0.0037969   -0.014516   -0.029782     -1.7688    -0.21687   -0.035303
-0.014191  -0.0024977   -0.013216   -0.039851     -1.5405    -0.20063   -0.045047
-0.026533   0.0049729   -0.016464    -0.04992     -1.1562    -0.17172    -0.04862
-0.024909    0.013093   -0.022636    -0.05804    -0.71383    -0.13599   -0.043748
-0.01614    0.018615   -0.029782   -0.062912      -0.288    -0.10124    -0.03303
-0.0044465     0.01829   -0.034329   -0.064536    0.090072   -0.072006   -0.019388
0.0043233    0.012119   -0.032705   -0.061288     0.41131   -0.044073  -0.0083442
0.0078962   0.0046481   -0.026533   -0.055441      0.6731   -0.012892  -0.0021729
0.0091954      0.0014   -0.018413   -0.047971     0.86376     0.01764  -0.0011985
0.010819   0.0023744   -0.013541   -0.037252     0.97452    0.046223  -0.0044465
0.016341   0.0033489   -0.010943   -0.024585      1.0031    0.071234  -0.0096434
0.02706   0.0020496  -0.0076946   -0.014516     0.96251    0.090397   -0.013216
0.039402 -0.00054884  -0.0031473  -0.0054209     0.87676     0.10242   -0.013541
0.043625  -0.0021729 -0.00087364  0.00010078     0.77184     0.10859   -0.012892
0.032582  -0.0067202  -0.0044465   0.0010752     0.67115     0.11118   -0.016789
0.0033489   -0.016789   -0.012242   0.0017248      0.5867     0.11118   -0.028807
-0.034004   -0.029457   -0.020687   0.0078962     0.52564     0.10729   -0.042774
-0.071682   -0.039851   -0.022636    0.019914     0.48536     0.10404   -0.050894
-0.10124   -0.045047   -0.015815     0.03453      0.4597     0.10566   -0.045697
-0.1191   -0.043099  -0.0031473    0.044924     0.44671     0.11346   -0.026209
-0.12073    -0.03303    0.012119    0.050446     0.44119     0.11963 -0.00022403
-0.10903    -0.01614    0.026085    0.053369     0.43892     0.12028    0.020564
-0.086298   0.0036737    0.032906    0.054344     0.43274     0.11508     0.02706
-0.061937    0.020239    0.029658    0.052395     0.41618     0.10664    0.021213
-0.038876    0.031932    0.019264    0.045899      0.3863    0.097543   0.0085458
-0.022636    0.035505   0.0078962    0.031607     0.34894    0.087799  -0.0031473
-0.012892    0.028359  -0.0060706    0.015367     0.30802    0.078704  -0.0093186
-0.0057458    0.016991   -0.016464   0.0020496     0.26839    0.072858  -0.0057458
0.00042559    0.011469   -0.019388  -0.0021729     0.23624    0.071558   0.0059473
0.0072465    0.014068   -0.016789   0.0023744     0.21837    0.075456    0.020239
0.014717    0.021213   -0.008669    0.011144        0.22    0.083251    0.030633
0.023812     0.02641   0.0049729     0.01894     0.24468    0.094945    0.036804
0.030308     0.02706    0.022837    0.025436     0.28821     0.10956    0.039402
0.032906    0.026085     0.03518    0.033881     0.33985      0.1258    0.039402
0.031282    0.022837    0.039402    0.040702     0.38272     0.14204    0.041351
0.025436    0.018615    0.036154    0.041676     0.40156     0.15438    0.047523
0.017965    0.016666    0.025111    0.038753     0.39507     0.15991    0.057917
0.0075714    0.017316    0.011469    0.034855     0.37071     0.15698    0.070584
-0.0057458    0.019589  -0.0031473    0.025761      0.3392     0.14919    0.079354
-0.016789    0.021213   -0.012892    0.013093     0.31516     0.13912    0.078379
-0.024585    0.017316    -0.01549  0.00042559     0.30574     0.12807    0.067336
-0.029132    0.009845   -0.016789  -0.0093186     0.30217     0.11476    0.048497
-0.029457   0.0020496   -0.019712    -0.01614     0.28593    0.096244    0.028034
-0.029457  -0.0031473   -0.022311   -0.020687     0.25248    0.069934   0.0069217
-0.031406  -0.0047713    -0.02361   -0.020362     0.21382    0.038753   -0.010618
-0.036602  -0.0044465   -0.020362    -0.01549     0.18297   0.0059473   -0.020037
-0.043423  -0.0073698  -0.0089938   -0.007045     0.16543    -0.02426   -0.020687
-0.045372   -0.014516   0.0091954   0.0043233     0.16218   -0.041799    -0.01549
-0.037902   -0.021661    0.027709     0.01894     0.16705   -0.044073  -0.0096434
-0.022311    -0.02426    0.038103    0.030633     0.17192   -0.038876   -0.007045
0.00010078   -0.020037    0.039078    0.035505      0.1638   -0.034654   -0.014516
0.020888   -0.010618    0.032257    0.036804     0.13912   -0.032705   -0.029132
0.030308  -0.0034721    0.021863    0.038753     0.10729   -0.033679   -0.047646
0.026735 -0.00087364    0.013418    0.044275    0.081952   -0.036927   -0.062587
0.015042  -0.0011985   0.0062721    0.049796    0.067986   -0.037902    -0.06551
0.0033489  -0.0028225  -0.0024977    0.047523    0.067661    -0.03238   -0.056416
0.0010752  -0.0060706   -0.011917    0.036804    0.083251   -0.015165   -0.040175
0.014068   -0.008669   -0.020037    0.024786     0.11573   0.0069217   -0.022636
0.03518  -0.0093186   -0.023285    0.020239     0.16478    0.024786   -0.010943
0.056617  -0.0093186   -0.020037    0.026085        0.22    0.032582  -0.0044465
0.067986   -0.011267  -0.0083442    0.040702     0.26514    0.027385  -0.0054209
0.060515   -0.011592   0.0043233    0.055318     0.28918    0.010819   -0.012567
0.03453   -0.010293    0.012443    0.062464     0.28658   -0.010618   -0.022311
-0.0034721  -0.0060706     0.01764    0.059216     0.25443   -0.035303   -0.030106
-0.038551   0.0010752    0.022188    0.048172     0.19693   -0.062262    -0.03238
-0.057715   0.0059473    0.027385    0.032906      0.1297    -0.08305   -0.025234
-0.055766   0.0056225    0.030633    0.019914    0.074806    -0.09182   -0.011917
-0.035303  0.00010078    0.032906    0.014068    0.050446   -0.090845      0.0014
-0.0037969  -0.0096434    0.029009    0.015367    0.061165   -0.084024   0.0078962
0.029333   -0.018738    0.020239    0.019264    0.094945   -0.080451   0.0091954
0.051096   -0.025884   0.0088706    0.020888     0.13684   -0.086298    0.008221
0.054668    -0.03303  -0.0015233     0.01764      0.1651    -0.10156   0.0075714
0.043625   -0.040825  -0.0057458    0.011144      0.1625     -0.1217    0.008221
0.028359   -0.047646  -0.0060706   0.0036737     0.11346    -0.14249    0.012443
0.019589   -0.051219  -0.0034721  -0.0041217   0.0043233    -0.15418    0.020564
0.023162   -0.048296   0.0023744   -0.010293     -0.1649    -0.15321    0.035505
0.039078   -0.038876    0.011144   -0.011917    -0.37473    -0.13957    0.056942
0.057592   -0.026533    0.021863  -0.0076946    -0.59625    -0.11878    0.079029
0.06896   -0.017764    0.029983 -0.00022403     -0.8077   -0.098641    0.094295
0.06831   -0.012892    0.034855   0.0039985    -0.99673   -0.083375    0.096569
0.054993   -0.011267    0.035505  -0.0015233     -1.1439    -0.07428    0.084876
0.036804   -0.010943    0.036804   -0.017114     -1.2183   -0.069733    0.066686
0.01829   -0.013541    0.034206   -0.038551     -1.1952   -0.068109    0.049472
0.0020496   -0.021661    0.025761   -0.057065     -1.0773   -0.067134    0.037129
-0.012892   -0.033679    0.010495   -0.063561    -0.88532   -0.059014    0.029009
-0.027833   -0.047971   -0.008669   -0.058365    -0.64854   -0.041475    0.025436
-0.042124   -0.057715   -0.026209   -0.042774    -0.39194   -0.015165    0.025761
-0.054142   -0.056416   -0.034004   -0.020687    -0.14087    0.015367    0.030308
-0.054467    -0.04115   -0.027833      0.0014    0.083251    0.045249    0.034855
-0.040175   -0.016789  -0.0099683    0.018615     0.25378     0.07708    0.038753
-0.014191   0.0085458   0.0091954    0.028684     0.36096     0.11801      0.0433
0.013093    0.032582    0.023487    0.032582     0.41488     0.17127    0.047847
0.040702    0.057267    0.031282    0.029658     0.44346     0.23981    0.054344
0.070909    0.087149    0.030633    0.026085     0.47594     0.31419    0.059865
0.10924      0.1219    0.023812    0.028034     0.52466     0.38305    0.065387
0.15373     0.15049    0.016341     0.03583     0.58508     0.43404    0.070584
0.19141     0.16445    0.010819    0.044599     0.63705     0.46165    0.071558
0.20993     0.16185   0.0065969    0.050771     0.65751      0.4584    0.067661
0.20051     0.14626    0.003024    0.054668     0.62178      0.4295    0.058241
0.1703     0.12807   0.0017248    0.053369     0.51914     0.37818     0.04395
0.12872     0.11703   0.0049729    0.050121     0.35252     0.31679    0.029983
0.090072     0.11541    0.011144    0.046873     0.14496      0.2541     0.01894
0.066037     0.12255    0.014068    0.043625   -0.075579     0.19206    0.013743
0.056617     0.13002    0.013093    0.041027     -0.2971      0.1258    0.016016
0.054993     0.12807    0.010495    0.036154    -0.53258     0.05207    0.019914
0.048172     0.11183   0.0078962    0.030957     -0.8051   -0.025559     0.01764
0.02641    0.084551   0.0078962    0.030957     -1.1364    -0.10351   0.0085458
-0.011592    0.053369   0.0078962    0.033556     -1.5245    -0.17692  -0.0047713
-0.050569    0.027709   0.0056225    0.033231     -1.9371    -0.24383    -0.01614
-0.073631    0.012443   0.0049729    0.028359     -2.3129    -0.30717   -0.020687
-0.071682   0.0046481   0.0065969    0.015367      -2.563    -0.37603   -0.018738
-0.050894  -0.0021729   0.0062721  -0.0047713        -2.6    -0.45853   -0.013866
-0.027183   -0.010618   0.0017248   -0.031081     -2.3908    -0.55532   -0.010618
-0.010618   -0.021012   -0.012567   -0.063561     -1.9802    -0.65569   -0.015165
-0.0063954   -0.030756   -0.033679   -0.097991     -1.4658    -0.74403   -0.028157
-0.015815   -0.037252   -0.054467     -0.1295    -0.94931    -0.80705   -0.043748
-0.034004   -0.040175   -0.067459    -0.15191    -0.50043    -0.83141   -0.054467
-0.053492   -0.038551   -0.072981    -0.16035    -0.13112    -0.81387   -0.056416
-0.069083   -0.033354   -0.072331    -0.15711     0.18167    -0.75183   -0.050894
-0.076879   -0.032705   -0.072981    -0.14379     0.44996    -0.65341   -0.044073
-0.079802   -0.044073   -0.078503    -0.12235     0.66011    -0.53031   -0.034654
-0.078178   -0.063237   -0.084349   -0.093119     0.78971    -0.39974   -0.026533
-0.072006   -0.076879   -0.086298   -0.059339     0.83096    -0.28021   -0.023285
-0.059664   -0.077528   -0.080776   -0.026533     0.79978    -0.18277   -0.020037
-0.043423   -0.065835   -0.071357 -0.00022403     0.72799    -0.10871    -0.01614
-0.027833   -0.048945   -0.058689    0.016666     0.65491   -0.051219   -0.012242
-0.014516    -0.03303   -0.039851    0.026085     0.60067  -0.0031473  -0.0089938
-0.0089938   -0.021986   -0.017764    0.029983     0.56689    0.041351  -0.0080194
-0.011267   -0.012892    0.003024    0.032906     0.55227    0.088773   -0.008669
-0.019712  -0.0047713    0.018615    0.038428     0.54708     0.14204   -0.008669
-0.030106   0.0033489    0.022837    0.047198      0.5435     0.19823  -0.0015233
-0.038551   0.0085458    0.019589    0.055968     0.53831     0.24695     0.01017
-0.041475   0.0091954    0.015692    0.060515     0.52986     0.27814    0.025111
-0.03173   0.0043233    0.010495    0.061165     0.52044     0.28756    0.041027
-0.012242  -0.0044465 -0.00022403    0.056617      0.5107     0.27716    0.057917
0.013418   -0.013866   -0.012892    0.050121     0.49901     0.25507    0.072533
0.038428   -0.018088   -0.021337    0.047198     0.48406     0.23656    0.078704
0.055318    -0.01484   -0.020037    0.044924     0.47399     0.22844    0.078704
0.058891  0.00075039   -0.010943    0.038428     0.47952     0.23071     0.07708
0.053044    0.028684   0.0026992    0.031607     0.50518     0.23494    0.074157
0.046873     0.06084     0.01764    0.029333     0.54188     0.23396    0.067661
0.044924    0.084226    0.027709    0.032257     0.57891     0.22649    0.057267
0.047847    0.093645    0.030633    0.036479     0.60814     0.21545    0.043625
0.054668    0.084876    0.025761    0.039402     0.62471     0.20733    0.032257
0.061489    0.056292    0.017965    0.039078     0.62958     0.20538    0.026735
0.063763    0.014068   0.0088706    0.038428     0.62308     0.20863     0.02641
0.06019   -0.033679      0.0014    0.038753     0.60164     0.21317    0.028684
0.049472   -0.074605   -0.007045     0.04395     0.56592     0.21512    0.031607
0.029009    -0.10124   -0.017114    0.057592     0.51037      0.2187     0.03453
0.0010752    -0.11196   -0.027183    0.074806     0.43404     0.22324    0.032257
-0.028807    -0.11163   -0.032055    0.090397     0.34082     0.22682     0.02706
-0.057715    -0.10546   -0.034654    0.097868     0.23656     0.22617    0.019914
-0.071682   -0.090521    -0.03303    0.095594     0.12613     0.22357    0.013743
-0.062912   -0.067784   -0.026858    0.084551    0.012119     0.22032    0.014717
-0.029782   -0.037252   -0.010293    0.067986    -0.10026     0.21382     0.01764
0.01829  0.00042559    0.010819    0.055968    -0.20583     0.20083    0.018615
0.065062    0.040052    0.025436    0.052395    -0.29872     0.18199    0.016341
0.098193    0.073182    0.030957    0.057267    -0.36856     0.16121    0.012119
0.11313    0.095269    0.033881    0.068635    -0.40234     0.14139   0.0078962
0.10989     0.10989    0.038753    0.082277    -0.39389     0.11931   0.0043233
0.092996     0.11638    0.046223    0.090072    -0.34549    0.090722   0.0017248
0.065712     0.11768    0.057267    0.087799    -0.26624    0.057917  -0.0076946
0.025111     0.11281     0.06831    0.074806    -0.15938    0.019264   -0.024585
-0.031081    0.098842    0.076106    0.055643   -0.011592   -0.024909   -0.045697
-0.097666    0.073832    0.075131    0.038428     0.19174   -0.068434   -0.064211
-0.16068    0.042975    0.064737    0.022837     0.44281    -0.11001   -0.077528
-0.20063    0.017965      0.0433    0.010495     0.69227    -0.14411   -0.087597
-0.20648   0.0095202    0.016016  -0.0011985     0.85759     -0.1688   -0.088572
-0.1727    0.018615  -0.0083442  -0.0057458     0.86734    -0.18374   -0.075904
-0.10968    0.032906   -0.022961  -0.0028225     0.70591    -0.19348   -0.057715
-0.040825    0.038428   -0.023935   0.0056225     0.42268     -0.2016   -0.045047
0.015042    0.029333   -0.013216    0.014068     0.11086     -0.2107   -0.041475
0.043625   0.0095202   0.0046481    0.018615    -0.14769    -0.21362   -0.042449
0.045574  -0.0093186    0.019589    0.019264    -0.31366    -0.20583   -0.041799
0.03518   -0.020362    0.025761    0.017965    -0.40039    -0.18504   -0.037252
0.016991   -0.021337    0.023162    0.015367    -0.45203    -0.15841   -0.033354
-0.0083442   -0.015815    0.016016   0.0095202    -0.51147    -0.13275    -0.03238
-0.042124  -0.0063954   0.0088706      0.0014    -0.59365    -0.10903    -0.03238
-0.079477   0.0017248   0.0033489  -0.0067202      -0.669    -0.08305   -0.027833
-0.11293   0.0065969   0.0026992    -0.01549    -0.69531   -0.053817   -0.017114
-0.13404   0.0078962   0.0049729   -0.024585    -0.65114   -0.021012  -0.0031473
-0.13664   0.0052977    0.011144   -0.034004    -0.54493    0.014392   0.0078962
-0.11651  -0.0044465    0.015042   -0.039201    -0.40266    0.053044    0.009845
-0.081426    -0.01614    0.011794   -0.037902    -0.25812    0.087474   0.0039985
-0.043423   -0.023935   0.0023744   -0.031081    -0.13859     0.11378  -0.0015233
-0.015165    -0.02361   -0.007045   -0.022636   -0.053817     0.12937 -0.00022403
-0.0015233   -0.014516   -0.010943   -0.016789  -0.0018481     0.13425   0.0088706
0.0017248    0.003024  -0.0076946   -0.017764    0.023812     0.13067     0.01829
0.0036737    0.025436      0.0014   -0.024909    0.031607     0.11995    0.022188
0.010495    0.049147    0.012768    -0.03238     0.02706     0.10339    0.015692
0.017965    0.070909    0.024786   -0.034004    0.015692    0.084876   0.0033489
0.021538    0.083901    0.031282   -0.028482  0.00042559    0.062789   -0.008669
0.01829    0.082602    0.030308   -0.021337   -0.018413    0.036154   -0.019712
0.0091954    0.064737    0.020564   -0.011917   -0.043748    0.008221    -0.03238
-0.00054884     0.03453   0.0049729  -0.0060706   -0.078827   -0.017764   -0.050244
-0.007045  0.00075039  -0.0089938   -0.007045     -0.1178   -0.039526   -0.067459
-0.0083442   -0.019388    -0.01549   -0.010618    -0.15483   -0.056741   -0.077853
-0.0018481   -0.019063   -0.013541   -0.011917    -0.18179   -0.071357   -0.078178
0.010819   0.0017248  -0.0018481  -0.0093186    -0.19056     -0.0837   -0.072331
0.024786     0.02706    0.012443  -0.0034721    -0.18439   -0.092469   -0.062262
0.042326    0.036804    0.021863   0.0010752    -0.17465   -0.095068   -0.046996
0.065712    0.022188    0.020564  0.00010078    -0.16653   -0.087597   -0.029782
0.087474   -0.013216   0.0062721  -0.0076946    -0.15873   -0.070382   -0.011917
0.10404   -0.057715   -0.015815   -0.021012    -0.14411   -0.050894   0.0017248
0.10891   -0.097017   -0.036602   -0.037902    -0.11488   -0.030106   0.0091954
0.097543    -0.12268   -0.050244   -0.049595   -0.067134   -0.008669     0.01017
0.073832    -0.13177   -0.052518   -0.056741    0.003024    0.014392    0.013093
0.045574    -0.11943   -0.044073   -0.058689    0.095594    0.038103    0.029333
0.026085   -0.086298   -0.028482   -0.051544     0.21155    0.062139    0.063113
0.022837     -0.0405    -0.01549   -0.035953      0.3405    0.087799     0.10599
0.028684   0.0023744  -0.0099683   -0.016464     0.46068     0.11086     0.14237
0.033231    0.032582   -0.014191   0.0017248     0.54773     0.12255      0.1625
0.031932    0.053044   -0.021337    0.012119      0.5867     0.11866     0.15893
0.026735    0.072208   -0.021986    0.012119      0.5867     0.10144     0.13425
0.028684    0.094945   -0.012567   0.0085458     0.56592    0.079354     0.10209
0.041676     0.11541   0.0023744   0.0043233     0.53798     0.06019    0.073832
0.059216     0.12418    0.011794   0.0046481     0.50583    0.045574    0.056942
0.071234     0.11573   0.0095202    0.003024      0.4714    0.031282    0.051096
0.070259    0.089748  -0.0034721  -0.0063954      0.4295    0.014392    0.048497
0.06019    0.051745   -0.024585   -0.021661      0.3798   -0.007045    0.040052
0.049147   0.0062721   -0.048945   -0.037577     0.32913   -0.031406    0.024461
0.042326   -0.033679   -0.072331   -0.046347     0.28723   -0.047646  0.00075039
0.033556   -0.057065   -0.086298   -0.047321      0.2489   -0.054467   -0.022961
0.014392   -0.057715   -0.084674    -0.04115     0.20083   -0.049595   -0.038876
-0.013216   -0.040825   -0.068109   -0.030756      0.1336   -0.037902   -0.042774
-0.043423   -0.017439   -0.039851   -0.019388    0.049147   -0.030106   -0.037902
-0.071032   0.0026992   -0.010293  -0.0080194   -0.049595   -0.034004   -0.031406
-0.09117   0.0095202    0.012768   0.0023744    -0.15483   -0.046996   -0.025884
-0.10091 -0.00022403    0.021213   0.0078962    -0.25747   -0.060963   -0.020362
-0.097991   -0.019388    0.014717   0.0095202    -0.35004   -0.069083   -0.014516
-0.081426   -0.039201   0.0010752    0.011144    -0.42215   -0.067459  -0.0080194
-0.050894    -0.04927   -0.014516    0.016991    -0.46145   -0.061937 -0.00054884
-0.014191    -0.04927   -0.028807    0.024461    -0.46307   -0.057065   0.0039985
0.016016   -0.042449   -0.039526    0.028684    -0.43806   -0.057715   0.0056225
0.029983   -0.029457   -0.036278    0.027709    -0.40299   -0.067459  -0.0021729
0.021863   -0.012892   -0.022961    0.021863     -0.3718   -0.086298   -0.015815
-0.0076946   0.0052977  -0.0024977     0.01764    -0.34549    -0.10936   -0.030756
-0.045047    0.019914    0.017965    0.018615    -0.31821     -0.1256   -0.043423
-0.076229    0.028034    0.033556    0.021863    -0.28281    -0.12495   -0.043099
-0.085648    0.033556    0.040702    0.023487    -0.24188    -0.10449   -0.029782
-0.071032    0.037778    0.041027    0.024786    -0.20713   -0.072656   -0.011267
-0.042774    0.039078     0.03583    0.025111    -0.18764   -0.043423   0.0036737
-0.011267    0.036804    0.030633    0.023162    -0.18407   -0.025234    0.010819
0.016666    0.026735    0.029009    0.019914    -0.18536   -0.020362    0.012768
0.033556    0.014392    0.031607    0.016341    -0.18309   -0.023935    0.015042
0.037454   0.0075714    0.038103    0.013743    -0.17562    -0.03238     0.01894
0.032906    0.013743    0.048172    0.014392    -0.16782   -0.038551    0.022188
0.027709    0.030308    0.058566    0.019914    -0.16263   -0.039201    0.024137
0.023812    0.053694    0.066362    0.029983    -0.16003    -0.03303    0.022837
0.016666    0.078055    0.073182    0.044275    -0.15873   -0.021661    0.013093
0.0043233    0.099167    0.081627    0.059865    -0.15483  -0.0089938  -0.0034721
-0.0083442     0.11313    0.092021    0.074482    -0.15321  0.00010078   -0.019388
-0.013541     0.11541     0.10079    0.084876    -0.15321   0.0026992   -0.027833
-0.0011985     0.10404     0.10242    0.087474    -0.15061   0.0010752   -0.029132
0.028359    0.081627    0.093321    0.080653    -0.13924  -0.0024977   -0.021986
0.063763    0.050771    0.075456    0.070584    -0.11553  -0.0080194   -0.012567
0.093321    0.013743    0.050771    0.062789   -0.075255   -0.018413  -0.0031473
0.10404   -0.025559    0.024137    0.054993    -0.01614   -0.034004 -0.00022403
0.087474   -0.061937  -0.0021729    0.049472    0.057267   -0.050569  -0.0080194
0.047847   -0.092469   -0.023935    0.042326       0.131   -0.061288   -0.023935
-0.0028225    -0.11423   -0.038551    0.036479     0.18524   -0.064861   -0.041799
-0.050244    -0.12235   -0.041799    0.031932     0.21058   -0.055766   -0.052843
-0.078827    -0.11358   -0.035628    0.031932     0.21707   -0.032705    -0.04992
-0.077528   -0.090845   -0.022961    0.033881     0.22357  -0.0041217   -0.036602
-0.050244    -0.06551   -0.011267    0.034855     0.24695    0.018615   -0.018088
-0.013866   -0.045697  -0.0028225    0.033231     0.28983    0.028034   0.0017248
0.016666   -0.036602      0.0014    0.029009     0.33952    0.027709    0.023162
0.034206   -0.036602   0.0026992    0.027385     0.37753    0.023812    0.042001
0.03518   -0.038551    0.003024    0.026735       0.385    0.020564    0.054668
0.024461   -0.038227  0.00075039    0.026085     0.35252    0.013418    0.056617
0.013093    -0.03238  -0.0031473    0.023812     0.28691  -0.0024977    0.045899
0.0078962   -0.021337  -0.0089938    0.019264     0.19888   -0.023935    0.027385
0.010495   -0.015165   -0.015815    0.013743    0.098193   -0.042449   0.0088706
0.012119    -0.01549   -0.022636    0.008221   -0.023285   -0.052843  -0.0015233
0.0075714   -0.019388   -0.024585   0.0043233    -0.16847   -0.055441  -0.0011985
0.00010078   -0.019388   -0.019712   0.0059473    -0.33153   -0.051219   0.0046481
-0.0060706   -0.010293  -0.0067202    0.010819    -0.49198   -0.038551    0.010819
-0.0044465    0.014717    0.012443    0.016341    -0.63262   -0.018413    0.013418
0.0072465    0.053044    0.032257    0.017316    -0.74858   0.0039985    0.012443
0.021863    0.096569    0.045249    0.013418    -0.82588    0.025761   0.0091954
0.033881     0.13262      0.0433      0.0014    -0.84667    0.037454   0.0023744
0.035505     0.14821    0.025111   -0.014516    -0.83043    0.036154   -0.011267
0.029333     0.13749  -0.0047713   -0.031406    -0.84342    0.022837   -0.032055
0.021538     0.10242   -0.037577   -0.042774    -0.93762    0.003024   -0.052843
0.017316    0.051745   -0.062912   -0.053168     -1.1029    -0.01614   -0.063237
0.011794  -0.0037969   -0.072981   -0.061613     -1.2796    -0.03173   -0.059339
0.00075039   -0.054792   -0.069408   -0.067134     -1.3878   -0.045372   -0.043099
-0.014516    -0.09117   -0.057065   -0.063561     -1.3686   -0.054467    -0.02426
-0.030106    -0.11066     -0.0405   -0.051544     -1.2105    -0.04992   -0.007045
-0.037577    -0.11586   -0.025559   -0.034004    -0.94152   -0.029782   0.0088706
-0.03303    -0.11488   -0.020362   -0.015165    -0.61443  0.00010078    0.024137
-0.016464    -0.11293   -0.029457  -0.0011985    -0.28151    0.029658    0.037454
0.011144    -0.10579   -0.042774   0.0059473    0.020564    0.055968     0.05207
0.04395   -0.084349    -0.04927    0.014392      0.2895     0.07773    0.069934
0.070909   -0.047321   -0.042449    0.029333     0.53896    0.096569    0.095594
0.081303  0.00042559   -0.023285    0.046548     0.78224     0.11118      0.1232
0.071883    0.049796  -0.0011985    0.059216      1.0161     0.11898     0.14594
0.045899    0.089098    0.015367    0.066037      1.2211     0.11963     0.15893
0.015042     0.11541    0.019914    0.066037      1.3627     0.11411     0.16218
-0.0060706     0.12872    0.020888    0.062464      1.4215     0.10209     0.15633
-0.0089938     0.13295     0.02641    0.059541      1.3913    0.082927     0.14854
0.0046481     0.13457    0.038103    0.054993      1.2844    0.054668      0.1362
0.027709     0.14204    0.049472    0.049796      1.1272    0.015367      0.1219
0.050121     0.15373    0.058241    0.044275     0.95958   -0.032705     0.10566
0.067661     0.16218    0.062139    0.041351     0.81569   -0.084349    0.088448
0.074482     0.15698    0.061814    0.038753     0.69681    -0.13469    0.067661
0.069285     0.13847    0.055318    0.030633     0.58151    -0.17757    0.042001
0.054344     0.10729    0.043625     0.01764     0.45191     -0.2055    0.013743
0.031282     0.06896    0.029009   0.0033489     0.30022    -0.21687   -0.012892
0.0036737    0.028684    0.013743  -0.0063954     0.13555     -0.2133   -0.031406
-0.026209  -0.0054209   0.0026992  -0.0067202   -0.011267    -0.20063   -0.039526
