-0.064861   -0.075255   -0.056091    0.019589    -0.94834     0.34277   -0.073955
-0.063237   -0.070707   -0.051868    0.017316    -0.96133     0.34472   -0.079152
-0.06551   -0.067784   -0.044723     0.01764     -0.8483     0.30217   -0.078827
-0.064211   -0.064861   -0.030431    0.024137    -0.64107     0.23071   -0.075579
-0.058365   -0.063561   -0.013216    0.036804    -0.40169     0.15763   -0.070707
-0.047971   -0.061288    0.003024    0.054668    -0.19348     0.10469    -0.06551
-0.037902   -0.055441    0.016991    0.078704   -0.061288      0.0852   -0.060638
-0.029782   -0.044723    0.025436     0.10924   -0.010293    0.086824    -0.05739
-0.025884   -0.031406    0.026085     0.14269   -0.026533    0.087799   -0.055441
-0.025884   -0.020037    0.022512     0.17485   -0.089221    0.064413    -0.05739
-0.028482   -0.014191     0.01894     0.19628    -0.17984   0.0056225   -0.064536
-0.031081   -0.013541    0.017316     0.20083    -0.26916   -0.084349   -0.071682
-0.030756    -0.01614     0.01764     0.19174    -0.33802    -0.18179   -0.072331
-0.029132   -0.020362    0.018615     0.17777    -0.36563    -0.26137   -0.065186
-0.027833   -0.024909    0.023487     0.16835    -0.34192    -0.31334   -0.050569
-0.028482   -0.028157    0.031607      0.1716    -0.26169     -0.3429   -0.032055
-0.027833   -0.026858    0.039727     0.18524    -0.13177    -0.35881   -0.018738
-0.025884   -0.021986    0.047847     0.20083    0.026735    -0.36726   -0.012242
-0.021337   -0.016789    0.057917     0.21545     0.19239    -0.37278  -0.0060706
-0.013541   -0.012567    0.066686     0.22389     0.34212    -0.37895   0.0072465
-0.0057458  -0.0076946    0.072858     0.22584     0.45905    -0.37862    0.029333
0.0017248  0.00042559    0.076106     0.22097     0.53246    -0.36628    0.049796
0.010495    0.013743    0.075131     0.20863     0.56007    -0.34582    0.062139
0.020564    0.026085    0.067986     0.19206     0.54805    -0.32471    0.067661
0.027385    0.034855    0.062789      0.1755     0.50842    -0.30002    0.067336
0.02706    0.039402    0.058891     0.15861     0.45256    -0.26429    0.059865
0.018615    0.040052    0.057592     0.13912     0.39214    -0.20908    0.045574
0.0026992    0.038753    0.054668     0.11801     0.32978    -0.13762     0.02641
-0.017439    0.034206    0.054668    0.094295     0.26547   -0.058689   0.0078962
-0.039851    0.027385    0.059216    0.070584     0.20213    0.017316  -0.0060706
-0.064861     0.01829    0.070909    0.048172     0.14756    0.075456   -0.019063
-0.093444   0.0052977    0.082927    0.029983     0.10794     0.10242   -0.037252
-0.1269   -0.020037    0.088448    0.019264    0.088773     0.10177   -0.065835
-0.16523   -0.062587    0.080978    0.016341    0.091047    0.087799    -0.10189
-0.19738    -0.11715    0.061165    0.017965     0.11313    0.078055     -0.1321
-0.20323    -0.16003    0.038428    0.026735     0.15244    0.088448    -0.13989
-0.16393    -0.16653    0.025761    0.038753     0.19856     0.12483    -0.11813
-0.077528    -0.13534    0.027709    0.048497     0.23818     0.17647   -0.072006
0.023812   -0.090521    0.029333    0.045574     0.24663     0.22812   -0.021661
0.098517   -0.061288    0.012443    0.028359      0.2109     0.26287    0.012768
0.12515    -0.07428   -0.028157   0.0023744     0.14237     0.27684    0.023487
0.11703    -0.13469   -0.083375    -0.02426    0.070909     0.27879    0.026085
0.10144    -0.21947    -0.13145   -0.041475    0.021538     0.27554    0.037454
0.098842     -0.2867    -0.15613   -0.045697   0.0043233     0.27521    0.065387
0.11248    -0.30197    -0.15029   -0.040175    0.013093     0.28268     0.10047
0.1349    -0.25455     -0.1217   -0.031081    0.028034      0.2921      0.1271
0.15341    -0.15873   -0.084349   -0.024909    0.025436      0.2999      0.1349
0.15991   -0.037577   -0.055116   -0.022636  -0.0089938     0.29827     0.12093
0.15276    0.079679   -0.046671   -0.028157   -0.068434     0.28561    0.083901
0.12937     0.16835   -0.063886   -0.044073     -0.1334     0.26157     0.02641
0.087149     0.20895   -0.096692   -0.072656    -0.18309     0.23071   -0.042124
0.037129     0.19791    -0.12268   -0.099615    -0.20355       0.207    -0.10514
0.003024     0.15244     -0.1191    -0.10806    -0.18536     0.20538    -0.13664
0.0065969     0.10566   -0.075904   -0.090196    -0.12657     0.23169    -0.12398
0.055643    0.096569  -0.0037969   -0.048296   -0.028157     0.27294   -0.070707
0.13262     0.14464    0.074157   0.0062721     0.10274     0.31094   0.0039985
0.20895     0.24728      0.1349    0.054019     0.24566     0.32816    0.076106
0.26449     0.38272     0.16998    0.082602      0.3759     0.31419     0.13392
0.29178     0.51622     0.18069    0.092346     0.46425     0.26937     0.17777
0.29633     0.60652     0.17127    0.087799     0.49316     0.20116      0.2122
0.28463     0.62665     0.14886    0.078379     0.46133     0.12775     0.24208
0.25767     0.56851     0.11638    0.071883     0.38565    0.065712     0.26157
0.21805     0.44509    0.078055    0.071883     0.28333    0.025111     0.26677
0.16803     0.29113     0.03518    0.076755     0.15049   0.0062721     0.25313
0.11443     0.14659  -0.0067202    0.079029   -0.024909  -0.0024977      0.2174
0.062139      0.0433   -0.043423    0.074157    -0.22791   -0.011592     0.16868
0.014717  -0.0093186   -0.069408    0.063113    -0.40493   -0.026858     0.11898
-0.029457   -0.021337   -0.079477    0.042651    -0.50595   -0.046022    0.074806
-0.072656   -0.013216   -0.071357    0.016341    -0.51537   -0.068434    0.037129
-0.11001  -0.0076946   -0.051219   -0.012892    -0.46307   -0.092145   0.0033489
-0.1321   -0.014191   -0.028807   -0.039526     -0.4267    -0.11975   -0.022961
-0.13404   -0.033354   -0.011592   -0.057715     -0.5027    -0.15158   -0.039526
-0.11391   -0.059664  -0.0024977    -0.06551    -0.74176    -0.18829   -0.045047
-0.084024     -0.0824  -0.0011985   -0.069408     -1.1091    -0.22564   -0.037252
-0.052193   -0.097666  -0.0047713   -0.075255     -1.4862    -0.25552   -0.020362
-0.02361    -0.10481  -0.0076946   -0.085648     -1.7334    -0.27014  -0.0024977
-0.00022403    -0.10514   -0.011267    -0.10091     -1.7565    -0.27144     0.01017
0.023812    -0.10156   -0.017764    -0.11553     -1.5411    -0.26234    0.016666
0.046548   -0.094093   -0.026533      -0.123      -1.138    -0.24318    0.016341
0.065387   -0.084024   -0.033679    -0.12333    -0.63457    -0.21297    0.008221
0.076431   -0.072006   -0.040175    -0.11586    -0.12268     -0.1727  0.00042559
0.081627   -0.060638    -0.04115    -0.10319     0.31711    -0.12138  -0.0011985
0.084876   -0.050894   -0.035303   -0.086298       0.626   -0.059339   0.0026992
0.088448   -0.042774   -0.025234   -0.067134     0.77834     0.01017    0.012443
0.086175   -0.040825    -0.01614   -0.050894     0.77737    0.073507    0.024137
0.078055   -0.045697   -0.010618   -0.042774     0.65946     0.11768    0.037129
0.066037   -0.056416   -0.014516   -0.047321     0.46782     0.13522    0.048172
0.053694    -0.06681   -0.025234   -0.061288     0.24598     0.12937    0.058566
0.046548   -0.073631   -0.034978   -0.074605    0.036804     0.11021    0.066686
0.044924   -0.074605   -0.036278   -0.080776     -0.1204    0.082602    0.075456
0.046223   -0.070707   -0.023935    -0.07493     -0.2042    0.049147    0.084226
0.049796   -0.062262  0.00010078   -0.059014    -0.21622    0.013743    0.088448
0.05272   -0.053168    0.029009   -0.039851    -0.17205   -0.018088    0.082927
0.053044   -0.045697    0.053369    -0.02361   -0.098316   -0.044073    0.065387
0.05272   -0.038876    0.072208    -0.01614   -0.025884    -0.06551      0.0433
0.050121   -0.030756    0.081952   -0.018088    0.025761   -0.083375     0.02641
0.0433   -0.022636    0.082277   -0.022636    0.048822   -0.098641    0.016666
0.030957   -0.016464    0.075131   -0.026209    0.062139    -0.11066    0.011469
0.014392   -0.016464     0.06019   -0.028157      0.0852    -0.11488   0.0049729
0.0036737   -0.020687    0.042651   -0.027183     0.12872    -0.10644 -0.00054884
-0.00022403   -0.025884    0.029658   -0.026209     0.20083   -0.089871   0.0020496
-0.0015233   -0.025559    0.025111   -0.025234     0.29762   -0.065835   0.0091954
-0.0041217   -0.017114    0.027385   -0.029132     0.40449   -0.041475    0.013093
-0.01549  -0.0047713    0.029983   -0.039526     0.50193   -0.026858   0.0072465
-0.034329   0.0049729    0.028034   -0.048945     0.56851   -0.031406  -0.0093186
-0.054142   0.0059473    0.024461   -0.050569     0.58638   -0.062587   -0.032055
-0.067134 -0.00054884    0.022512   -0.045697     0.55065    -0.12235   -0.054142
-0.071682   -0.010943    0.024786   -0.039526     0.47367     -0.2029   -0.070058
-0.072006   -0.023285     0.02641   -0.036927     0.36876    -0.29158   -0.078503
-0.071357   -0.035628    0.023812   -0.037902     0.23981    -0.37473     -0.0837
-0.073306   -0.045372    0.022512   -0.041799    0.083901    -0.43969   -0.086948
-0.078827    -0.04927    0.025111   -0.042774   -0.088247    -0.47802   -0.086948
-0.085973   -0.046671    0.030308   -0.035953    -0.25227    -0.48516   -0.083375
-0.096042   -0.040175    0.037778   -0.021337    -0.37538    -0.45918   -0.077853
-0.11358    -0.03238     0.04395  -0.0015233    -0.43514    -0.39974   -0.072656
-0.14639   -0.025884    0.048497    0.016666    -0.43482    -0.31301    -0.06681
-0.19089   -0.021012    0.048497    0.026735    -0.40104     -0.2146   -0.060963
-0.23928    -0.01549    0.041027    0.030957    -0.35361    -0.12268   -0.053817
-0.27696  -0.0089938    0.021863    0.027709    -0.28346   -0.054142   -0.046671
-0.28508  -0.0037969   -0.008669    0.020239    -0.16523   -0.012567   -0.039526
-0.25682  -0.0021729   -0.042449   0.0091954    0.019589   0.0085458   -0.038227
-0.19901  -0.0060706   -0.072331 -0.00022403     0.25702    0.016666   -0.041799
-0.12268   -0.017439    -0.09994  -0.0037969     0.48731    0.020888   -0.048945
-0.043099   -0.031081    -0.12203  0.00075039      0.6273    0.024786    -0.05804
0.031932   -0.046022    -0.13307    0.014068     0.60814    0.028034   -0.069733
0.098193   -0.055766    -0.13047    0.031607     0.41748    0.030308   -0.080776
0.15049   -0.057715    -0.11748    0.048172     0.11443    0.027385   -0.082725
0.18102   -0.052518    -0.10059    0.058241    -0.19771    0.019589   -0.078503
0.18394   -0.044723   -0.081751    0.063113    -0.42962    0.011794    -0.07428
0.16088   -0.041475   -0.067134    0.063763    -0.54298    0.012443   -0.072656
0.12125   -0.048296   -0.060638     0.06084    -0.54558    0.028034   -0.072006
0.076431   -0.064861   -0.062262    0.055643    -0.47152    0.052395   -0.070707
0.039402   -0.084349   -0.073955    0.048497    -0.35816     0.07773   -0.070058
0.013418   -0.097017   -0.093444    0.037129    -0.23506    0.099492   -0.076229
0.00010078   -0.090196    -0.11293    0.023487     -0.1204     0.12028   -0.084674
-0.0037969   -0.058689    -0.11813    0.014068   -0.026209     0.14464   -0.086948
-0.0024977  -0.0076946   -0.098316    0.014392    0.042975      0.1781   -0.073631
-0.0037969    0.047847   -0.055116    0.024461    0.095919      0.2174   -0.046996
-0.01549    0.088124  -0.0034721    0.039727     0.13425     0.25378   -0.019063
-0.039201     0.10144    0.038428    0.051745     0.16413     0.27716 -0.00054884
-0.070707    0.081627    0.058891     0.05207     0.18459     0.28073   0.0023744
-0.10319     0.03518    0.054668    0.037129     0.19434     0.26547   -0.011917
-0.13047   -0.026209    0.031607   0.0078962     0.19628     0.23851   -0.033679
-0.14801   -0.089546   0.0026992   -0.025884     0.19336     0.21188   -0.060313
-0.15321    -0.13827   -0.020362   -0.058689     0.19304     0.19109   -0.084349
-0.14736    -0.15386   -0.029782    -0.08305     0.20083     0.17777   -0.094418
-0.1308    -0.12755   -0.026209   -0.093769     0.21545     0.17192   -0.084349
-0.10319    -0.06616   -0.013216   -0.095393     0.23169      0.1703   -0.057065
-0.063561     0.01829   0.0036737   -0.096042     0.24371     0.16543   -0.027183
-0.016789     0.10534    0.018615    -0.10351     0.24793     0.14919  -0.0089938
0.031932     0.17322     0.01829      -0.123     0.24468     0.12385  -0.0083442
0.071883     0.20278  -0.0011985    -0.14964     0.24013    0.099817   -0.025559
0.094295     0.18329   -0.036602    -0.17205     0.24371    0.089748   -0.053168
0.080653     0.11801   -0.075904    -0.18147      0.2606     0.10177   -0.084999
0.022837    0.030957    -0.09994     -0.1662      0.2908      0.1336    -0.10546
-0.065186   -0.037577   -0.093119    -0.12365     0.32361     0.17615    -0.10514
-0.16458    -0.04992   -0.057065    -0.06616     0.34764      0.2174     -0.0824
-0.25552   0.0059473  -0.0015233   -0.011267     0.34732     0.24111   -0.044723
-0.32276     0.10761    0.057267    0.027709     0.31679     0.22877  -0.0096434
-0.34842     0.20798    0.097218    0.043625     0.25832     0.17615    0.008221
-0.31918     0.26287     0.10177    0.042326     0.17712    0.098517    0.015367
-0.23409     0.24371    0.073507    0.037129    0.092346    0.019914    0.027709
-0.11326     0.15633    0.030308    0.045249    0.036479     -0.0405    0.059216
0.01894    0.041027  -0.0089938    0.071883    0.038428   -0.079152     0.10436
0.14854   -0.053168   -0.030431     0.10956     0.10729    -0.10026     0.14561
0.26807   -0.090845   -0.031406     0.14756     0.22714    -0.10774      0.1677
0.36973   -0.068434   -0.015165     0.18134     0.36616    -0.10319       0.169
0.43664   -0.010943    0.009845     0.20765     0.49446   -0.076879     0.15991
0.45938    0.046223    0.033231     0.22292      0.5971   -0.025234     0.15568
0.44021    0.074806    0.044599     0.22617     0.65686    0.049472     0.16445
0.39669    0.067986    0.042651     0.22065     0.65264     0.13457     0.18394
0.34927    0.035505    0.032257      0.2148     0.55065     0.21317     0.20473
0.30607      0.0014    0.024137     0.20928     0.30834     0.27164     0.21707
0.26709   -0.012242    0.024137     0.20505   -0.093119     0.30574     0.21902
0.22714   0.0065969    0.032257     0.20181      -0.593     0.32134      0.2148
0.18167    0.055318    0.047523     0.19986     -1.0718     0.32848     0.21447
0.13392     0.11801     0.06831      0.2044     -1.4014     0.33758     0.22292
0.090722      0.1755     0.09397     0.21642     -1.5012     0.35089     0.23526
0.052395     0.21512     0.11866     0.23494     -1.3686     0.36486     0.24111
0.019914     0.22682     0.13555     0.25085     -1.0744     0.36616     0.23299
-0.008669     0.21058     0.14172     0.25767    -0.71448     0.34764      0.2096
-0.031406      0.1755     0.13749     0.24825    -0.37733     0.31257     0.17647
-0.044723      0.1323     0.12483     0.22389     -0.1204     0.26579     0.14594
-0.053168    0.092996     0.10501     0.18654    0.029983     0.20895     0.12385
-0.061937    0.064737    0.082602     0.14399    0.073182     0.14139     0.10664
-0.070707    0.045574    0.058241     0.10371    0.029009    0.064088    0.088448
-0.076879    0.029333    0.038753    0.066362   -0.056741   -0.019388    0.063763
-0.079802    0.011794    0.025436    0.027385    -0.12463    -0.10059    0.035505
-0.083375  -0.0057458    0.015042    -0.01614    -0.13177    -0.16847    0.008221
-0.089221    -0.02361   0.0056225   -0.063561   -0.073955    -0.21395   -0.017114
-0.09929   -0.035628 -0.00087364    -0.10741    0.019914    -0.22921   -0.038227
-0.11001   -0.038876  -0.0018481    -0.13892     0.11378    -0.20843   -0.053168
-0.11683   -0.036278   0.0052977    -0.14931     0.17907    -0.14866   -0.062912
-0.11715   -0.030106    0.018615    -0.14379     0.19953   -0.059664   -0.070058
-0.10871   -0.024909    0.032257    -0.12852     0.17517    0.042001   -0.073631
-0.094418   -0.021986    0.041351    -0.11163     0.12223     0.14594    -0.07428
-0.075904   -0.022636    0.047523    -0.10221    0.065062     0.24468   -0.070382
-0.054792   -0.022311    0.054019    -0.10644    0.023812     0.33205   -0.064211
-0.037252   -0.018088    0.060515     -0.1178  0.00010078     0.39961   -0.059989
-0.025884  -0.0093186    0.065712     -0.1243   -0.013866     0.44574   -0.061613
-0.01614   0.0020496    0.069934    -0.11813   -0.034004      0.4649   -0.070382
-0.007045    0.014068    0.074157   -0.098965   -0.067134     0.44574   -0.084999
-0.0024977    0.021863    0.075781   -0.073306    -0.10449     0.37525   -0.096367
-0.0047713    0.027385    0.074482   -0.043423    -0.12138     0.25215    -0.09929
-0.011592    0.027709    0.067661  -0.0099683    -0.10026    0.090072   -0.090521
-0.018413    0.023812    0.055318    0.025761   -0.037902   -0.086623   -0.070707
-0.022311    0.016666    0.045249    0.057592    0.049796    -0.25812    -0.04992
-0.024909   0.0056225    0.041027    0.081303     0.14172     -0.4228   -0.037902
-0.022311   -0.007045     0.04395     0.09397     0.21642    -0.58813   -0.041475
-0.016464   -0.018413    0.047847     0.10144     0.26027    -0.74826    -0.05804
-0.011917   -0.028157    0.047523     0.10859     0.27294    -0.88695     -0.0824
-0.0063954   -0.035628    0.042326     0.11833     0.26287    -0.98407    -0.10481
-0.0021729   -0.038227    0.031282     0.12872     0.23818     -1.0289    -0.11845
-0.0015233   -0.034978    0.016991      0.1362     0.19986      -1.025      -0.123
-0.0054209   -0.026209  0.00010078     0.13879     0.15049    -0.98439    -0.12073
-0.011592   -0.013216   -0.013866     0.13522    0.092021    -0.92463    -0.11196
-0.020687 -0.00087364   -0.022636      0.1219    0.035505    -0.86031    -0.09994
-0.026209   0.0033489   -0.027183    0.095594  -0.0067202    -0.80445   -0.089546
-0.023935  -0.0024977   -0.034654    0.058241   -0.028807    -0.75995   -0.081751
-0.016789   -0.013216   -0.048945    0.014392   -0.033354    -0.72552   -0.077528
-0.0089938    -0.02426   -0.068434   -0.030756   -0.033679    -0.69921   -0.079152
0.00042559   -0.030106   -0.094418   -0.076229   -0.044398    -0.67777    -0.08305
0.011144   -0.030756    -0.12235    -0.12138   -0.070707    -0.65146   -0.089221
0.01894   -0.027183    -0.15158    -0.16782    -0.10416    -0.60631   -0.097666
0.022188    -0.02361    -0.17887    -0.21752    -0.12982    -0.53323    -0.10611
0.019589   -0.020037    -0.19771    -0.26397    -0.13567    -0.43059    -0.10806
0.011469   -0.018738    -0.20453    -0.29872    -0.11878    -0.30424    -0.10221
0.0023744   -0.019063    -0.19803    -0.32048   -0.081751    -0.16945   -0.092469
-0.0034721   -0.020687    -0.17952    -0.32893   -0.029132   -0.039851   -0.084024
-0.0050961   -0.025234    -0.15581    -0.32666    0.033231    0.066037   -0.075904
-0.0054209   -0.028807    -0.12982    -0.31756    0.091696     0.13879   -0.068758
-0.0011985   -0.033354    -0.10741    -0.29872     0.13392     0.17517    -0.06681
0.0065969     -0.0405   -0.091495    -0.26754     0.15016     0.18362   -0.072006
0.012768   -0.048296   -0.085648    -0.22824     0.14204      0.1781   -0.079802
0.014392   -0.054467   -0.082076    -0.18536     0.11541     0.16835   -0.090521
0.008221   -0.054792   -0.077853    -0.13989    0.079679     0.15991    -0.10124
0.0014   -0.048945   -0.071682   -0.093769    0.040052     0.15373    -0.10709
-0.0028225   -0.040175   -0.062912   -0.050569   0.0033489     0.15016    -0.10286
-0.0073698   -0.033354   -0.052843  -0.0099683   -0.032705     0.14172   -0.086298
-0.014516   -0.031081   -0.046022    0.030633   -0.080127     0.12288   -0.064536
-0.022311   -0.032705   -0.044398    0.074157    -0.14249    0.086824   -0.042774
-0.030756   -0.034654   -0.043099     0.12548    -0.20323    0.040702   -0.022961
-0.040175   -0.032055   -0.038227     0.18362    -0.24188  -0.0076946  -0.0041217
-0.053168   -0.022311   -0.024909     0.24436    -0.24383   -0.047971    0.015042
-0.072006  -0.0060706  -0.0028225     0.29568    -0.21687   -0.072981    0.034206
-0.095068    0.008221    0.028359     0.32718    -0.17692   -0.080776    0.048822
-0.11813    0.016341    0.062464      0.3392    -0.14119   -0.075255    0.056617
-0.13729    0.016016    0.087149     0.33335     -0.1191   -0.059339    0.056292
-0.14606   0.0095202    0.092996     0.31484    -0.11131   -0.034654    0.053044
-0.14022      0.0014    0.082277     0.28366    -0.12722  -0.0096434    0.051096
-0.11878  -0.0080194    0.058891     0.24241    -0.18634   0.0088706    0.054019
-0.087922   -0.022311    0.027709     0.19693    -0.29872    0.017965    0.057917
-0.047971   -0.034329   0.0017248     0.15731    -0.44261    0.023812    0.062139
-0.0050961   -0.033354  -0.0093186     0.13002    -0.57773    0.037129     0.06831
0.034206   -0.018088  -0.0021729     0.11995    -0.66446    0.066362    0.073182
0.065712   0.0023744    0.015042     0.12678    -0.68849     0.10956    0.076431
0.092671    0.013743    0.032257     0.14302    -0.65114     0.15568    0.079354
0.11476    0.003024    0.040702     0.16056    -0.56896     0.19531    0.079029
0.12743   -0.029457    0.036804     0.17225    -0.46048     0.22454    0.068635
0.12905   -0.070707     0.01829      0.1755    -0.34647     0.24338    0.045574
0.12353    -0.10254  -0.0076946     0.17062    -0.23863     0.25053    0.014717
0.11638    -0.11163   -0.031081     0.15991    -0.14769     0.24598   -0.013216
0.10274    -0.10221   -0.042449     0.14237   -0.074605     0.23006    -0.03238
0.072208   -0.085973   -0.036927      0.1206   -0.014191     0.21577   -0.039526
0.016991   -0.068109    -0.01484    0.092671    0.037778     0.22422   -0.035628
-0.061288   -0.050569     0.01829    0.061489    0.081952     0.27034   -0.024909
-0.15386   -0.033354     0.06019    0.028684     0.11736     0.34602   -0.012892
-0.23636  -0.0089938     0.10306  -0.0057458     0.14496     0.42657  -0.0024977
-0.28183    0.027709     0.13684   -0.048945     0.16478     0.48114   0.0072465
-0.27566    0.076106     0.15373    -0.10546     0.17225     0.48439    0.013418
-0.21622     0.12645     0.15016    -0.16295     0.16705     0.43209    0.012443
-0.11228     0.15991     0.12548    -0.20518     0.15731     0.34342   0.0085458
0.025436      0.1625    0.081627    -0.22532     0.15796     0.23981    0.012119
0.18654     0.13425    0.031932    -0.22467     0.17907     0.14042    0.034855
0.34602    0.099167   -0.008669    -0.20745     0.22065    0.056292    0.080653
0.47497    0.089423   -0.031406    -0.18049     0.27294 -0.00054884     0.14302
0.55065     0.12223   -0.034654    -0.14866     0.32393   -0.026209     0.20928
0.56104     0.19044   -0.019712    -0.11423     0.36518   -0.024909     0.26417
0.51167     0.27326   0.0078962   -0.086623     0.39474  -0.0057458     0.30347
0.42462     0.34407    0.041351   -0.071357      0.4165    0.022837     0.32491
0.32816     0.38402    0.070909   -0.070382     0.42852    0.054019      0.3314
0.24695     0.38078    0.092346   -0.078827     0.42917    0.087799     0.32296
0.19011     0.33628    0.096244   -0.090845     0.41098     0.12548     0.30315
0.15601      0.2619    0.081952   -0.095717     0.37818      0.1638     0.27586
0.12872     0.17485    0.054993   -0.088896     0.33758     0.20213     0.24793
0.097543    0.094945    0.026735   -0.070382     0.30152     0.24241     0.23006
0.06084    0.038103   0.0069217   -0.044723     0.27099     0.28853     0.22812
0.02706   0.0095202   0.0033489   -0.019063     0.24468     0.34115     0.23786
0.003024 -0.00054884    0.011794   0.0017248     0.22065     0.39279     0.24566
-0.010618  -0.0063954    0.023812    0.015042     0.19856     0.43177     0.24046
-0.020362   -0.015165    0.033231    0.020888     0.18069     0.44931     0.21772
-0.028157   -0.025559    0.041027     0.02706     0.17387     0.44411     0.18037
-0.029132   -0.036602    0.047198     0.03583     0.19239      0.4204     0.13132
-0.020687   -0.043423    0.044599     0.05207     0.24371       0.385     0.07773
-0.0063954   -0.046671    0.032906    0.070584     0.32198      0.3444    0.023487
0.0062721   -0.046996    0.016016     0.08585     0.40514     0.30315   -0.022961
0.014717   -0.045047  -0.0060706    0.098517     0.44963     0.26417   -0.057065
0.016666   -0.041799   -0.026858     0.10729     0.39474     0.22682   -0.077528
0.0078962   -0.041799   -0.041799     0.11833     0.20051     0.18394   -0.085324
-0.0083442   -0.043423   -0.045372     0.13522    -0.10676     0.13555   -0.085973
-0.025234   -0.047646   -0.040175     0.15276    -0.42475    0.080003   -0.084349
-0.036602   -0.055766   -0.031081     0.16705     -0.6232    0.016341   -0.086623
-0.040825   -0.064536    -0.02361     0.17615    -0.62873    -0.04927   -0.094093
-0.043748   -0.070382   -0.019388     0.18492    -0.47184    -0.10903    -0.10351
-0.053168   -0.072006   -0.017114     0.19466     -0.2448    -0.15808    -0.10838
-0.071032   -0.071032    -0.01484     0.19921   -0.049595    -0.19803    -0.10774
-0.095393   -0.068434   -0.013216     0.19076     0.05272    -0.22694    -0.10579
-0.11943   -0.072331   -0.012567     0.16543    0.059541    -0.24448    -0.10774
-0.13957     -0.0837   -0.017764      0.1284      0.0014     -0.2487    -0.11163
-0.15581   -0.097017   -0.030756    0.086175   -0.088572    -0.23993    -0.11033
-0.16393    -0.10286   -0.044723    0.047523    -0.18731    -0.22272    -0.10091
-0.16263   -0.096042   -0.052843     0.01764    -0.28183    -0.20778   -0.086948
-0.14866   -0.078827   -0.048296  -0.0050961    -0.36433     -0.2016   -0.071682
-0.12235   -0.059664   -0.034329   -0.020687    -0.42475    -0.20648   -0.061288
-0.092794   -0.048945   -0.018088    -0.03173    -0.44716    -0.21655   -0.063561
-0.068758   -0.044723  -0.0050961   -0.043099    -0.41143    -0.21947   -0.077853
-0.053817   -0.043423   0.0023744   -0.059989    -0.31236    -0.21167   -0.096692
-0.051544   -0.043099   0.0056225   -0.079802    -0.16685    -0.19608    -0.10838
-0.058365   -0.043099   0.0036737    -0.10319   -0.010618    -0.17854    -0.10903
-0.069408   -0.042774  -0.0047713    -0.13534     0.12418    -0.16068    -0.10026
-0.080776   -0.044073   -0.018738    -0.17724     0.21447    -0.14216   -0.088247
-0.086623    -0.04927   -0.033679    -0.22174     0.24793    -0.11878   -0.078827
-0.083375   -0.059014   -0.045697    -0.26234     0.21123   -0.091495   -0.072006
-0.070707   -0.069408   -0.051544     -0.2893    0.092346   -0.062587    -0.06616
-0.057065   -0.073631   -0.052518    -0.30067    -0.10449   -0.036278    -0.05804
-0.046996   -0.070707   -0.047971    -0.29872    -0.33802   -0.017764   -0.047646
-0.041799   -0.061613   -0.037902    -0.28378    -0.53908   -0.012892   -0.036927
-0.034654    -0.04992   -0.024585    -0.26072    -0.64854    -0.02426   -0.028157
-0.026209   -0.041799   -0.013541    -0.23116    -0.64886   -0.046996   -0.024585
-0.016464   -0.039526  -0.0089938    -0.19673    -0.55954    -0.07428   -0.029132
-0.0044465   -0.036927   -0.011917    -0.15711    -0.42215   -0.098965   -0.036278
0.01017   -0.034654   -0.017439    -0.11456    -0.28183    -0.11651   -0.043099
0.025436   -0.030106   -0.020687    -0.07493    -0.16977    -0.12787   -0.050569
0.039078   -0.025559   -0.017114   -0.042449   -0.093769    -0.13502   -0.055116
0.045574   -0.020037  -0.0076946   -0.016464   -0.042449    -0.14152   -0.054792
0.038428   -0.014516   0.0026992   0.0049729   0.0062721    -0.14899   -0.051544
0.012119  -0.0080194    0.011469    0.019914    0.078379    -0.16035   -0.050569
-0.029132  -0.0028225    0.016341    0.025436     0.19401    -0.17367   -0.055441
-0.072331 -0.00022403    0.017316    0.019914     0.34602    -0.18082   -0.065835
-0.10124   0.0046481    0.014392   0.0039985     0.49706    -0.17919   -0.075255
-0.10936   0.0095202   0.0072465   -0.014191     0.60619     -0.1649   -0.079802
-0.097341    0.011469    0.003024   -0.027508     0.65134    -0.14249   -0.080451
-0.075255    0.009845   0.0036737   -0.036278     0.62828    -0.11845   -0.077203
-0.04992   0.0088706   0.0065969   -0.042774     0.55032   -0.098641   -0.074605
-0.028807   0.0085458     0.01017   -0.045372     0.44801   -0.083375   -0.070058
-0.016464   0.0052977    0.013418   -0.042124     0.34894   -0.070058   -0.063561
-0.019063 -0.00054884    0.016341   -0.029132     0.27164   -0.061288   -0.056416
-0.034978  -0.0089938    0.019264  -0.0067202        0.22   -0.060313   -0.047971
-0.058689   -0.018738    0.022512    0.016991     0.18199    -0.06681   -0.040825
-0.079152    -0.02361    0.021213    0.036804     0.14074   -0.076879   -0.034654
-0.086298   -0.018738    0.013418     0.05207    0.088773    -0.08305   -0.028482
-0.077853  -0.0024977   0.0036737    0.066362    0.028034   -0.073306   -0.018738
-0.058689    0.019589  -0.0028225    0.080653    -0.03173   -0.040825  -0.0067202
-0.039851    0.038103  -0.0037969    0.088773   -0.076879    0.012768   0.0095202
-0.027833    0.047523  -0.0060706    0.090397   -0.093769    0.078379    0.025436
-0.023935    0.048497   -0.013216    0.089748   -0.079152     0.14237    0.037778
-0.030431    0.046223    -0.02361    0.091696    -0.04115     0.19466    0.040377
-0.044398    0.042326   -0.034004    0.097543   0.0056225     0.23201    0.032582
-0.061937    0.031932   -0.042449     0.10664    0.053369     0.25865    0.019264
-0.078503    0.012119   -0.046347     0.11606    0.097868     0.27424   0.0069217
-0.09182   -0.013216   -0.047321     0.12223     0.13944     0.28073  -0.0034721
-0.10156   -0.040175    -0.04927      0.1284     0.18589     0.27196  -0.0089938
-0.097991   -0.060313   -0.052193     0.13522     0.24825     0.24273  -0.0080194
-0.073306   -0.062912   -0.052843     0.14496     0.33011     0.19726   0.0023744
-0.024585   -0.042449   -0.044723     0.15698     0.42105     0.14821    0.022837
0.0433  -0.0054209   -0.024585       0.169      0.5055     0.10404    0.049472
0.11768     0.03583   0.0043233     0.17355     0.56527    0.063763    0.073832
0.18264    0.066037    0.030633     0.16478     0.57306    0.023487    0.092671
0.22487    0.080003    0.048497     0.13977     0.49186   -0.023285     0.10177
0.23818    0.074806    0.054019    0.098517     0.30574   -0.086948     0.10047
0.21935    0.061165     0.05142     0.04395    0.042001    -0.17302    0.089748
0.17095    0.047847    0.044275    -0.02426    -0.23993    -0.27988     0.06896
0.10631    0.036804    0.036804    -0.09929    -0.47314    -0.39681      0.0433
0.040377    0.029009    0.030957     -0.1701    -0.61411     -0.5105    0.015692
-0.012892    0.025436    0.028684    -0.22694    -0.64757    -0.60729  -0.0089938
-0.046347    0.028034    0.027385    -0.26039     -0.5826    -0.68394    -0.02361
-0.054467     0.03583    0.023487    -0.27046    -0.44781    -0.74046   -0.027508
-0.040175     0.04395    0.010819     -0.2591    -0.28313    -0.77944   -0.022961
-0.010293     0.05207   -0.011592    -0.22824    -0.12235    -0.80185   -0.013216
0.025761    0.059216   -0.038227    -0.18471   0.0078962    -0.79698  -0.0028225
0.060515    0.067011   -0.059339    -0.13762    0.095594    -0.75865   0.0033489
0.091372    0.075456    -0.06681   -0.096042     0.13912    -0.68914   0.0091954
0.12223    0.083251   -0.050894   -0.059664     0.14269     -0.5969    0.016341
0.15081    0.088773   -0.018088   -0.019712      0.1219    -0.49133    0.027709
0.16965    0.090072    0.022512    0.026735    0.088448    -0.38447    0.045574
0.17387    0.086175    0.065387    0.074806    0.050771     -0.2867    0.067661
0.15991    0.079354     0.10501     0.11411    0.014392     -0.2016    0.087474
0.13295    0.073832     0.13457     0.14009   -0.020687    -0.12105     0.10144
0.10177    0.072208     0.14854     0.15503   -0.050244    -0.03238     0.10404
0.074482    0.075781     0.14789     0.16348   -0.069733    0.074482     0.09462
0.051745    0.084876     0.13522      0.1664   -0.075579     0.20668    0.079354
0.031932    0.092346     0.11313     0.16803   -0.070382     0.35219    0.065712
0.015692    0.092996    0.085525     0.16933   -0.057065     0.48569    0.059216
0.0033489    0.080328    0.058566     0.16673   -0.044398     0.58053    0.058241
-0.0031473    0.056292    0.035505     0.15666   -0.049595     0.62211    0.059865
-0.0047713    0.026085    0.014717     0.14139   -0.081426     0.61431    0.059865
-0.0050961  -0.0063954  -0.0073698     0.12743    -0.13859     0.56819    0.058566
-0.011592   -0.036278   -0.031081     0.11768     -0.2133     0.49836    0.056292
-0.025884   -0.060313    -0.04862     0.11346      -0.301     0.41813    0.055968
-0.050244   -0.076229   -0.055766     0.11054    -0.39129      0.3327    0.057592
-0.076554   -0.084024   -0.053817     0.10989     -0.4686     0.24695    0.059216
-0.093444   -0.084999   -0.047971     0.11378    -0.51667     0.16218    0.056942
-0.090196   -0.081751   -0.042774     0.12418    -0.52739    0.077405    0.048497
-0.066485    -0.07428   -0.043099     0.13977     -0.5001  -0.0031473     0.03583
-0.025884   -0.061937   -0.047646     0.15471    -0.43741   -0.070707    0.026085
0.01894   -0.044398    -0.04862     0.16608    -0.33315    -0.11813    0.021863
0.056292   -0.020362   -0.044073     0.17127    -0.18179    -0.13957    0.021538
0.083901    0.010819   -0.029782     0.17582   0.0069217    -0.13502    0.023487
0.10371    0.047198   -0.008669     0.18459     0.20733    -0.10416     0.02706
0.12028    0.080003     0.01017     0.19888     0.38467   -0.055441    0.031932
0.1323    0.098842     0.01894      0.2187     0.49901   0.0039985    0.039727
0.13879    0.097868    0.021213     0.24078     0.52856    0.067661    0.050446
0.14172    0.075131    0.019264     0.26027     0.47367     0.12937     0.06019
0.14204    0.037454   0.0088706     0.26449     0.35836     0.18687    0.069285
0.14139   0.0010752   -0.010943     0.24793     0.20928     0.23591    0.078055
0.14172   -0.022961   -0.037577     0.20668    0.047198     0.27716     0.08585
0.14334   -0.030431   -0.064211     0.14561    -0.11456     0.31029    0.089748
0.14204   -0.021986   -0.087597    0.076431    -0.27046     0.33823    0.083901
0.13652  -0.0060706    -0.10481    0.008221      -0.415     0.36096     0.06896
0.12678    0.012119    -0.11586   -0.051544    -0.53453     0.38272    0.047523
0.11183    0.031282     -0.1217    -0.10189    -0.61216     0.40416    0.026085
0.087474    0.052395    -0.12527    -0.14346    -0.63132     0.42332   0.0072465
0.043625    0.073507    -0.12365    -0.17497    -0.58098     0.43209  -0.0076946
-0.024909    0.092996    -0.11131    -0.19089     -0.4569     0.42625   -0.019063
-0.11033     0.10859    -0.08305    -0.18634    -0.27371     0.40449   -0.025884
-0.18471     0.11736     -0.0405    -0.16653   -0.059339     0.37038   -0.021337
-0.21882     0.11898   0.0078962    -0.13762     0.14789      0.3327  -0.0047713
-0.2016     0.11378    0.046873    -0.11001     0.31127     0.29925    0.015367
-0.14801    0.099817    0.064088   -0.091495     0.39994     0.26904    0.028359
-0.087272    0.073832    0.054993   -0.089871     0.39994     0.23981    0.028359
-0.042449    0.031607    0.021863    -0.10676     0.31549     0.21382    0.016341
-0.016464   -0.025234   -0.023285    -0.13242      0.1781     0.19628   0.0010752
0.003024   -0.081101   -0.061613    -0.15191    0.037129     0.18979  -0.0080194
0.02641    -0.12235   -0.074605    -0.15386   -0.068758     0.19076   -0.011592
0.046873    -0.14152   -0.065186    -0.13762    -0.12365     0.18654   -0.015815
0.05272    -0.14184   -0.042774    -0.11131    -0.13404     0.17225   -0.025559
0.040377    -0.12625   -0.016789   -0.082076    -0.11618     0.14659   -0.039851
0.016016    -0.10319    0.010495   -0.054792    -0.09117     0.11898    -0.04862
-0.013541   -0.078827    0.036479   -0.032055   -0.090196      0.0865   -0.044723
-0.047971   -0.055766    0.062789   -0.014191    -0.13567    0.046873   -0.032055
-0.093769    -0.03173    0.086824  -0.0021729    -0.22174 -0.00022403   -0.018738
-0.15353  -0.0063954     0.10924   0.0056225    -0.31854    -0.04927   -0.011917
-0.21687    0.015042     0.12515     0.01017    -0.38967   -0.092469   -0.015815
-0.27339    0.025761     0.13132    0.010495     -0.4215    -0.12463   -0.030431
-0.31301     0.01764     0.12288   0.0065969    -0.42052    -0.14379   -0.055441
-0.33185   -0.011592    0.099167  -0.0024977    -0.40266    -0.14866   -0.087922
-0.32406   -0.060313    0.067986   -0.013541    -0.37473    -0.14249    -0.12008
-0.28411    -0.11586    0.034855   -0.018738    -0.33802    -0.12982    -0.14152
-0.21265     -0.1649   0.0039985    -0.01549    -0.29905    -0.11651    -0.14931
-0.12398    -0.19089   -0.018738  -0.0063954    -0.26202    -0.10221    -0.14476
-0.03303    -0.18309   -0.027508   0.0056225    -0.22597   -0.085973    -0.13307
0.042975    -0.14379   -0.021012    0.019589    -0.17627   -0.063237    -0.11456
0.092996    -0.08305  -0.0037969    0.032582   -0.089546    -0.03173   -0.086948
0.11866   -0.010293    0.016666    0.044275     0.04395   0.0069217   -0.047321
0.12353    0.066037     0.03453     0.05142     0.22324    0.040377  -0.0047713
0.11248     0.13652    0.039078     0.05207     0.42625     0.05272    0.023162
0.095594     0.19076    0.027709    0.046548     0.61659    0.028359     0.02706
0.074806     0.22259   0.0065969    0.038753     0.74781   -0.034004    0.011794
0.055968     0.22487   -0.011267    0.034855     0.77054    -0.12105  -0.0076946
0.037454     0.20083   -0.014191    0.038103     0.64095      -0.212   -0.025884
0.019914     0.16283   0.0020496    0.049796     0.35544    -0.29417   -0.038227
0.0091954     0.13262    0.034206    0.065387   -0.007045    -0.36044   -0.044073
0.011794      0.1232    0.069285    0.081303    -0.31074    -0.40656   -0.046671
0.018615     0.12645    0.090397    0.088448    -0.44196    -0.42929   -0.054792
0.024786     0.12288    0.095269    0.082277    -0.38447    -0.43352   -0.071032
0.036804     0.10339    0.080978    0.062789    -0.21817    -0.42832   -0.087272
0.058566    0.064737    0.048172    0.032582   -0.056741    -0.41825   -0.093769
0.094945    0.011144   0.0046481 -0.00022403    0.027385    -0.40201   -0.080451
0.15503   -0.046671   -0.036927   -0.027508    0.022188    -0.37148   -0.040175
0.24208   -0.094743   -0.068109   -0.042449   -0.053492    -0.32406    0.027709
0.33628     -0.1243   -0.082725   -0.041475    -0.17335    -0.26364     0.10956
0.39961    -0.13372     -0.0824   -0.029132    -0.31886    -0.20355     0.18134
0.39929    -0.12463   -0.075255    -0.01549     -0.4595    -0.15191     0.22519
0.32751   -0.096692   -0.061937  -0.0057458    -0.55305    -0.11066     0.24013
0.21058   -0.053492    -0.04115      0.0014    -0.55175   -0.082076     0.23689
0.09397  -0.0024977   -0.013541    0.014717    -0.42215   -0.068434     0.22779
0.013418    0.044924     0.01894    0.038103    -0.17757   -0.062262        0.22
-0.02361     0.07708    0.046548     0.06961     0.11151    -0.04992     0.21025
-0.034329    0.087149     0.06019     0.10371     0.34602   -0.021661     0.19206
-0.037577    0.077405    0.058891     0.13587     0.46977    0.023487     0.15926
-0.046671    0.065062    0.049472     0.15958     0.49283    0.079029     0.11021
-0.070382    0.065712    0.039402     0.17517     0.48082     0.13782     0.05207
-0.11326    0.084876    0.034855     0.18524     0.51037     0.19823  0.00010078
-0.1649     0.10924    0.036154     0.18914     0.61659     0.25507    -0.03303
-0.20453      0.1232    0.041676     0.17745     0.77119     0.30477   -0.046347
-0.21655     0.12125    0.051745     0.14561     0.91184     0.34667   -0.046347
-0.19478     0.10534    0.063763    0.098842     0.98329     0.38435   -0.038876
-0.14704    0.078704    0.070584    0.044924       0.969     0.41748   -0.028157
-0.09182    0.050121    0.066362  -0.0096434     0.87935     0.43989   -0.017764
-0.048945    0.021213    0.054344    -0.06616     0.74099     0.44671  -0.0093186
-0.029132  -0.0037969    0.040377     -0.1217      0.5841     0.43339  -0.0018481
-0.029457   -0.023285    0.029009    -0.17107     0.43794     0.39864   0.0020496
-0.039526   -0.036278    0.020888     -0.2133     0.32004     0.34667      0.0014
-0.04927   -0.041799    0.016666    -0.25455     0.23948     0.28723  -0.0050961
-0.055116   -0.043099    0.012768    -0.29872     0.18979     0.22519   -0.015815
-0.058689   -0.044723   0.0046481    -0.33607     0.16153     0.15796   -0.029782
-0.058365   -0.052518   -0.013541    -0.35914     0.14626    0.080653   -0.046347
-0.052518   -0.068109   -0.038227    -0.36368     0.13782  -0.0037969   -0.063561
-0.037252   -0.082725   -0.060638    -0.34939     0.13814   -0.088896   -0.079477
-0.013541     -0.0837    -0.07493    -0.32341     0.15438     -0.1701   -0.093444
0.012119   -0.063561   -0.080776     -0.2932     0.18687    -0.25033    -0.10546
0.02706   -0.025234   -0.082076    -0.25975     0.22032    -0.33445    -0.11845
0.019589     0.01829   -0.079802    -0.22077     0.23851    -0.42605    -0.13047
-0.0067202    0.050121   -0.073955    -0.17335     0.23786    -0.51764    -0.13697
-0.04115    0.058566   -0.059664    -0.11878     0.22422     -0.5917     -0.1321
-0.072331      0.0433   -0.037577   -0.062587     0.20278     -0.6297    -0.11131
-0.092794    0.014068    -0.01484   -0.012567      0.1703    -0.62483   -0.077853
-0.095068   -0.014516   0.0017248    0.023487     0.12288     -0.5839   -0.038227
-0.080127   -0.031406   0.0095202     0.04395    0.064737    -0.51992  0.00042559
-0.053168   -0.034654   0.0069217    0.048822  -0.0011985    -0.44521    0.030633
-0.025234   -0.027508  -0.0037969    0.041351   -0.073306    -0.36953    0.044924
-0.0067202   -0.018738   -0.019063    0.030308    -0.15353    -0.29645    0.038428
-0.0021729   -0.012892   -0.029457    0.020564    -0.23214    -0.22272    0.015042
-0.0093186   -0.010943   -0.029782    0.012119    -0.29677    -0.14866   -0.014191
-0.02361   -0.013216   -0.023285   0.0072465    -0.34095   -0.072656   -0.038876
-0.045372   -0.019712   -0.017764   0.0056225    -0.36011   0.0010752    -0.04927
-0.075579   -0.030756   -0.016789   0.0049729    -0.35167    0.064413   -0.046347
-0.11488   -0.047646   -0.016789  0.00075039    -0.31886     0.10826   -0.036602
-0.16133   -0.067459   -0.018738   -0.007045    -0.27014     0.12678   -0.030431
-0.2094   -0.080451   -0.021986   -0.016464    -0.21817     0.12483   -0.034004
-0.25   -0.082076   -0.022961   -0.021986    -0.17367     0.11411   -0.046996
-0.27274   -0.075579   -0.017114   -0.015815    -0.14054     0.10404   -0.064536
-0.26559   -0.065835  -0.0015233   0.0052977     -0.1204    0.097543   -0.080451
-0.22629   -0.056741    0.019264    0.037129    -0.11196    0.097868   -0.089546
-0.1597    -0.04927    0.038428    0.071883    -0.11715     0.11313   -0.088572
-0.077203   -0.039201    0.049147     0.10729    -0.13729     0.15081   -0.076554
0.011794   -0.021012    0.050121     0.14204    -0.18114     0.20765   -0.057715
0.10144   0.0039985    0.046548      0.1729    -0.25292     0.28106    -0.04115
0.18232    0.026735    0.040052     0.19953      -0.339     0.35836   -0.029782
0.23883    0.039402    0.031282     0.22065     -0.4124     0.41878   -0.020687
0.26027    0.039402    0.022837     0.23656    -0.44521     0.44086   -0.011592
0.24468    0.031282    0.015367     0.24598    -0.42767     0.41261  -0.0044465
0.2044    0.014717   0.0056225     0.24858     -0.3705       0.334  -0.0015233
0.15471  -0.0096434  -0.0073698     0.23754    -0.29515     0.21967  -0.0024977
0.10761   -0.045047   -0.030106      0.2161    -0.21362    0.088773  -0.0047713
0.067986   -0.089546   -0.062262     0.18654     -0.1282   -0.039201  -0.0067202
0.044275    -0.13047   -0.096367     0.15666   -0.038876    -0.15321   -0.007045
0.032906    -0.15126    -0.12105     0.13522    0.045249    -0.25162  -0.0047713
0.033881    -0.13859    -0.12722      0.1271     0.11281    -0.33672  0.00075039
0.047847   -0.096042    -0.11715     0.12807     0.14659    -0.41305    0.010819
0.067986   -0.036602    -0.10156      0.1258     0.11768    -0.47867    0.019264
0.089748    0.022512   -0.089871     0.11541   0.0033489    -0.53356    0.019914
0.11086    0.066686   -0.082725     0.10177     -0.1753    -0.57286    0.010495
0.13035    0.091047   -0.071032    0.093645    -0.35849    -0.58195  -0.0080194
0.14367     0.10404    -0.04927    0.098193    -0.48029    -0.54298   -0.027508
0.15016     0.12223   -0.017439     0.11476      -0.504    -0.44618   -0.035303
0.14432     0.15211    0.022188     0.13652    -0.42832    -0.30002   -0.021661
0.11833     0.18914    0.061814     0.15698    -0.28573    -0.13534    0.012443
0.066037     0.22097    0.091047      0.1703     -0.1217   0.0075714    0.051745
-0.011592     0.23591     0.10729     0.17257     0.01829    0.092021    0.077405
-0.10124     0.22812     0.10989     0.16088     0.10696     0.10664    0.081303
-0.17627     0.20311    0.099817     0.13165     0.14042    0.065062    0.071558
-0.212     0.16608    0.080003    0.083901     0.14237 -0.00022403    0.061814
-0.19446     0.12353    0.049147    0.023162     0.14984   -0.056416    0.060515
-0.13307    0.079679    0.011794   -0.042774     0.18102   -0.084999    0.065062
-0.044398    0.039078   -0.022311    -0.10871     0.23136   -0.080127     0.06961
0.057267   0.0091954   -0.043423     -0.1662     0.27749   -0.047321    0.074482
0.16056  -0.0054209   -0.045372    -0.20908     0.29535   0.0046481      0.0852
0.2502  0.00075039   -0.031081    -0.23506     0.26644    0.064088     0.11086
0.31549    0.020239   -0.007045     -0.2461     0.18459      0.1232     0.15438
0.34602    0.043625    0.016991    -0.24708    0.056942     0.17647     0.20993
0.33465    0.060515    0.034206    -0.24578    -0.10124      0.2187     0.26384
0.27879    0.069934    0.040702    -0.24253    -0.25422     0.24273     0.29762
0.19336    0.072858    0.038753    -0.23116    -0.36271     0.24403     0.30022
0.10729    0.066362    0.032906    -0.20323    -0.41111     0.22032     0.27359
0.048172    0.050446     0.02706    -0.15483    -0.40396      0.1768     0.23331
0.027709    0.030957    0.022512   -0.096367    -0.35719      0.1271     0.19271
0.044924    0.012768    0.021213   -0.044723     -0.2932    0.079354     0.15503
0.078055   0.0020496     0.02641  -0.0063954    -0.23051    0.042975     0.11963
0.10371  -0.0011985    0.040052     0.01894    -0.18471    0.021213    0.087149
0.10956   0.0020496    0.058241     0.03583     -0.1701    0.016016    0.056617
0.096893   0.0049729    0.071558    0.048172    -0.19706    0.024461     0.03453
0.070584   0.0075714     0.07708    0.058241    -0.27306    0.037129    0.024461
0.04395   0.0095202    0.075781    0.064737    -0.40169    0.042651    0.023162
0.02706   0.0091954    0.067661    0.067336    -0.57448    0.037778    0.026735
0.020239   0.0046481    0.058241    0.064088      -0.758    0.029333     0.02641
0.016991  -0.0047713    0.048172    0.056292    -0.91131    0.023162    0.019914
0.0088706   -0.015815    0.039402    0.043625    -0.99673     0.02641    0.008221
-0.0076946   -0.027508    0.029983    0.029009    -0.99024    0.038428   -0.010293
-0.030431   -0.035953    0.020564    0.014717    -0.88208    0.053694   -0.035303
-0.055116   -0.039201    0.011144  -0.0015233    -0.68524    0.066037   -0.062587
-0.076229   -0.038551  0.00042559    -0.01549    -0.44001    0.072208   -0.086623
-0.087597   -0.035953   -0.011917   -0.028157    -0.19966    0.075131    -0.10449
-0.089221   -0.034654   -0.025234   -0.035628   -0.012892    0.078055    -0.11878
-0.082725   -0.035953   -0.036278    -0.03173     0.10664    0.086824    -0.12885
-0.077203    -0.04115   -0.044073    -0.01484     0.17225     0.10631    -0.13599
-0.075255    -0.04862   -0.047321   0.0065969     0.21025     0.13944    -0.13924
-0.077853   -0.053817   -0.045047    0.023162     0.24533     0.18524    -0.13729
-0.082725   -0.056091   -0.040825    0.033881     0.29015     0.23039    -0.12852
-0.085648   -0.058689   -0.034654    0.037454     0.34342     0.26222    -0.11131
-0.085648   -0.062912   -0.026209     0.03518     0.40514     0.27716   -0.085648
-0.08305   -0.064211   -0.015165    0.031282     0.46912     0.27846   -0.058689
-0.075904   -0.059339 -0.00054884    0.029658     0.53084     0.27294   -0.037902
-0.061937   -0.046347    0.011469    0.031607     0.58638     0.26287   -0.023935
-0.042449   -0.028157    0.018615    0.039078     0.62893     0.25475   -0.018738
-0.023285  -0.0093186    0.023162    0.053369     0.65199     0.25767   -0.019712
-0.0034721    0.008221    0.027709    0.067986     0.65394     0.27294   -0.022311
0.010495    0.021213    0.031607    0.080653      0.6403     0.29405   -0.027183
0.012119    0.029658     0.03453    0.086824     0.61724     0.31127   -0.033354
0.0026992    0.028684    0.033556    0.084551     0.59222     0.31289   -0.039201
-0.012242    0.019589    0.033231    0.076755     0.57371     0.28788    -0.04862
-0.02426   0.0078962    0.036154     0.06831     0.56721     0.23461   -0.061937
-0.030106  -0.0024977    0.042975    0.066686     0.56949     0.16348   -0.073955
-0.033354  -0.0060706    0.053044    0.072208     0.56624    0.093645   -0.079802
-0.040825  -0.0060706    0.062464    0.080978     0.54935    0.040377   -0.077528
-0.056416  -0.0063954    0.063763    0.093321     0.51362    0.010495   -0.068109
-0.080776  -0.0093186    0.053369     0.10371     0.46003  -0.0089938   -0.057065
-0.11098   -0.015815    0.033556     0.10696     0.38013   -0.035628   -0.047646
-0.13794   -0.023935    0.012768     0.10242      0.2606   -0.080451   -0.041799
-0.15093   -0.030106  -0.0018481    0.093321    0.092671    -0.14444   -0.037577
-0.14314   -0.029457  -0.0021729     0.08585    -0.10676    -0.22239   -0.029782
-0.11456   -0.020037    0.008221      0.0865    -0.29807    -0.29742   -0.018738
-0.078827  -0.0073698    0.024461     0.09462    -0.43774    -0.35199 -0.00087364
-0.04862   0.0026992    0.042651     0.10469    -0.50043     -0.3744     0.01829
-0.028157    0.008221    0.053044     0.11118    -0.48484    -0.36921    0.034206
-0.014516   0.0085458    0.048822     0.10761    -0.41338    -0.34452    0.044599
-0.0041217   0.0091954    0.034855    0.094945    -0.31496    -0.31724    0.046873
0.0043233    0.014068    0.017316    0.080003    -0.21395     -0.2971    0.041351
0.0075714    0.020888      0.0014    0.067986     -0.1321    -0.28703    0.029333
0.0039985    0.031282  -0.0099683    0.060515   -0.081426    -0.28963    0.014392
-0.0021729    0.040702   -0.014191     0.06084   -0.061937    -0.30912   0.0039985
-0.0041217    0.046873    -0.01484    0.064413   -0.063886    -0.34322 -0.00022403
-0.00022403    0.050121   -0.012567     0.06831   -0.067784    -0.38382      0.0014
0.0052977    0.051096  -0.0076946    0.071883   -0.057065     -0.4189   0.0049729
0.0046481    0.051096  -0.0080194    0.074157   -0.021661    -0.44034   0.0078962
-0.0031473     0.04395   -0.018413    0.075131    0.032906    -0.44618   0.0072465
-0.0096434    0.030957   -0.038551    0.078704     0.10079    -0.43936   0.0085458
-0.0024977    0.015042   -0.062587    0.084226       0.169    -0.41923    0.012768
0.021538   0.0020496   -0.080776    0.089423     0.22227     -0.3848    0.018615
0.050121  -0.0060706   -0.087272     0.09462      0.2502    -0.33543    0.020564
0.066037   -0.012892     -0.0837     0.10339     0.25313    -0.27176     0.01829
0.063763   -0.021012   -0.075255     0.11248     0.23883    -0.20193    0.013093
0.050771   -0.030106   -0.067134     0.11606     0.21837    -0.12885    0.009845
0.036804   -0.034654   -0.059664     0.11313     0.20018   -0.055766    0.010819
0.030308    -0.03303   -0.050569     0.10956     0.18849    0.013418    0.015042
0.028684    -0.02426   -0.044073     0.10989     0.18622    0.071883    0.021863
0.028034   -0.015815   -0.041475     0.12353     0.18914     0.11573    0.030633
0.024461   -0.013216   -0.045047     0.15276     0.19109     0.14724    0.038103
0.016016   -0.018413   -0.050244     0.18719      0.1729      0.1664    0.042001
0.0085458   -0.029457   -0.056091      0.2161     0.11216     0.17647    0.044275
0.0043233   -0.044398   -0.062262     0.23006  -0.0021729     0.18427    0.047847
0.0046481   -0.061288   -0.067459     0.21935    -0.15776     0.19693    0.049147
0.0091954   -0.076229   -0.072981     0.18037    -0.31951     0.21512    0.046873
0.015042   -0.086298   -0.077203     0.11021    -0.44878     0.23851    0.038103
0.015692   -0.092145   -0.074605    0.014717    -0.51082     0.25962    0.022188
0.011469    -0.09182   -0.068758   -0.097991    -0.49588     0.27229   0.0046481
0.0088706   -0.086298   -0.062262    -0.21882     -0.4176     0.27132  -0.0089938
0.017316   -0.072981   -0.054467    -0.33997    -0.30554     0.26092   -0.018413
0.033556   -0.050569   -0.045372    -0.45203    -0.18699     0.24793   -0.022311
0.045249   -0.019712   -0.031081    -0.54882   -0.076554     0.24013   -0.015165
0.046873    0.013418   -0.012242    -0.62385    0.015367     0.23883   0.0065969
0.034855    0.043625    0.010819     -0.6716    0.088124      0.2476    0.031282
0.01764    0.067336    0.033231    -0.69076     0.14496     0.26709    0.049472
0.0059473     0.08585    0.048497    -0.68459     0.18979     0.29438    0.055643
0.0059473    0.099817    0.053369    -0.65698     0.22065     0.32328    0.047198
0.016666     0.11054    0.047523    -0.61443     0.23169     0.35057    0.024461
0.031607     0.11476    0.031932    -0.56864     0.22227      0.3746  -0.0050961
0.036479     0.10761   0.0043233    -0.52089     0.19434     0.39182   -0.034654
0.022188    0.084551   -0.031081    -0.46827     0.15633     0.40156   -0.055766
-0.015165    0.046548   -0.064861    -0.40786      0.1219     0.40579   -0.061937
-0.068758  -0.0021729   -0.088896    -0.34192     0.10696     0.40384   -0.051544
-0.11878   -0.048296   -0.097341    -0.27274     0.11995     0.38825   -0.029782
-0.15126   -0.077203   -0.088896    -0.20583     0.15179      0.3431  -0.0024977
-0.16165     -0.0824   -0.067459    -0.14346     0.19499      0.2528    0.023812
-0.15288    -0.06681   -0.043748   -0.082076     0.24371     0.11508    0.042326
-0.13242   -0.039851   -0.026533   -0.023285     0.28918   -0.052843    0.055318
-0.10481  -0.0093186   -0.016464    0.031282     0.33108    -0.22629    0.064088
-0.073631    0.015692  -0.0099683    0.079679     0.36811    -0.38902    0.066037
-0.0405    0.026085   -0.008669     0.12093     0.39247    -0.53746     0.06084
-0.013541    0.020564    -0.01484     0.15406     0.39767    -0.67063    0.054344
0.0065969    0.003024   -0.027183      0.1742     0.38175    -0.78593    0.047198
0.024137   -0.012892     -0.0405     0.17907     0.34992    -0.86259    0.039078
0.044275   -0.010618   -0.050894     0.17322     0.31224     -0.8837    0.031607
0.070909    0.018615   -0.050894     0.16673     0.28236    -0.83693    0.029983
0.10826    0.074157   -0.036927     0.17842     0.26514    -0.72552    0.037129
0.14854     0.13814  -0.0093186     0.21707      0.2606    -0.55954    0.052395
0.17062     0.18557     0.02641     0.27359     0.25605    -0.36011    0.064088
0.15276     0.19174    0.054668     0.32816     0.22357    -0.15548    0.064413
0.090722     0.13782    0.062464     0.36031     0.10891    0.023812    0.046223
0.0049729    0.033231    0.046548     0.36259    -0.12722     0.14691   0.0075714
-0.070382   -0.085324    0.015042     0.33303     -0.4634     0.20408   -0.042449
-0.10871    -0.18017   -0.019063     0.28171    -0.79925     0.20311    -0.09182
-0.10416    -0.22661   -0.046347     0.22389     -1.0107     0.16608     -0.1308
-0.064861    -0.21979   -0.062587      0.1716     -1.0172     0.11606    -0.15093
-0.0044465    -0.16912   -0.068758     0.13002    -0.82296    0.078704    -0.14671
0.06831   -0.086623   -0.059989     0.10144      -0.504    0.080653    -0.11618
0.13814    0.012119   -0.031406    0.083901    -0.17822     0.13197   -0.068109
0.18492     0.10729    0.011794    0.068635    0.039727     0.22227   -0.018738
0.19044     0.17907    0.061489    0.046223    0.087149     0.32491    0.015367
0.14886     0.22129     0.10859    0.021863   -0.043423     0.40221    0.028034
0.069934     0.23656     0.14691   0.0065969    -0.30522     0.43015    0.026085
-0.018738     0.22844     0.17355   0.0010752    -0.62385     0.40189    0.023487
-0.079477     0.20083     0.18751   0.0010752    -0.91163     0.32718    0.037454
-0.090845     0.15536     0.18719   0.0017248     -1.0981     0.22454    0.075781
-0.051868    0.097543     0.17257   0.0010752     -1.1578     0.10924     0.12775
0.019264     0.04395     0.15341   0.0023744     -1.1072   -0.011917     0.16965
0.10177    0.017316     0.14009    0.012768    -0.96458    -0.13567     0.18394
0.17517    0.031282     0.14042     0.03518    -0.72292    -0.25715      0.1651
0.21642    0.082277     0.15471    0.063763    -0.36856     -0.3705     0.11963
0.21675     0.15179     0.17647    0.091047    0.080003    -0.46697    0.064413
0.18199     0.21935     0.19401     0.11281      0.5526    -0.53323    0.016666
0.12645     0.26807     0.19466     0.13165     0.94691    -0.55824   -0.015165
0.065712     0.28236     0.16933     0.15016      1.1837    -0.53323   -0.028482
0.018615      0.2567     0.12223     0.16315      1.2402     -0.4647   -0.027183
-0.0054209     0.19531    0.064737     0.16835      1.1496    -0.36303   -0.016789
-0.0044465     0.11476    0.012443     0.16738      0.9742    -0.24286  -0.0028225
0.013418    0.033231   -0.027833      0.1638     0.77672    -0.11553    0.010819
0.03583   -0.031406   -0.054142     0.15828     0.59385   0.0046481    0.016991
0.050446   -0.072656   -0.069408     0.14984     0.43567     0.10306     0.01829
0.05272   -0.090196   -0.076879     0.14042      0.2973     0.17647    0.023487
0.045899     -0.0837   -0.072656      0.1336     0.17322     0.23526    0.045249
0.03583   -0.057715   -0.057065      0.1297    0.064737     0.29308    0.084551
0.026085   -0.021012    -0.03173     0.12807   -0.022636     0.35284     0.13197
0.015367    0.013418  -0.0041217       0.131   -0.091495     0.40449     0.17257
0.0049729    0.031932    0.016016     0.13684    -0.15418     0.44086     0.19628
-0.0060706    0.030633    0.024461     0.14237    -0.21785     0.45775     0.20051
-0.016464    0.014717    0.022837     0.14756    -0.27728      0.4636     0.18427
-0.025884  -0.0060706    0.013743     0.14756    -0.32763     0.46945     0.15276
-0.032705   -0.026209  -0.0021729     0.13847    -0.36141     0.48049     0.11313
-0.033679   -0.040175   -0.019388     0.11638    -0.37862     0.49706    0.076106
-0.028482   -0.046347    -0.03173    0.077405    -0.38122     0.51719     0.05272
-0.017439   -0.046347   -0.039526    0.025436    -0.37213     0.53831     0.04395
-0.0063954   -0.045047   -0.045697   -0.028807    -0.35232     0.55032    0.044275
0.0017248   -0.044723   -0.057065   -0.077528    -0.32666     0.54383    0.044924
0.003024   -0.045047   -0.071357    -0.11488    -0.30165     0.51622    0.040377
-0.0028225   -0.047321   -0.085648    -0.14249    -0.27891     0.47399    0.028359
-0.011592    -0.04992   -0.097017    -0.16295     -0.2578     0.42982    0.013743
-0.020362   -0.051219    -0.10026    -0.17724    -0.23116     0.39084 -0.00022403
-0.024909   -0.049595   -0.094093    -0.18277    -0.19413     0.35317   -0.013216
-0.027508   -0.046347   -0.079477    -0.17952    -0.15191     0.30899   -0.025884
-0.029132   -0.044723   -0.064536    -0.16847    -0.11163      0.2502   -0.034978
-0.031081   -0.046996   -0.054792    -0.15126   -0.082076      0.1768   -0.042124
-0.029457   -0.050569   -0.050244     -0.1295   -0.063237    0.092996   -0.051219
-0.024909   -0.051544   -0.047321    -0.10644   -0.054467   0.0049729   -0.064211
-0.022961   -0.046671   -0.042124   -0.081751   -0.050569   -0.076879   -0.075255
-0.022311    -0.04115   -0.033679   -0.059989   -0.047321    -0.14931   -0.076879
-0.020037   -0.039526   -0.026858   -0.041799   -0.046022    -0.21037   -0.065835
-0.017114    -0.04115   -0.023285   -0.030106   -0.048945    -0.26429   -0.046347
-0.016789   -0.042774   -0.024909   -0.022961   -0.054792    -0.31691   -0.021337
-0.018088   -0.041475   -0.029457   -0.025234   -0.058689    -0.36791   0.0052977
-0.021012   -0.039201   -0.033354   -0.035303   -0.057065    -0.41825     0.02641
-0.025884   -0.036927   -0.030431   -0.044398   -0.049595    -0.46048    0.037129
-0.029782   -0.036278   -0.019712   -0.046671   -0.037577    -0.49296    0.032582
-0.029457   -0.034978  -0.0015233    -0.04115   -0.024585    -0.51602    0.012443
-0.021986   -0.035628    0.020239   -0.030756   -0.011267    -0.52836   -0.016789
-0.0096434   -0.038551    0.039727   -0.022311  -0.0028225    -0.52544   -0.043748
-0.0015233   -0.043423     0.05142   -0.017114  -0.0057458    -0.50725   -0.063561
-0.0021729   -0.045047     0.05207   -0.011592   -0.018088    -0.47964   -0.071682
-0.011592   -0.045047    0.042651 -0.00022403   -0.036927    -0.45236   -0.073306
-0.025234   -0.045047    0.029009     0.01894   -0.052518    -0.42962   -0.076554
-0.040175   -0.046671    0.014068    0.042651   -0.051219     -0.4137   -0.088896
-0.053492   -0.050569   0.0020496    0.070259    -0.02426    -0.40623    -0.11131
-0.066485   -0.054792  -0.0054209     0.10177    0.028034    -0.40493    -0.13957
-0.083375   -0.061288  -0.0037969     0.12872    0.093321    -0.40396    -0.16425
-0.10189   -0.066485   0.0072465     0.15146     0.15503    -0.39487    -0.17919
-0.11423   -0.066485    0.026085     0.17257       0.207    -0.37083    -0.17822
-0.11293   -0.061937      0.0433     0.19888      0.2515    -0.32795    -0.16685
-0.095068   -0.051544    0.048822     0.22649      0.2895    -0.27144    -0.15093
-0.069408   -0.035953    0.041027     0.24923     0.32198     -0.2068    -0.13502
-0.042449   -0.020362     0.02641     0.26547     0.34732    -0.13924      -0.123
-0.020037  -0.0067202    0.015042     0.27684     0.36681   -0.080127    -0.11261
-0.0044465   0.0020496   0.0095202     0.28301      0.3837   -0.035953    -0.10416
0.0033489   0.0043233   0.0088706     0.28301     0.39799  -0.0073698   -0.098641
0.0072465      0.0014    0.012119     0.26937     0.40156   0.0065969    -0.10026
0.012119  -0.0018481     0.01894     0.23818     0.37623   0.0085458    -0.10709
0.018615  -0.0018481    0.026735     0.19011     0.29048      0.0014    -0.11423
0.026085   0.0020496     0.03518       0.131     0.11703    -0.01549    -0.11553
0.031607   0.0075714    0.038753    0.069285     -0.1321   -0.038551    -0.10838
0.032257    0.011469     0.03453    0.012119    -0.39876    -0.06616   -0.096692
0.027709    0.013093    0.030957   -0.035628    -0.61086   -0.087597   -0.084999
0.023812    0.013743    0.030633   -0.077203    -0.72357   -0.097991   -0.074605
0.022512    0.012443    0.030957    -0.11943    -0.74208   -0.094743   -0.064211
0.024137    0.013093     0.02706    -0.16068    -0.71123   -0.079152   -0.054467
0.020239    0.013418    0.016666    -0.20096    -0.68492   -0.051219   -0.046996
0.0078962    0.011469      0.0014    -0.23863    -0.67842   -0.014516    -0.04115
-0.013216   0.0056225    -0.01549    -0.26592     -0.6677    0.020564   -0.035303
-0.036927  -0.0054209   -0.030431    -0.27404    -0.62126    0.049472   -0.030756
-0.055441   -0.017764   -0.038876    -0.26332    -0.52869    0.070259   -0.027833
-0.068758   -0.027833   -0.039526    -0.24188    -0.39941    0.083576   -0.025884
-0.073955    -0.03173   -0.037252     -0.2159    -0.25682    0.092346   -0.027183
-0.072981   -0.027183   -0.038876    -0.18829     -0.1243    0.095919   -0.030756
-0.064536   -0.016789   -0.043423    -0.15808    -0.01614    0.097218   -0.029782
-0.049595  -0.0028225   -0.047646    -0.12982    0.067661     0.10144   -0.021012
-0.035303    0.011144   -0.049595    -0.11358     0.13652     0.11508  -0.0080194
-0.027183    0.019589   -0.045047    -0.10903     0.19693     0.14042  0.00042559
-0.023935    0.019264   -0.033354    -0.11066     0.25085     0.18004   0.0039985
-0.021661    0.014068   -0.019388    -0.10579     0.29503     0.23461   0.0059473
-0.019063    0.011144  -0.0080194   -0.091495     0.32816     0.29503     0.01017
-0.021337    0.012443  -0.0018481   -0.075579     0.34959     0.35089    0.010495
-0.029782     0.01829  0.00010078   -0.067459     0.36551     0.39702    0.003024
-0.039851    0.025436 -0.00087364   -0.073631      0.3811     0.42397  -0.0073698
-0.046671    0.025436  -0.0031473   -0.094418     0.39929     0.42592  -0.0093186
-0.049595    0.010495   -0.010618    -0.12105      0.4217     0.40384   0.0036737
-0.047646   -0.018088   -0.022311    -0.14184     0.44509     0.36648    0.031282
-0.041799   -0.051868   -0.036927    -0.15191     0.46587     0.32426    0.065387
-0.03238   -0.080776    -0.04927    -0.15223     0.48439     0.27456    0.094945
-0.022311   -0.090521   -0.051868    -0.14866     0.49998     0.21188     0.11443
-0.007045   -0.072981   -0.036278    -0.14216      0.5081     0.13295     0.11833
0.010495   -0.032055  -0.0054209    -0.13664     0.50258    0.042001     0.10079
0.02641    0.019264    0.028034    -0.13664     0.48049   -0.053817    0.065712
0.035505    0.063763     0.05142    -0.14087     0.44574    -0.14769    0.029009
0.024461    0.087149    0.059216    -0.14509     0.40741    -0.22791   0.0056225
-0.016789    0.080653    0.050771    -0.14314      0.3746    -0.29028  -0.0018481
-0.087272    0.041027    0.027385    -0.13177     0.34959    -0.33348  -0.0011985
-0.1727   -0.014516  -0.0011985    -0.11391     0.32588    -0.35361  -0.0057458
-0.25098   -0.063561   -0.024585   -0.089871     0.27814    -0.34614   -0.018088
-0.30847   -0.088572   -0.036602   -0.061613      0.1729    -0.30782   -0.036602
-0.3377   -0.089546   -0.033354   -0.028482  -0.0057458    -0.24415   -0.056091
-0.34712   -0.068109   -0.020687   0.0062721    -0.23051    -0.16458   -0.071032
-0.3403   -0.028807  -0.0083442    0.039727    -0.43969   -0.084999   -0.077853
-0.30554    0.020564  -0.0080194    0.066686    -0.57253    -0.01549   -0.071357
-0.22434    0.071558   -0.019063    0.084226    -0.59462    0.045574   -0.041475
-0.087597     0.11768   -0.032705     0.10112    -0.50822    0.097868    0.019264
0.091372     0.15698   -0.039526     0.11931    -0.34355     0.14107     0.10566
0.28821     0.19856   -0.031081     0.13587    -0.13697     0.17322     0.19921
0.47172     0.24501   -0.007045     0.15016    0.081627     0.19239     0.27716
0.61041     0.28885    0.022837     0.16185     0.27911     0.19823     0.31971
0.68155     0.31581    0.044599     0.17485      0.4269     0.19693     0.32198
0.68285     0.31354    0.054344     0.19011     0.49965     0.19693      0.2973
0.63672     0.28301    0.057267      0.2083     0.47724     0.20148     0.26449
0.57079     0.23396    0.055968     0.22682     0.34147     0.20181     0.23916
0.5055     0.18069    0.047847     0.23851    0.092996     0.19271     0.22747
0.45126     0.13587    0.029983     0.23948    -0.23409     0.17615     0.22357
0.41456     0.10177    0.008221     0.22974    -0.58878     0.15828     0.22454
0.39507    0.080978  -0.0060706     0.21642    -0.91716     0.13879     0.23006
0.38272     0.06896  -0.0089938     0.20473     -1.1705     0.11313     0.23331
0.35966    0.063113  -0.0028225     0.19531     -1.3144    0.081627     0.22617
0.31354    0.061165   0.0091954     0.19141     -1.3371     0.05142     0.21317
0.24176    0.058891    0.029333     0.19174     -1.2485     0.03518     0.20733
0.15698    0.053369    0.053694     0.19434     -1.0718    0.038428     0.21577
0.076755    0.045249    0.079679     0.19628    -0.82394    0.052395     0.23624
0.014392    0.036804     0.10501     0.19206    -0.52024    0.063113     0.25702
-0.026209    0.032582     0.12125     0.18362    -0.18861    0.067986     0.26319
-0.050244    0.033231      0.1232     0.17257      0.1271    0.072533     0.24793
-0.064536    0.037778     0.10794     0.16023     0.36616    0.081952     0.21058
-0.071032    0.041676    0.080003     0.14886     0.48601     0.09397     0.15601
-0.075255    0.033881    0.046223     0.13912     0.46815     0.10371    0.092671
-0.0824    0.010819    0.013743     0.13067     0.30769     0.10306    0.029009
-0.091495   -0.025559   -0.011917     0.12255   0.0075714    0.078704   -0.025884
-0.096367   -0.059014   -0.026209     0.11801    -0.40104    0.027385   -0.068109
-0.094743   -0.071032   -0.028157     0.11606    -0.82816   -0.051219   -0.094093
-0.089546   -0.054142   -0.019712     0.11476     -1.1312    -0.14184    -0.11326
-0.084999   -0.017764  -0.0050961     0.10924     -1.1799    -0.23214    -0.13697
-0.088247    0.019914    0.008221    0.098517    -0.91001    -0.31464    -0.17237
-0.10936    0.041351    0.013743    0.087474    -0.35459    -0.38285      -0.212
-0.14964    0.042326    0.012119    0.077405     0.35966    -0.42735    -0.23831
-0.20031    0.030633    0.010495    0.067986      1.0444    -0.43644    -0.23571
-0.25162     0.01829     0.01894    0.062464      1.5442     -0.4163    -0.20453
-0.28703    0.014392    0.036479    0.061489      1.7817    -0.37862    -0.15905
-0.29125    0.016016    0.050771     0.06019       1.768     -0.3351     -0.1178
-0.26169    0.020239    0.053369    0.053694      1.5764    -0.29677   -0.092794
-0.2055    0.020888    0.038753    0.040377      1.2948    -0.27891   -0.086948
-0.13697    0.016341    0.013093    0.020564     0.99304    -0.28605   -0.094743
-0.068109     0.01017   -0.014191  -0.0041217     0.73222    -0.31106    -0.10936
-0.0099683   0.0062721   -0.034329   -0.031406        0.55    -0.33575     -0.1256
0.024461   0.0065969   -0.042449   -0.059339     0.45743    -0.34777    -0.14119
0.026735   0.0091954   -0.041475   -0.082725     0.44119    -0.33835    -0.15711
-0.0044465   0.0072465   -0.035628    -0.10384     0.46945    -0.30424    -0.16782
-0.058365  -0.0054209   -0.028157    -0.12592      0.5042    -0.23409    -0.17042
-0.11683   -0.029782   -0.026209    -0.14801     0.51102     -0.1191    -0.16295
-0.16165    -0.05804   -0.029782    -0.16847     0.47399    0.034855    -0.14736
-0.18471   -0.075904   -0.037252    -0.18342     0.40091     0.20635    -0.12755
-0.18991   -0.075255   -0.040825    -0.18699     0.31062     0.36583    -0.10481
-0.17952   -0.057065   -0.036278    -0.17724     0.22617     0.48926     -0.0837
-0.15938   -0.026858   -0.021661    -0.15418     0.16088      0.5565   -0.063237
-0.13599   0.0033489  -0.0021729     -0.1191     0.11541      0.5578   -0.043099
-0.10936    0.019589    0.014392   -0.081751    0.087149     0.49543   -0.024585
-0.080776    0.016016    0.019589    -0.04862    0.084551     0.38662  -0.0060706
-0.048945   -0.010943   0.0078962   -0.028157     0.11443     0.25702    0.011144
-0.015815   -0.053492   -0.021337   -0.027508     0.17874     0.12548    0.021538
0.010495    -0.10676   -0.064211   -0.045697     0.26222  -0.0083442    0.020239
0.017965    -0.16165    -0.11261   -0.073631     0.33465    -0.14769   0.0065969
0.0039985    -0.20193    -0.15321    -0.10156     0.37038    -0.28183   -0.016789
-0.016464    -0.21882    -0.18049     -0.1256     0.36389    -0.38642   -0.045697
-0.027183    -0.21037    -0.19478    -0.14054     0.32653    -0.44294   -0.072331
-0.019712    -0.18179    -0.19478    -0.14281     0.27359    -0.44618   -0.088572
-0.00022403    -0.14476    -0.18049     -0.1334     0.21415    -0.39389   -0.096367
0.016991    -0.10806    -0.15678    -0.11878     0.15666    -0.29775    -0.10156
0.020888   -0.084349    -0.13242    -0.10936    0.096244    -0.18147    -0.10741
0.003024   -0.081751    -0.11586    -0.10644    0.030633   -0.069733    -0.11943
-0.037252    -0.10189    -0.11391    -0.10709   -0.037577    0.015692    -0.14216
-0.087597    -0.13924    -0.12333    -0.11293    -0.10416    0.067986    -0.17237
-0.12787    -0.18244    -0.13762    -0.12657    -0.18082    0.092671    -0.19543
-0.13567    -0.21232    -0.14249    -0.14087    -0.28703     0.10436    -0.19803
-0.10449    -0.21297     -0.1295    -0.14444    -0.43774     0.10956    -0.16912
-0.047971    -0.16847   -0.093119    -0.12657    -0.60859     0.11021    -0.11001
0.0059473   -0.078178   -0.044073   -0.086298    -0.74696     0.10436   -0.033679
0.033556    0.042326   0.0056225   -0.036278    -0.80445    0.093645    0.037454
0.033231      0.1625    0.047198     0.01017    -0.76839    0.079029    0.086175
0.016666     0.24663    0.075781    0.044924    -0.65536    0.067336     0.10566
-0.0037969     0.27326      0.0852     0.06831     -0.5105    0.063763     0.10404
-0.014516      0.2463    0.079679    0.083251    -0.38739    0.067986    0.093645
-0.012892     0.18751    0.071234    0.092346    -0.32893    0.074482    0.080978
-0.007045     0.11898    0.066362    0.094945    -0.35426    0.077405    0.065712
-0.0031473    0.050771    0.061489    0.091047    -0.46113    0.070584    0.050121
-0.00087364  -0.0028225     0.06019    0.079354    -0.62548    0.051096    0.040052
0.00010078   -0.032705     0.06084    0.064737    -0.81744    0.023162    0.042975
0.00042559   -0.037577    0.065387    0.051096    -0.99186  -0.0037969    0.055643
0.00075039   -0.022636    0.074482      0.0433     -1.1094   -0.016464    0.071883
-0.00087364   0.0010752    0.081952    0.034855     -1.1403   -0.010618    0.084876
-0.00054884    0.023162    0.082602    0.020888     -1.0776     0.01017    0.091372
0.01017     0.03518    0.075131  0.00042559    -0.94087    0.038428    0.090397
0.035505    0.037454    0.063113   -0.016789    -0.75865    0.067986      0.0852
0.072208     0.03583    0.048822   -0.020687    -0.56344    0.089098    0.081627
0.11021    0.030633     0.03583  -0.0089938     -0.3809    0.096569    0.082602
0.13717    0.022837    0.028684    0.016666    -0.22694    0.095919    0.090397
0.14237    0.013093    0.026735    0.053369    -0.10351    0.097218    0.099167
0.12775   0.0036737    0.029009    0.096569  -0.0050961     0.11118     0.10534
0.10274  -0.0044465    0.033556     0.13912    0.071883     0.13457     0.10404
0.079354  -0.0099683    0.038428      0.1742     0.13132     0.15568    0.096244
0.061489   -0.013866    0.041351     0.19596     0.17615     0.16445    0.082602
0.050121   -0.016464    0.044275     0.20343     0.21058     0.15926    0.067011
0.044599   -0.019712    0.044275     0.19986     0.23494     0.14691    0.053369
0.041027   -0.019388    0.044924     0.18979     0.24273     0.13749    0.047198
0.034206   -0.015165    0.047847     0.17517     0.22909     0.13879    0.044599
0.023812  -0.0060706    0.054668     0.14821     0.19434     0.15049    0.043625
0.013418   0.0085458    0.066037     0.10404     0.14919     0.17095    0.042975
0.0078962    0.023487    0.078704    0.046548     0.10501     0.19109    0.042975
0.0095202    0.036479    0.090722   -0.019063    0.074806     0.19953    0.042001
0.017316    0.042651    0.098517   -0.090521    0.064413     0.19758    0.039727
0.026735    0.041676     0.10371    -0.16977    0.071234     0.18881    0.034206
0.032257    0.037129     0.10339     -0.2526    0.092346     0.17777    0.027709
0.026085    0.031932     0.09462    -0.32406      0.1219     0.15893    0.021538
0.0088706    0.029333    0.081952     -0.3705     0.15309      0.1362     0.01764
-0.010943    0.029333     0.06831    -0.38057     0.18524     0.11313     0.01894
-0.023285    0.034206    0.054344    -0.35556     0.21935    0.095594    0.023487
-0.026533    0.040052    0.041027    -0.30067      0.2502    0.084226     0.02706
-0.021012     0.04395     0.02641    -0.22954     0.26287    0.079029     0.02706
-0.011592    0.045249    0.015042    -0.16068     0.23981    0.078055     0.02641
-0.0034721    0.046223   0.0078962    -0.10611     0.17257    0.081303    0.027385
0.0014    0.046548   0.0020496   -0.069733     0.06019    0.092346    0.029658
0.0033489    0.048172  -0.0031473   -0.044073   -0.082725     0.10534    0.032906
0.0062721    0.047523  -0.0067202   -0.019388    -0.22921     0.11508    0.038103
0.0062721    0.040052  -0.0089938    0.010495    -0.35751     0.11313    0.040702
0.0014    0.026085   -0.010618    0.046223    -0.44781    0.094945    0.037778
-0.0050961    0.013418   -0.017114    0.085525    -0.49426    0.059216    0.029658
-0.0089938   0.0046481   -0.026858      0.1284    -0.50173    0.012119    0.020239
-0.0080194 -0.00022403   -0.034329     0.16738    -0.47055   -0.039201    0.017965
-0.0047713 -0.00087364   -0.034978     0.20051    -0.40558   -0.092469    0.025111
-0.0031473  0.00010078   -0.031081     0.22552    -0.31334    -0.14834    0.036479
0.0017248   0.0039985   -0.026858     0.24241    -0.21037     -0.2029    0.046873
0.010819    0.009845   -0.022636     0.25345    -0.10676     -0.2539    0.051745
0.023162    0.014392   -0.021337     0.26027  -0.0076946     -0.2971    0.047523
0.039402    0.016666   -0.018413     0.26319    0.092346    -0.32633    0.041027
0.05272    0.015042    -0.01484     0.26222     0.19369    -0.33802    0.035505
0.062139    0.012768   -0.013216     0.25832     0.29243     -0.3312    0.032906
0.067661    0.011469   -0.012242      0.2515      0.3785    -0.30619    0.030633
0.071883    0.012443   -0.010943     0.24013     0.43794    -0.26624     0.02706
0.078055     0.01017   -0.011267     0.22357      0.4623    -0.21622    0.024137
0.083901   0.0062721   -0.012567     0.20148     0.45223    -0.17042    0.027385
0.084226   0.0033489   -0.011917     0.17615     0.41845    -0.13145    0.033881
0.077405 -0.00087364   -0.007045     0.15049     0.37201    -0.10156    0.038103
0.064088  -0.0073698  -0.0015233     0.13392     0.32458   -0.080776    0.040052
0.047847    -0.01549   0.0046481     0.13425     0.28008   -0.068758    0.040702
0.033231    -0.02426    0.012443     0.14984     0.24111   -0.058365    0.037778
0.024137   -0.029457    0.019589     0.17192     0.21285   -0.045697    0.033231
0.022837    -0.03173    0.024137     0.18946     0.19661   -0.029782    0.031932
0.025436   -0.030756     0.02706     0.19141     0.18102   -0.013541    0.034206
0.026735   -0.032705    0.029983     0.16348     0.15861  0.00010078      0.0433
0.02706   -0.036278    0.034206    0.097543     0.12937   0.0062721    0.056617
0.02706   -0.041799      0.0433   0.0020496     0.10242  -0.0011985    0.073507
0.024461    -0.04115    0.057592    -0.10254    0.082927   -0.022311    0.086175
0.019914   -0.027183    0.076106    -0.19966    0.072858   -0.053817    0.086824
0.011469  -0.0011985    0.095919    -0.28053    0.066686   -0.092469    0.074157
0.00075039    0.032257     0.10956     -0.3403    0.059865     -0.1295    0.055318
-0.0028225    0.064413     0.11118    -0.37148    0.050121    -0.15516    0.037129
0.0052977    0.088448     0.10144     -0.3731    0.041676    -0.16295    0.024137
0.025761     0.10177    0.082602    -0.34355    0.039402    -0.15905    0.016016
0.050771     0.10371    0.060515     -0.2919    0.046548    -0.14379   0.0085458
0.073507     0.10144    0.042326    -0.22629    0.060515    -0.11943  -0.0015233
0.086824    0.095594    0.030957    -0.15548    0.073507   -0.092469   -0.014516
0.089423    0.088448    0.029658   -0.086948    0.081627   -0.068109   -0.027833
0.083576    0.080003    0.033556   -0.025884      0.0852    -0.04862   -0.040175
0.071883    0.071883    0.037129    0.023162     0.08585   -0.038551   -0.054142
0.054993    0.062464    0.035505    0.053694    0.092671   -0.037902   -0.069408
0.034206    0.050771    0.027385    0.067011      0.1323   -0.043423   -0.086298
0.011144    0.039078    0.016016    0.070259     0.22617   -0.043748    -0.10189
-0.013216    0.032906   0.0069217     0.07708     0.38045   -0.033679    -0.11293
-0.040175    0.031607   0.0088706    0.095919     0.57176   -0.013866    -0.12008
-0.075904    0.030957    0.021538      0.1245     0.74683    0.015692     -0.1217
-0.1204    0.028359    0.041027     0.15698     0.85142    0.054668     -0.1191
-0.1662    0.021538    0.058566     0.18557     0.85045    0.098517    -0.12138
-0.20453    0.015042     0.06896     0.20213     0.73936     0.13684    -0.13567
-0.23084   0.0085458    0.068635     0.20635     0.53831     0.15309     -0.1597
-0.23993   0.0033489    0.060515     0.20116     0.27586     0.14139    -0.18764
-0.23896  -0.0093186    0.040052     0.18329   -0.021337     0.10794     -0.2146
-0.23993   -0.047321 -0.00022403     0.14594    -0.32698    0.054993    -0.23798
-0.26364    -0.12203   -0.069083    0.086824    -0.61573   -0.015815    -0.25682
-0.31529    -0.23668    -0.15938    0.015042    -0.86486    -0.09929    -0.27469
-0.36953     -0.3718    -0.24968   -0.053168     -1.0474    -0.18699    -0.29028
-0.38999    -0.49328    -0.31626   -0.099615     -1.1474    -0.26267    -0.29612
-0.35719    -0.56182    -0.34484    -0.11813     -1.1494    -0.31431    -0.28378
-0.28638    -0.55727    -0.33607    -0.11033     -1.0468    -0.33055    -0.24805
-0.2133    -0.48224    -0.29742   -0.089871    -0.84862    -0.30359    -0.18569
-0.16328    -0.36368    -0.24415   -0.067784    -0.58228    -0.23961    -0.10254
-0.13469    -0.23246    -0.19446   -0.051868    -0.29937    -0.15126   -0.011592
-0.10221    -0.11131    -0.16263   -0.044398   -0.056416   -0.051219    0.070259
-0.028157  -0.0096434    -0.14769     -0.0405     0.11963    0.051096     0.13717
0.10924    0.073507    -0.14022   -0.032705     0.22974     0.13912     0.18589
0.29925     0.15211     -0.1269   -0.015815       0.296     0.19109     0.21155
0.49478     0.23364    -0.10221   0.0078962      0.3366     0.18946     0.20505
0.6416     0.30704   -0.072656    0.028359     0.36681      0.1297     0.17127
0.70851     0.34959   -0.050569    0.037778     0.39084    0.026735     0.12872
0.70526     0.34992   -0.045372    0.032906     0.40351   -0.091495     0.10469
0.66303     0.32653   -0.052843    0.022512     0.39052    -0.19608     0.11833
0.60847     0.31809   -0.057715    0.016016     0.34927    -0.26527     0.17095
0.5552     0.35641   -0.043748    0.022188     0.28983    -0.28638     0.24955
0.50777     0.44931  -0.0073698    0.045899     0.22194    -0.26462     0.33238
0.4623     0.56884    0.048172    0.084226     0.15861    -0.21232     0.39896
0.40741     0.66596     0.10729     0.12613     0.10534    -0.14087     0.43469
0.33368     0.69811     0.15049     0.15861    0.076755   -0.064536     0.43827
0.23786     0.65069     0.16803      0.1716    0.083576   0.0046481     0.41618
0.13197     0.54026      0.1651     0.16575     0.11573    0.065062     0.37623
0.040377     0.40156     0.15049     0.15244     0.15179     0.11768     0.33108
-0.01614     0.27326      0.1336     0.14237     0.17322      0.1651     0.29503
-0.030756     0.18167      0.1206     0.14269     0.16803     0.21252     0.27489
-0.01614     0.12905     0.11313     0.15114      0.1323     0.26287     0.26709
0.0059473     0.10371     0.10956     0.15893     0.06084     0.31224      0.2567
0.016991    0.087799     0.10371     0.15893   -0.062262     0.34537     0.23201
0.0052977    0.066686    0.095269     0.15373    -0.26137     0.35187     0.19239
-0.022636    0.040052    0.087474     0.14821    -0.57156     0.33758     0.14464
-0.054792    0.012119    0.081952     0.14334    -0.99219     0.31127     0.10047
-0.080776   -0.016464    0.077405     0.13847     -1.4641     0.28333    0.064413
-0.091495   -0.039526    0.068635      0.1336     -1.8623      0.2567    0.040052
-0.090196    -0.05739    0.051745     0.12548     -2.0602     0.23104    0.020239
-0.087597   -0.072656    0.029009     0.11378     -1.9988     0.20246  -0.0031473
-0.09182   -0.087922   0.0049729    0.099167     -1.7025     0.16608   -0.035953
-0.10351    -0.10124   -0.015165    0.083576     -1.2442     0.11736   -0.079477
-0.11715    -0.10806   -0.029782    0.064413    -0.70928    0.062464    -0.12527
-0.12495    -0.10968   -0.037252    0.040702    -0.16523    0.011144    -0.16977
-0.12885    -0.10709   -0.038227    0.015042     0.33952   -0.025559    -0.20615
-0.13112    -0.10644   -0.038876   -0.014516     0.77054   -0.040825    -0.22597
-0.13632    -0.10806   -0.040825   -0.050569      1.1129   -0.034978    -0.22142
-0.14509    -0.11553   -0.044073   -0.094743      1.3555   -0.015815    -0.19836
-0.15646     -0.1282   -0.043099    -0.13599      1.4988   0.0078962     -0.1714
-0.1688    -0.14379   -0.036602     -0.1675      1.5507    0.025111    -0.15353
-0.17594     -0.1597   -0.022961    -0.19024      1.5264    0.029333    -0.14996
-0.17919     -0.1727  -0.0099683    -0.21232       1.439    0.016666    -0.15938
-0.18082    -0.18049  -0.0054209    -0.24286      1.3075   -0.012242    -0.17692
-0.18244    -0.18309    -0.01484    -0.27793      1.1489   -0.046671    -0.19673
-0.18244    -0.18082   -0.029457    -0.31009     0.98069   -0.079152    -0.21297
-0.18049     -0.1753   -0.039526    -0.33023     0.81147    -0.10189    -0.21785
-0.17594    -0.16977   -0.039851     -0.3325     0.64744    -0.11001    -0.21427
-0.16782     -0.1662   -0.030431    -0.31431     0.49088    -0.10351    -0.21005
-0.15841     -0.1649   -0.016789    -0.27728     0.35414   -0.085973    -0.20745
-0.14574    -0.16295  -0.0041217    -0.22694     0.24436   -0.067134    -0.20843
-0.13307      -0.161   0.0039985    -0.17205      0.1664   -0.051544     -0.2081
-0.12365    -0.15808   0.0072465    -0.11423     0.11573   -0.042124     -0.2068
-0.12105    -0.15321   0.0059473   -0.063561    0.076431   -0.042774    -0.20485
-0.12333    -0.14574  0.00042559   -0.026209    0.031282   -0.050894    -0.20096
-0.12235    -0.13892  -0.0041217  -0.0018481    -0.03303   -0.064861    -0.19348
-0.11293    -0.13437  -0.0063954    0.014717    -0.13112   -0.079802    -0.18212
-0.096692    -0.13015  -0.0063954    0.022188    -0.26722   -0.092145    -0.16945
-0.075904    -0.12398  -0.0083442    0.019589    -0.42442    -0.10189    -0.15808
-0.055766    -0.11423   -0.010293   0.0088706    -0.57806    -0.10481    -0.14899
-0.041799    -0.10286  -0.0099683  -0.0054209     -0.7135   -0.099615    -0.14152
-0.034004   -0.093119  -0.0044465   -0.020037    -0.83465   -0.084999    -0.13664
-0.035953   -0.086623   0.0065969   -0.030106    -0.93534   -0.069733    -0.13307
-0.043099   -0.082076    0.016016   -0.033354     -1.0023   -0.059989    -0.13177
-0.048945   -0.078827    0.022188   -0.031081     -1.0188   -0.050569     -0.1321
-0.04862   -0.077203    0.025761   -0.025234    -0.97887    -0.03303     -0.1308
-0.045697   -0.073955    0.025761   -0.016464    -0.88013   0.0033489    -0.12073
-0.041475   -0.068434    0.025436  -0.0034721    -0.73169    0.059216   -0.094743
-0.037252   -0.059664    0.026085    0.013093     -0.5524      0.1245   -0.052518
-0.031406   -0.046022    0.025436    0.028034    -0.36791     0.18427 -0.00054884
-0.028157   -0.032705    0.022188    0.033881    -0.20258     0.22941    0.047198
-0.027833   -0.024909    0.017965    0.027709   -0.066485      0.2567    0.080978
-0.03238   -0.023285    0.016016    0.011469    0.034206     0.26612    0.094295
-0.042124   -0.026858     0.01894  -0.0050961     0.10664     0.26547    0.093321
-0.056091    -0.03303    0.022837   -0.016464     0.16803     0.26157    0.089748
-0.071682   -0.040825    0.019264   -0.020362     0.24208     0.26352    0.090722
-0.079477   -0.046022   0.0075714   -0.018413      0.3366     0.26872    0.097868
-0.077203   -0.046022  -0.0050961   -0.013216     0.44476     0.26872     0.10956
-0.068434   -0.041799   -0.011592  -0.0041217     0.54805     0.25215     0.11573
-0.058365    -0.03173   -0.008669    0.009845     0.62893     0.21577     0.11281
-0.04862   -0.019388   0.0010752    0.025111     0.67732     0.16445    0.099492
-0.039201  -0.0031473     0.01764    0.040052     0.69227     0.11021    0.081303
-0.027508    0.014392    0.034206    0.051745      0.6809    0.056942    0.062139
-0.014191    0.030308    0.042001    0.059541     0.65166    0.012443     0.04395
-0.0015233    0.041027     0.03583    0.059865     0.60489   -0.025234    0.029333
0.0075714    0.046873     0.01829    0.051745     0.52207   -0.061288    0.020888
0.01764    0.052395  -0.0054209    0.036804     0.36486    -0.10221    0.019914
0.033231    0.058566   -0.028482    0.019264    0.095269    -0.14801    0.024461
0.053369    0.059541    -0.04927      0.0014    -0.26202    -0.19543    0.033556
0.072858    0.048172   -0.066485   -0.011267    -0.62905    -0.23896    0.047198
0.086175    0.029658   -0.080451   -0.012567    -0.92885    -0.27566     0.06084
0.087799    0.014392   -0.085973 -0.00087364     -1.1133    -0.30229    0.074482
0.080978    0.009845   -0.082725    0.018615     -1.1725    -0.31724    0.088124
0.067661    0.021213   -0.071032    0.032906     -1.1289    -0.32081    0.098193
0.044275    0.045574   -0.054142    0.034855     -1.0227    -0.31886     0.10177
0.008221    0.071234   -0.038551    0.019589    -0.90416    -0.31399    0.097218
-0.031081    0.086824   -0.029782  -0.0076946    -0.82426    -0.30457    0.084551
-0.062912    0.089423   -0.027508   -0.036602     -0.8051     -0.2867    0.064737
-0.078827    0.078704    -0.03238   -0.062262    -0.82978    -0.25845    0.038753
-0.070707    0.063113   -0.034329   -0.079802    -0.86519     -0.2172    0.011144
-0.045047    0.047847   -0.029782   -0.087922    -0.88403    -0.16263   -0.015165
-0.012567    0.035505   -0.021337   -0.089546    -0.86226   -0.089221   -0.032705
0.015692    0.029009   -0.011592   -0.087922    -0.78528  -0.0076946   -0.037902
0.026085    0.029658  0.00010078   -0.089221    -0.64951    0.064737   -0.031406
0.013093    0.031932    0.011469    -0.09929    -0.46665     0.11768   -0.018088
-0.020687    0.025761    0.022837    -0.11878    -0.25617     0.14399  -0.0067202
-0.065186    0.011144    0.031932    -0.14346     -0.0405     0.14334   0.0033489
-0.10124  -0.0044465    0.036804    -0.16685     0.15601     0.11963    0.012768
-0.11553   -0.014516    0.041027    -0.18049     0.31906    0.080003    0.019264
-0.10449   -0.018088    0.045574    -0.18082     0.44801    0.039727    0.019589
-0.068758   -0.013541     0.05207     -0.1636      0.5422   0.0091954    0.011794
-0.01484 -0.00022403    0.057592    -0.13177     0.60229   -0.010943  -0.0024977
0.044275    0.025761     0.06084   -0.087922     0.63315   -0.023285    -0.01484
0.097868    0.064413    0.064413     -0.0405     0.64517    -0.03238   -0.017764
0.13977     0.11118    0.067661   0.0049729     0.64517   -0.032055  -0.0089938
0.16738     0.15503    0.067336    0.044924      0.6403   -0.022636   0.0095202
0.18329     0.18264    0.064413    0.075781     0.63413  -0.0011985    0.036479
0.18492     0.18134    0.063113    0.097868     0.63348    0.033231    0.072533
0.17615     0.14626    0.062139     0.11118     0.64289    0.082602     0.11866
0.17192    0.087474    0.060515     0.11833     0.65621     0.14139     0.17062
0.18557    0.027385    0.054019     0.12158     0.66693     0.20473     0.22129
0.22194   -0.017439    0.043625     0.12288     0.67245     0.26319     0.26482
0.27489   -0.035303    0.033556     0.12385      0.6731     0.30217     0.29568
0.32166   -0.021012    0.029658     0.12353     0.66563     0.30802     0.31029
0.34017    0.025436    0.036479      0.1245     0.64777     0.27294     0.30445
0.32036    0.095269    0.051745     0.12613     0.62308     0.19758     0.28073
0.26677     0.16738    0.067336     0.13132     0.59612    0.091696     0.24663
0.19044     0.21837    0.074806     0.14107     0.56884   -0.031406     0.20895
0.10696     0.23364    0.076431     0.15503      0.5422    -0.15451     0.17257
0.033881     0.21188    0.073832     0.16705     0.51427    -0.26559     0.13132
-0.01484      0.1664    0.067661       0.169     0.47854    -0.35946    0.085525
-0.038227     0.11118    0.056942     0.15861     0.43015    -0.43449    0.040377
-0.039201    0.057267    0.041027     0.14107      0.3733    -0.48808   0.0059473
-0.021337    0.018615    0.018615     0.12385     0.31581    -0.51374   -0.010943
0.010495   0.0010752  -0.0050961     0.11248      0.2606    -0.50303  -0.0083442
0.05207   0.0075714   -0.025234     0.11313      0.2083    -0.44683   0.0078962
0.098517    0.028684   -0.035628      0.1258     0.15633    -0.35134    0.025111
0.13555    0.052395   -0.039201     0.14529     0.10469    -0.23181    0.029333
0.15244    0.066362   -0.039526     0.16121    0.053044    -0.11553    0.017316
0.14821    0.064737   -0.043099     0.16445  -0.0011985   -0.023935  -0.0034721
0.12937    0.050446   -0.047971     0.15601   -0.063561    0.034855   -0.022636
0.10144    0.031932   -0.052518     0.14561    -0.13502    0.061489   -0.037902
0.067661     0.01894   -0.051868     0.14464    -0.20323    0.062139   -0.044398
0.038103    0.016341   -0.046347      0.1625     -0.2461    0.049147   -0.044073
0.016991     0.02706   -0.030756     0.19661    -0.24221     0.03583   -0.035628
0.0085458     0.05142   -0.010618     0.23786    -0.18634    0.034206   -0.021986
0.012768    0.082602   0.0062721     0.27326   -0.097341      0.0433   -0.013216
0.030633     0.11021     0.01017      0.2934  -0.0054209    0.057917   -0.016789
0.058891     0.12418 -0.00022403     0.29308    0.069285    0.074806   -0.034654
0.092346     0.12158   -0.020687     0.27326     0.12093    0.093645   -0.060963
0.12548     0.10177   -0.046347     0.24403     0.16445     0.10761   -0.086623
0.14854     0.06896   -0.067784      0.2109     0.21447     0.11151    -0.10384
0.14951    0.029009     -0.0824     0.17452      0.2934     0.10274    -0.10871
0.1258  -0.0093186   -0.090196     0.13912     0.40676    0.080978    -0.10709
0.084226   -0.038227   -0.093444     0.10826     0.53668    0.047523    -0.10644
0.039402   -0.053492   -0.088896     0.07773     0.64907   0.0075714    -0.10871
-0.00087364   -0.057065   -0.076554    0.039402     0.70883   -0.030106    -0.11488
-0.043748   -0.051868   -0.059014  -0.0034721     0.69324   -0.057065    -0.12008
-0.10091   -0.037577     -0.0405   -0.045047      0.5984    -0.06616    -0.11878
-0.17465   -0.017439   -0.022961   -0.082076     0.43697   -0.055441    -0.10481
-0.2526   0.0049729  -0.0057458    -0.11358     0.23364    -0.03173   -0.078178
-0.31594    0.022512    0.011144    -0.13924    0.024137   0.0010752   -0.045372
-0.35102    0.028359    0.025111    -0.15841    -0.16685     0.04395   -0.017114
-0.35751    0.012443    0.031282    -0.17627     -0.3403    0.092996 -0.00087364
-0.33607   -0.023935    0.027709    -0.19901    -0.50303     0.13717   0.0023744
-0.29385   -0.070058    0.018615    -0.22791    -0.64886     0.17062  -0.0044465
-0.2435    -0.10709    0.012768    -0.25487      -0.758     0.19174   -0.013866
-0.19251    -0.11975    0.011144    -0.27696    -0.80282     0.20278   -0.017439
-0.13827    -0.10546    0.013418    -0.29028    -0.76742     0.20473  -0.0093186
-0.07493   -0.071682    0.014392    -0.29158    -0.65991     0.19661    0.012119
0.00075039   -0.029132    0.009845    -0.27956    -0.53616      0.1729    0.038753
0.082602    0.012768      0.0014    -0.25552     -0.4699     0.13165    0.061165
0.16478    0.048497  -0.0031473    -0.21492    -0.49718    0.079029    0.073182
0.23754    0.078704  0.00042559    -0.15646    -0.58163    0.026735     0.07773
0.29113    0.096893    0.011144   -0.086623    -0.64432   -0.021661    0.073182
0.31386     0.10371    0.025436   -0.016464    -0.61996   -0.065186    0.057267
0.3012     0.10079    0.042975    0.043625    -0.50303   -0.099615    0.033556
0.25443    0.091696    0.063438    0.086824    -0.35102    -0.12138    0.012443
0.18492    0.075456    0.082277     0.11118    -0.23798    -0.12625  0.00010078
0.11021    0.051096    0.092346     0.12255    -0.22467    -0.11261  -0.0031473
0.0433    0.018615    0.088773     0.12937    -0.32373   -0.082076  -0.0011985
-0.01549   -0.024585    0.071558     0.13457    -0.48938     -0.0405  -0.0041217
-0.072981   -0.070058    0.046548     0.13814    -0.65439   0.0036737   -0.017764
-0.13177    -0.10903    0.021538     0.14107     -0.7541    0.041676   -0.035953
-0.18764    -0.13015   0.0020496     0.14659    -0.75703    0.070584   -0.050569
-0.23149    -0.13307  -0.0063954     0.15666    -0.66446    0.093645   -0.054142
-0.25942    -0.12495 -0.00087364     0.16868    -0.50368     0.11606   -0.043423
-0.26332    -0.11618    0.011469     0.18199    -0.30944     0.14529   -0.024909
-0.23668    -0.11748    0.022512     0.18719    -0.11683     0.18264  -0.0073698
-0.18179    -0.13047    0.022512     0.17745    0.047847     0.22292   0.0039985
-0.10351    -0.14379   0.0095202     0.15471      0.1703     0.25832   0.0088706
-0.011267    -0.14184   -0.010293     0.12515      0.2476     0.28268    0.010495
0.087474    -0.10871   -0.028807    0.096569     0.28723     0.29503    0.011469
0.17907   -0.043748   -0.040825    0.074806     0.30152     0.29405    0.011794
0.24176    0.033556   -0.044398    0.055643     0.30282     0.28008   0.0088706
0.25572     0.10177   -0.043748    0.038103     0.29503     0.25962  0.00042559
0.21317     0.14432   -0.040175    0.020564     0.28431     0.23591   -0.013866
0.12872     0.15601    -0.03173   0.0020496     0.27424       0.207   -0.029132
0.033881     0.14399   -0.020687   -0.020687     0.26125     0.16218   -0.046996
-0.041475     0.11931   -0.012242   -0.051868     0.23591    0.098842   -0.062262
-0.081751    0.092671  -0.0093186   -0.087597     0.20083    0.022188   -0.065186
-0.088572    0.070909   -0.014191    -0.11845     0.16153   -0.056091   -0.050244
-0.07428     0.05207   -0.021337    -0.13534     0.13165    -0.12917   -0.022636
-0.056416    0.032257   -0.025884    -0.13859     0.11801    -0.18861   0.0078962
-0.052843    0.010495   -0.029132    -0.13469     0.11995    -0.23084    0.032582
-0.077203   -0.008669   -0.033354    -0.13047     0.12613     -0.2565    0.046223
-0.12885   -0.023935   -0.039526    -0.13145      0.1258    -0.26299    0.045899
-0.18829   -0.039851   -0.052193    -0.14314     0.11248    -0.25487    0.032257
-0.22921   -0.061937   -0.075579    -0.16425    0.095919    -0.24058   0.0078962
-0.23214   -0.090845    -0.10806    -0.19024    0.097543    -0.22564   -0.018413
-0.18796    -0.11488    -0.13794    -0.21135     0.13035    -0.20843   -0.033354
-0.10514     -0.1217    -0.15646    -0.22109     0.18329    -0.18601    -0.03238
-0.0080194   -0.098965    -0.15191    -0.21395     0.23656    -0.16393   -0.018088
0.074806   -0.047321    -0.12527    -0.19251     0.26514    -0.14509   0.0033489
0.12613    0.015042   -0.082076    -0.16133     0.25735    -0.13599    0.024137
0.14821     0.06896   -0.035628    -0.12268     0.21642    -0.13859    0.036804
0.15244    0.098193   0.0017248    -0.08305     0.15503    -0.15093    0.039078
0.14821    0.096569    0.019589   -0.047971    0.088124    -0.17172    0.030308
0.13749    0.071558    0.015042   -0.018738     0.03518    -0.19641    0.011144
0.11736    0.036154  -0.0024977   0.0049729    0.015367    -0.22239   -0.012892
0.0865   0.0023744   -0.016464     0.02706    0.027385    -0.24415   -0.034329
0.050121   -0.024909   -0.019712    0.047198    0.049472    -0.25422    -0.04927
0.010819   -0.046996  -0.0089938    0.067011    0.046548    -0.24643   -0.054467
-0.024585   -0.064536    0.011469    0.086175  -0.0093186    -0.21947   -0.054142
-0.05804   -0.078178    0.029658     0.10469    -0.12008    -0.17919    -0.04992
-0.096367   -0.088896    0.042975     0.12158    -0.26364     -0.1334   -0.044398
-0.13599   -0.095717    0.048172     0.13327    -0.40493   -0.092145   -0.036278
-0.16782   -0.094093    0.047847     0.13555     -0.5053   -0.062587   -0.031081
-0.18049    -0.08305     0.04395     0.12807    -0.53551   -0.040825   -0.025884
-0.17432    -0.06616    0.041351     0.11443    -0.48484   -0.020362   -0.020037
-0.14866   -0.050569    0.040377    0.099167    -0.35784   0.0049729   -0.012567
-0.10189   -0.040825    0.042975    0.081627    -0.17497    0.038103   0.0023744
-0.034004   -0.036927    0.049147    0.065712    0.028359    0.079679     0.02706
0.046548   -0.034329    0.058566    0.057592     0.20798     0.13067    0.056292
0.1284   -0.024909    0.069934    0.061165     0.32393     0.18719    0.080003
0.19953  -0.0041217    0.078704    0.072208     0.35869     0.24501    0.089748
0.23916    0.026085      0.0865    0.082602     0.32458       0.296    0.086824
0.22941    0.059216    0.098193    0.087149      0.2554     0.33465    0.076431
0.1716    0.086824     0.11411    0.083901     0.19661     0.35544     0.06084
0.0852     0.10404     0.13295    0.074806     0.18654     0.35934    0.045574
-0.00054884     0.10826     0.15081    0.062464     0.23948     0.35089    0.035505
-0.062587     0.10242     0.16445    0.050446       0.334     0.33595    0.032257
-0.091495      0.0865     0.17127    0.042001     0.42982     0.31679    0.028359
-0.092469    0.061165     0.17127    0.037129     0.49153     0.29178    0.022837
-0.07428    0.031607     0.16608    0.032582     0.50518     0.26222    0.016666
-0.051219   0.0017248     0.15698    0.027385     0.47822     0.22974    0.010819
-0.029457   -0.020687     0.14367    0.021863     0.42982     0.19823   0.0075714
-0.010943   -0.034978     0.12353    0.019589     0.38175     0.16673  0.00075039
-0.0076946   -0.047321    0.093321    0.018615     0.34017     0.13165    -0.01614
-0.024585   -0.060963    0.049796    0.015042     0.29503    0.090072   -0.045697
-0.051868   -0.073306  0.00042559   0.0036737     0.22357    0.047198   -0.080127
-0.072006   -0.078827   -0.043423   -0.011917     0.10729    0.010495    -0.10351
-0.069408   -0.067459   -0.072981    -0.02426   -0.059014   -0.018088   -0.099615
-0.039201   -0.038551   -0.084349   -0.029782    -0.25845   -0.035628   -0.068109
0.0052977   0.0043233   -0.081426   -0.027833    -0.46437   -0.046347   -0.022961
0.046223    0.047198   -0.072006   -0.019388    -0.65439   -0.052843    0.012119
0.070584    0.071558   -0.064861   -0.007045    -0.81971   -0.060313    0.029333
0.070909    0.069934    -0.06681   0.0078962    -0.95873   -0.073955     0.03453
0.047198    0.048497   -0.075904    0.025111     -1.0734   -0.097666    0.037454
0.012443    0.024137   -0.084674    0.041676     -1.1559    -0.13275    0.047198
-0.015815    0.016666   -0.082076    0.055318     -1.1734    -0.18017    0.061165
-0.031081     0.03453   -0.065186    0.070584      -1.088    -0.23246    0.076106
-0.035628    0.074157   -0.038876    0.092021     -0.8915    -0.27534    0.090722
-0.03173     0.11833   -0.012892     0.12158    -0.61379    -0.29645     0.10144
-0.01549     0.14789   0.0049729     0.15666    -0.31951     -0.2971     0.10079
0.009845     0.14951    0.011469     0.19628    -0.07493    -0.28183    0.083251
0.030633     0.11995    0.008221     0.24273    0.079679    -0.25292     0.05207
0.030957    0.066362  -0.0015233     0.29308     0.13652     -0.2107    0.017316
0.011469   0.0056225  -0.0089938     0.33855     0.11508    -0.15938  -0.0089938
-0.01484   -0.046022  -0.0076946     0.36908    0.044275    -0.10838   -0.018413
-0.030106   -0.081101   0.0026992     0.37558    -0.04862   -0.063237  -0.0089938
-0.025559   -0.098316    0.014392     0.35544    -0.14509    -0.03303    0.012119
-0.0031473    -0.10254    0.018615     0.31224    -0.23766   -0.021012    0.032906
0.025111   -0.096692    0.012443     0.25118    -0.33932   -0.023935    0.041676
0.05142   -0.082725  -0.0018481     0.16835    -0.47249   -0.040825    0.041027
0.06896   -0.063561   -0.019063    0.062789     -0.6362   -0.068758    0.034206
0.073182   -0.044398   -0.035303   -0.053492    -0.79113    -0.10416    0.024461
0.062139   -0.026209   -0.050894    -0.16588    -0.87655     -0.1334    0.016016
0.039402  -0.0057458   -0.060313    -0.26527    -0.85219    -0.13989    0.013093
0.0095202    0.013093   -0.060313    -0.34907    -0.72292    -0.10903    0.014068
-0.019712    0.025436   -0.052193    -0.41078    -0.52446   -0.043748    0.012119
-0.039526    0.029333   -0.037577    -0.44521    -0.30522    0.036479   0.0069217
-0.043748    0.025436   -0.019388    -0.44846   -0.086948     0.10696  -0.0028225
-0.038227    0.017965  -0.0021729    -0.42247     0.13814     0.15471    -0.01614
-0.028807    0.012119    0.011469     -0.3731     0.38142     0.17355   -0.034654
-0.025884   0.0075714    0.018615    -0.31204     0.63055     0.16965   -0.059339
-0.034654   0.0043233    0.022837     -0.2513     0.84557     0.15536   -0.080127
-0.055116  0.00042559    0.026085    -0.20031     0.98654     0.13684   -0.085648
-0.084349  -0.0021729    0.030633    -0.16685      1.0372     0.11216   -0.071032
-0.11423 -0.00087364    0.031932    -0.15223      1.0119    0.073832   -0.047971
-0.13632   0.0023744    0.026735    -0.14996     0.93847    0.015692   -0.028807
-0.14509    0.003024    0.013093    -0.14606     0.83031    -0.06551   -0.024585
-0.13567  0.00010078  -0.0083442    -0.12885     0.69454    -0.16977    -0.03173
-0.10936  -0.0080194    -0.03238   -0.093119      0.5461    -0.28086    -0.04115
-0.073955   -0.017114   -0.052193   -0.043423     0.40643    -0.37927   -0.044073
-0.037577   -0.025234   -0.067134    0.010495     0.29697    -0.45138   -0.039851
-0.0041217   -0.027833   -0.079152    0.059865     0.23169    -0.48744    -0.03303
0.025436   -0.021012   -0.086298    0.092021     0.21025    -0.49328   -0.023935
0.053044  -0.0067202   -0.090521    0.097868     0.22259    -0.47932   -0.015165
0.078704    0.014068   -0.090521     0.07773     0.25183    -0.45041  -0.0099683
0.10242     0.03518   -0.085973    0.038428     0.28366    -0.40948  -0.0067202
0.11898    0.050121   -0.076879   -0.014516     0.31581    -0.35816  -0.0021729
0.1232    0.054668   -0.064211   -0.073306     0.34797    -0.30457   0.0088706
0.11476    0.047523   -0.051868    -0.13242     0.37103    -0.25682    0.031932
0.094295    0.033231   -0.043748    -0.18569     0.37233    -0.22109    0.065712
0.06831    0.016991    -0.04115    -0.22889     0.34732    -0.19641     0.10631
0.042651   0.0026992   -0.042449    -0.25552     0.30022    -0.17107     0.14367
0.025111  -0.0063954   -0.041475    -0.25845     0.23656    -0.13145      0.1638
0.020888  -0.0037969   -0.032055    -0.23474     0.16575   -0.073306     0.16348
0.030957    0.012768   -0.017114    -0.18959    0.099817 -0.00054884     0.14464
0.050121    0.036479  -0.0021729    -0.13697    0.046223    0.083901     0.11281
0.067011    0.054993    0.008221   -0.092145   0.0069217     0.17322    0.076755
0.074806    0.058566    0.013093   -0.062587   -0.028482     0.25897    0.046548
0.073507    0.046873    0.011794   -0.047971    -0.06681     0.33238    0.027709
0.068635    0.030633   0.0059473   -0.045047    -0.10838     0.38954    0.016666
0.065387    0.017316  -0.0015233   -0.048296    -0.14639     0.42592   0.0056225
0.068635    0.015042  -0.0044465   -0.049595     -0.1701     0.44086  -0.0076946
0.072858    0.021863 -0.00054884   -0.040825    -0.17075     0.43242   -0.026858
0.071558    0.032257   0.0059473   -0.019063    -0.15158     0.40026   -0.051868
0.054993    0.039727    0.015692   0.0049729    -0.12365     0.35024   -0.076879
0.016991    0.038428     0.02706    0.021538    -0.10286     0.29373   -0.096042
-0.036278    0.026735    0.036154    0.024461   -0.092145     0.24306    -0.10384
-0.092145   0.0026992    0.038428    0.012768   -0.088572     0.20376   -0.095068
-0.1321   -0.028482    0.028359   -0.011917   -0.084999     0.17322   -0.074605
-0.14314   -0.061613   0.0033489   -0.040825   -0.071682     0.13944   -0.050894
-0.1282   -0.088896   -0.027833   -0.059989   -0.039526    0.091696   -0.030756
-0.098641    -0.11001   -0.052518    -0.05804   0.0078962    0.025436   -0.020687
-0.06681    -0.12073   -0.064536   -0.034654    0.066037   -0.051544   -0.026209
-0.036602    -0.11488   -0.066485  0.00010078     0.12807    -0.12365   -0.048296
0.0056225   -0.090196   -0.060638    0.042651     0.18751     -0.1688   -0.073955
0.084876   -0.047646   -0.048945    0.088124     0.23624    -0.16653   -0.084349
0.20668   0.0075714   -0.031081     0.13392     0.26742    -0.11326    -0.06681
0.34277    0.066686  -0.0089938      0.1781     0.27716   -0.022961   -0.022311
0.44704     0.11833    0.015692      0.2187     0.26742    0.079354    0.037129
0.47497     0.15568    0.038428      0.2541     0.23883     0.17712     0.10144
0.40773     0.17517    0.054668     0.28171     0.19628     0.26255     0.16023
0.26677     0.17582    0.066037      0.2973     0.14496     0.32653     0.20408
0.097543      0.1625    0.076106     0.30282    0.087474     0.36291     0.22714
-0.046996     0.14204    0.085525     0.29957    0.016666     0.36908     0.23331
-0.12982     0.11378    0.086824     0.28821   -0.077853     0.34732     0.22357
-0.14216    0.074157    0.073182     0.26807    -0.20193      0.2999     0.20181
-0.097017    0.034206    0.045574     0.24403    -0.34192     0.23331     0.17127
-0.023935    0.014068    0.014717     0.22065     -0.4595     0.15861     0.13749
0.046223    0.023487  -0.0099683     0.20213    -0.51894    0.091047     0.10404
0.093645     0.06019   -0.019063     0.19076    -0.50497    0.038753    0.080978
0.11346     0.10469   -0.010618     0.19011    -0.42994   0.0049729    0.067661
0.11118     0.13782   0.0072465     0.19856    -0.32016   -0.008669    0.059541
0.10014     0.14821     0.02641      0.2096     -0.2055  -0.0021729    0.058566
0.0865     0.13717    0.038103      0.2148    -0.10514    0.023487     0.06084
0.071234     0.11281    0.042001     0.21252   -0.022636    0.064088    0.064413
0.053369    0.081952    0.036154      0.2083    0.044599     0.10956    0.066037
0.032582    0.051745    0.027709     0.20408     0.10306     0.14626    0.063438
0.0056225    0.029009    0.022188     0.19856     0.15438     0.15536    0.053044
-0.027508    0.012768    0.019914     0.18784      0.2083     0.12483    0.033231
-0.063237  0.00042559    0.016991     0.17452     0.27976    0.059865   0.0033489
-0.097017   -0.012567    0.010495     0.15926      0.3785   -0.022311   -0.030756
-0.11943   -0.029132  -0.0015233     0.14204     0.50128    -0.10546   -0.064211
-0.12917    -0.04992   -0.015815     0.11898     0.62698    -0.17432   -0.093769
-0.13047   -0.073955   -0.030106    0.090397     0.72085    -0.22597    -0.11748
-0.13275    -0.09929   -0.041799    0.058566     0.74716    -0.26072    -0.13664
-0.14087    -0.12365   -0.051544    0.023812     0.68577    -0.27631    -0.15386
-0.15223    -0.14509   -0.055766  -0.0060706     0.54091    -0.26169    -0.15938
-0.16133    -0.16523    -0.04927   -0.026209      0.3418    -0.21232    -0.14931
-0.16393    -0.18017    -0.03238   -0.033354     0.11866     -0.1321     -0.1256
-0.15548    -0.18796  -0.0096434   -0.032705    -0.10189   -0.034978   -0.096367
-0.13859    -0.18894     0.01017   -0.030756    -0.30619    0.059865   -0.069733
-0.11521    -0.18082    0.023162   -0.034329    -0.49198     0.14107   -0.051868
-0.09182    -0.16035    0.031607   -0.044073    -0.64821     0.19628   -0.042774
-0.072006    -0.13047    0.038428   -0.055766     -0.7606        0.22   -0.045697
-0.054792    -0.10091    0.042975   -0.068434    -0.81841      0.2135   -0.058365
-0.032705   -0.076554    0.043625   -0.077528    -0.81841     0.18232   -0.073306
-0.0028225   -0.055766    0.042001   -0.086298    -0.77684     0.13327   -0.088896
0.022188   -0.032705    0.035505   -0.093119    -0.74273    0.075456    -0.10579
0.021213  -0.0047713    0.025761    -0.09994    -0.77976    0.013093    -0.12657
-0.013216    0.026735    0.013743    -0.09994    -0.90774   -0.050244    -0.15061
-0.07493    0.054993  0.00010078   -0.090845      -1.074    -0.10806    -0.16977
-0.13892    0.075781   -0.013541   -0.070707     -1.1835    -0.15711    -0.17302
-0.17367    0.089098   -0.023285    -0.04115     -1.1513    -0.19738    -0.14834
-0.1597     0.10371   -0.021661   -0.007045    -0.95938    -0.22597   -0.091495
-0.094418      0.1323  -0.0060706    0.026735    -0.65763    -0.23798   -0.012242
0.0043233     0.17907    0.019914    0.053044    -0.30879    -0.22402    0.073182
0.11118     0.23201    0.051096    0.066686    0.044599     -0.1727     0.14691
0.19661     0.27359    0.072533    0.063763     0.37915   -0.092469     0.19076
0.24176     0.29048    0.074482    0.047847     0.66953   -0.013541     0.19823
0.23981     0.28171    0.055643    0.023162     0.87188    0.031607     0.17647
0.20505     0.25345    0.031282  -0.0024977     0.94464    0.029983     0.14042
0.15406     0.21707    0.015692    -0.02426     0.87091    -0.01484     0.10599
0.10404     0.18167    0.014068   -0.036927     0.67732   -0.093119    0.079029
0.068635     0.15276     0.01829   -0.042124     0.41423    -0.18991    0.062464
0.05142     0.12905    0.020888   -0.042124     0.14561     -0.2932    0.059216
0.048172     0.10761    0.019264   -0.039526   -0.071682    -0.38967    0.067011
0.051745     0.08585    0.015692   -0.034329    -0.20031    -0.46795    0.080328
0.053694    0.059541    0.016341   -0.029132    -0.23019    -0.52057    0.089748
0.05142    0.030957    0.023162   -0.023285    -0.17789    -0.54428    0.086824
0.045899   0.0010752     0.03518    -0.01614   -0.059664    -0.53875    0.072533
0.03518   -0.029457    0.044599   -0.011267     0.10501    -0.50335    0.051096
0.017316   -0.060963    0.044599   -0.013541     0.28398    -0.43709     0.02641
-0.0054209   -0.092794     0.03583   -0.020037     0.43534     -0.3416   0.0049729
-0.030756    -0.11878    0.024786   -0.026858     0.51947    -0.22759   -0.010943
-0.05804    -0.13372    0.015042    -0.03238     0.52272    -0.10481   -0.022311
-0.086298    -0.13859   0.0088706   -0.037902     0.46003    0.015042    -0.03238
-0.11423     -0.1334    0.013743   -0.042774     0.37168     0.11606   -0.042774
-0.13567    -0.12008    0.025436   -0.045697      0.3038     0.19044   -0.051544
-0.14704    -0.10611     0.03583   -0.047321      0.2908     0.24338   -0.059989
-0.14671   -0.098965    0.036154    -0.04992     0.32783     0.27944   -0.068434
-0.13534   -0.098641    0.027385   -0.055116     0.38857     0.30022   -0.079152
-0.11293    -0.10091    0.014068   -0.055766     0.44021     0.30445   -0.089871
-0.076879   -0.096367   0.0026992   -0.054792       0.461      0.2908   -0.096367
-0.027833   -0.078827  -0.0041217   -0.050569     0.43729     0.26449    -0.09929
0.021863   -0.051219  -0.0089938   -0.041475     0.37298     0.23396    -0.10546
0.058891   -0.021661   -0.014516   -0.029132     0.27391     0.21058    -0.11553
0.075781   0.0033489   -0.020037   -0.016789     0.15861     0.20278    -0.12755
0.080328    0.021538   -0.021661  -0.0073698    0.050771      0.2109    -0.13502
0.07708    0.032906   -0.022961  -0.0037969   -0.029132     0.22714    -0.13372
0.06896     0.03518    -0.03173  -0.0057458   -0.065835     0.24013    -0.12527
0.050446    0.024461   -0.048945   -0.013866   -0.061937     0.24143    -0.11358
0.017316   0.0023744   -0.069733   -0.023935   -0.029782     0.22649   -0.098316
-0.027833    -0.02426   -0.085648   -0.032705    0.015042     0.19661   -0.082076
-0.077853     -0.0405   -0.085973   -0.037902    0.062139     0.15568    -0.06681
-0.12333   -0.035628   -0.067134   -0.033679     0.10047     0.11118   -0.050569
-0.15321   -0.011917   -0.035953   -0.016464     0.12353    0.073832   -0.034329
-0.16328    0.019914   -0.007045    0.011144     0.12937    0.049472   -0.011917
-0.15353    0.044275    0.011144    0.041351     0.10956    0.036479    0.011469
-0.1295    0.056292    0.016666     0.06896    0.061165    0.030957    0.032582
-0.097991    0.054993    0.014717    0.090397   -0.010618    0.028684    0.049147
-0.070382    0.042651   0.0072465     0.10404   -0.094418    0.024786    0.059216
-0.052193    0.023812  -0.0031473     0.10859    -0.18017    0.014392    0.058891
-0.042774    0.003024    -0.01484     0.10761    -0.27664  -0.0044465    0.050121
-0.042449   -0.014191   -0.027183     0.10047    -0.39811   -0.027508     0.03583
-0.053168   -0.027183   -0.035953    0.092671    -0.53648    -0.04992    0.020888
-0.06681   -0.036602   -0.035628    0.092671    -0.66088    -0.06551    0.014068
-0.076554   -0.043748   -0.022961     0.10079    -0.73526   -0.070058    0.019914
-0.078178   -0.050244  -0.0011985     0.11313    -0.73624   -0.064861     0.03583
-0.071357   -0.055116    0.022512     0.12028    -0.66705   -0.048296     0.05207
-0.053492   -0.057715    0.037129     0.12028    -0.55207   -0.022636    0.064088
-0.026858   -0.055441    0.038753     0.10989    -0.42897   0.0062721    0.069934
0.0026992   -0.047646    0.031607    0.092996    -0.32373    0.037454    0.071234
0.028034    -0.03303    0.019914    0.076431    -0.25033    0.071883    0.066362
0.050771   -0.016464   0.0085458    0.064088    -0.21167     0.11248    0.057592
0.068635  0.00075039  0.00075039    0.056617      -0.212     0.15796    0.047198
0.078055    0.014717  -0.0050961    0.051096    -0.25747     0.20473    0.036154
0.076755    0.027385   -0.008669    0.040702    -0.34972     0.24403    0.029658
0.065062    0.040052   -0.010943    0.023162    -0.47509     0.27294    0.027385
0.048822    0.052395   -0.013541  -0.0060706    -0.59365     0.28658    0.029009
0.032582    0.057917   -0.013216   -0.044723    -0.66023     0.28366    0.031932
0.020564    0.053044  -0.0083442   -0.088247    -0.64724     0.26807    0.035505
0.016991    0.038103   0.0023744    -0.13242      -0.555     0.24046    0.041351
0.020239    0.014392    0.014717    -0.16685    -0.41403     0.19499    0.050121
0.034206   -0.011267    0.020239    -0.18699    -0.26364     0.12548    0.059541
0.053369    -0.03238    0.018615    -0.19413    -0.13534    0.032257    0.067986
0.071558   -0.045047   0.0088706    -0.19446   -0.037252   -0.079152    0.073507
0.082927   -0.045697  -0.0080194    -0.19251    0.041027    -0.20096    0.078704
0.084551   -0.034329   -0.023935    -0.19121     0.11671    -0.32568    0.088124
0.080003    -0.01549   -0.034654    -0.19381     0.20213    -0.45041    0.097868
0.081952   0.0026992    -0.04115    -0.19836     0.29762    -0.56994     0.10469
0.093645    0.016666   -0.047646    -0.20355      0.3876     -0.6677     0.10599
0.10956    0.029983   -0.052518    -0.20648     0.43729    -0.72325     0.10566
0.12613     0.04395   -0.051544    -0.20193     0.40481    -0.72617     0.10242
0.13847    0.058566   -0.046671    -0.18829     0.26547    -0.68427    0.096244
0.14237    0.067986   -0.043748    -0.16718    0.046873    -0.61606      0.0852
0.13457    0.071883   -0.045372    -0.14509    -0.17594    -0.53551    0.066037
0.11573    0.069934   -0.050894     -0.1256    -0.32568    -0.44489    0.044275
0.089748    0.060515   -0.060638    -0.10871    -0.36173    -0.34744    0.024461
0.064737    0.041676   -0.072656   -0.097341    -0.29158    -0.24838    0.013093
