-0.014516    0.076106   -0.042124   -0.078827     0.14951    0.061489    0.012119
-0.017764    0.094295     0.11541    -0.09182     0.18004    0.043625      0.0014
-0.026533     0.10404     0.24955    -0.10156     0.19661    0.020888   -0.013216
-0.042449     0.10729     0.44086    -0.10481     0.18751  -0.0041217   -0.027833
-0.062587     0.10859     0.69389    -0.10514     0.15016    -0.03173   -0.044398
-0.0824     0.11183     0.94074    -0.09994     0.10339   -0.061937   -0.063886
-0.098641     0.12385       1.096   -0.087597    0.079679   -0.093444    -0.08305
-0.10384     0.14659      1.1142   -0.068109     0.11216     -0.1204    -0.10026
-0.091495      0.1742      1.0184   -0.039851     0.20603    -0.13534    -0.11163
-0.062262     0.20181     0.87871  -0.0054209      0.3392     -0.1295    -0.11196
-0.020362     0.22292     0.76275    0.029009     0.46945    -0.10124    -0.09929
0.019914     0.23461     0.69356    0.057917      0.5474   -0.058689   -0.075904
0.048172     0.24078     0.65751    0.078055     0.53798   -0.010293   -0.047971
0.059865     0.23818      0.6351    0.089098     0.43469    0.035505   -0.018413
0.054993     0.22714     0.60879    0.090397     0.26027    0.075131    0.011794
0.040702     0.20603     0.55292    0.083576    0.049147     0.10436    0.036479
0.028034     0.17485     0.43177    0.063113     -0.1753     0.12418    0.047847
0.023162     0.13295     0.24273    0.032906    -0.38967       0.131    0.044924
0.02641    0.089098    0.047523  -0.0028225    -0.54687     0.12288     0.03453
0.031282    0.051745   -0.070382   -0.033679    -0.59007     0.10177    0.023487
0.031282    0.027709   -0.064536   -0.053492    -0.48354    0.073832    0.013743
0.025111    0.020564    0.047198   -0.058365    -0.24805    0.042651   0.0046481
0.017316    0.023487     0.18946   -0.045372    0.024137   0.0062721  -0.0018481
0.010819    0.032257     0.24663   -0.018738     0.21058   -0.037252  -0.0080194
0.0059473    0.037454    0.095594     0.01017     0.24078   -0.088572   -0.016464
0.0026992    0.030957    -0.30457    0.025436     0.11606    -0.15061   -0.027508
-0.0011985    0.008221    -0.82329    0.022188   -0.097017    -0.22142   -0.040175
-0.0015233   -0.027508     -1.2046   0.0088706    -0.30457    -0.29125   -0.050244
0.003024    -0.06551     -1.2439  -0.0067202    -0.44878    -0.34679   -0.057065
0.012768   -0.097666    -0.93177   -0.021012    -0.53583    -0.37343   -0.059664
0.025111    -0.11651    -0.44261   -0.029132    -0.62353    -0.36303   -0.058365
0.038103    -0.11845 -0.00054884   -0.028157    -0.79016    -0.31951   -0.052843
0.048172    -0.10644     0.24598   -0.023935     -1.0809    -0.25975   -0.044723
0.049796   -0.087272     0.27911   -0.025559      -1.481    -0.20615   -0.036278
0.039727   -0.067459      0.1742   -0.036278     -1.9049    -0.16977   -0.034004
0.020564   -0.052518    0.029009   -0.052843     -2.2456    -0.15256   -0.036278
-0.0018481   -0.043423   -0.083375   -0.070382     -2.4217    -0.14964   -0.042124
-0.020362   -0.040175    -0.13275   -0.080451     -2.4022    -0.14411   -0.045697
-0.028482   -0.042124    -0.12495    -0.07428     -2.2089     -0.1256   -0.047321
-0.02361   -0.046996   -0.085648   -0.052193     -1.9007   -0.090196   -0.045372
-0.010293    -0.04992   -0.040825   -0.025234     -1.5538   -0.042774   -0.036927
0.0026992   -0.047971  -0.0093186  -0.0073698     -1.2439   0.0059473   -0.022636
0.0085458   -0.039526   0.0017248  -0.0083442      -1.023    0.041676   -0.010618
0.0056225   -0.020362  -0.0021729   -0.029457    -0.88305    0.056942  -0.0080194
-0.0080194     0.01017   -0.011267   -0.064861    -0.76482    0.054019   -0.017764
-0.027833    0.044275    -0.01484    -0.10156    -0.58845    0.036154   -0.036602
-0.047646    0.071883  -0.0076946    -0.13047     -0.2919   0.0072465   -0.054792
-0.062587      0.0865   0.0036737    -0.14314     0.11703   -0.020037   -0.068109
-0.070707    0.083251    0.014068    -0.13632     0.57046   -0.030431   -0.073631
-0.072331    0.062139    0.018615    -0.11521      0.9781   -0.017114   -0.069733
-0.067459    0.028034     0.01829   -0.088572      1.2701    0.013418   -0.056741
-0.054792   -0.010618    0.008221   -0.067134      1.4179    0.050446   -0.038876
-0.034978    -0.04115   -0.013866    -0.04992      1.4299    0.081303   -0.018088
-0.012892    -0.05739   -0.043748   -0.034978      1.3354     0.10047   0.0023744
0.0062721   -0.060313   -0.070058   -0.018738       1.172     0.10404     0.01829
0.014068   -0.059014   -0.082725 -0.00022403     0.98589    0.092671    0.028034
0.011469   -0.056741   -0.080451    0.015042     0.81667    0.070259    0.031282
0.0039985   -0.053817   -0.070058    0.023812     0.69129      0.0433    0.028684
-0.0028225   -0.049595   -0.059989    0.023162     0.61529    0.017965    0.022837
-0.0063954   -0.046347   -0.060313    0.021213     0.58898  -0.0054209    0.013093
-0.0089938   -0.044723   -0.076554    0.024461     0.62243   -0.030106   0.0023744
-0.010293   -0.043423    -0.10156     0.03518     0.72085   -0.055766  -0.0063954
-0.007045     -0.0405    -0.13047     0.05142     0.86376   -0.078178   -0.010293
0.00042559   -0.035953    -0.15061    0.073832       1.009   -0.089221  -0.0089938
0.010819   -0.030106    -0.15646    0.099167       1.107   -0.085973 -0.00054884
0.020239   -0.022961    -0.14866     0.12223      1.1298   -0.072006    0.013418
0.025111   -0.016464     -0.1321     0.13749      1.0755   -0.053492    0.028684
0.024461   -0.008669    -0.11293     0.14659     0.96933   -0.034978    0.040702
0.019264  0.00042559    -0.10059     0.15016     0.84038   -0.020687    0.048497
0.010495   0.0078962   -0.095393     0.14984     0.71825   -0.007045    0.055643
0.0020496    0.013743    -0.09182     0.14464     0.62438   0.0095202    0.062789
0.00010078     0.01764   -0.081426     0.13457     0.56397    0.032257    0.070584
0.0085458    0.020564   -0.064211     0.12385     0.52596    0.058566    0.079679
0.022837    0.024786   -0.047971     0.11768     0.49024    0.081952    0.087149
0.038753    0.029333   -0.033354     0.11573     0.43762    0.098193    0.092346
0.046873    0.031282  -0.0041217     0.11411     0.36096     0.10436     0.09397
0.045574    0.030633    0.062464     0.11021     0.26904     0.10469    0.092021
0.038103     0.02706     0.17745     0.10177     0.18622     0.10664    0.088773
0.029333    0.020239     0.32134    0.087799     0.14172     0.11638    0.083576
0.022188    0.009845     0.44184    0.073507     0.15146     0.12937     0.07773
0.020239   0.0020496     0.48861    0.059865     0.20408     0.14237     0.06831
0.028034  -0.0024977     0.44086    0.047847     0.26937     0.14951    0.055968
0.041351  -0.0041217      0.3051    0.034855     0.32036     0.15081      0.0433
0.05142   -0.007045     0.12223    0.023162      0.3444     0.14464    0.033881
0.050771  -0.0093186   -0.061613    0.011144       0.347     0.13165    0.026735
0.038753   -0.011267     -0.2081   0.0010752      0.3366     0.11606    0.019264
0.026735   -0.010618    -0.29645  -0.0067202     0.31646     0.10014   0.0095202
0.022512  -0.0060706    -0.32958  -0.0057458     0.28885     0.08585  0.00042559
0.025111   0.0046481    -0.32471   0.0026992     0.25735    0.075456  -0.0021729
0.032257    0.018615    -0.30684    0.012768     0.22097    0.071558   0.0043233
0.038428    0.031282     -0.2932    0.020888     0.17745     0.07708    0.019264
0.041676    0.036804     -0.2854    0.023812     0.12548    0.087799    0.036479
0.0433    0.036479    -0.23831    0.023487    0.068635     0.10112    0.050771
0.040052    0.029658   -0.098316    0.022837    0.009845     0.11216    0.059216
0.03453    0.020564     0.13197    0.026085   -0.045372     0.11638    0.061814
0.02641   0.0095202     0.38987    0.024786   -0.087597     0.11021    0.056292
0.019589  -0.0050961     0.59158    0.016016    -0.10124    0.096244    0.049472
0.017965   -0.021661     0.68122  -0.0011985    -0.06551    0.074806     0.04395
0.01764   -0.036602     0.64712   -0.021012    0.029009    0.049147    0.040702
0.016341   -0.042449     0.52077   -0.034329     0.16673    0.028684    0.039402
0.011794   -0.036278     0.34862   -0.035628     0.32166    0.019914    0.038428
0.0062721   -0.019712     0.17907    -0.02426     0.47432    0.019589    0.037129
0.0010752  0.00075039    0.045574  -0.0054209     0.62211    0.021863    0.033881
-0.0031473    0.016341   -0.040825    0.014717     0.75268    0.025111    0.030308
-0.0047713    0.020888   -0.086298    0.028684     0.81991    0.029658    0.027385
-0.0057458    0.016991    -0.10579    0.036479     0.74423    0.034206    0.024137
-0.0089938   0.0091954    -0.11618    0.039727     0.47335    0.033881    0.020888
-0.017114   0.0033489    -0.12527    0.040052     0.06831    0.028359    0.015692
-0.028482   0.0062721     -0.1321    0.037129    -0.32893    0.021213    0.013743
-0.040825    0.014717    -0.13437    0.033231    -0.59495    0.019914    0.016016
-0.047646    0.024461    -0.13307    0.031932    -0.68232    0.030308    0.022188
-0.047971    0.031282    -0.12852     0.03453    -0.62126    0.050771    0.030957
-0.043423    0.032906    -0.12105    0.039078    -0.48581    0.075131    0.036804
-0.041475    0.031282    -0.10936    0.041676    -0.34549    0.092996    0.036804
-0.039526    0.030633   -0.095717      0.0433    -0.23441    0.098842    0.028034
-0.033679    0.030957   -0.084024    0.045899    -0.15581    0.092021    0.014068
-0.023935    0.031932   -0.080776    0.051096    -0.11163    0.072208   0.0010752
-0.012567    0.029333   -0.083375    0.056617    -0.12527    0.046873  -0.0041217
-0.0063954    0.025761   -0.085648    0.059865    -0.21557     0.01829  -0.0021729
-0.007045    0.023487   -0.084024     0.06084    -0.36433   -0.013866   0.0036737
-0.016789    0.021863   -0.076879    0.058241    -0.52446   -0.047321     0.01017
-0.032055    0.021213   -0.064861    0.053694    -0.66121   -0.078827    0.010495
-0.046671    0.019589   -0.050244    0.047847    -0.77099    -0.10319   0.0010752
-0.056741    0.016666   -0.034654    0.039402    -0.85837     -0.1256   -0.013866
-0.061613    0.013418   -0.026858    0.026085    -0.94282    -0.14736   -0.029132
-0.061288   0.0088706   -0.029457    0.010819     -1.0448    -0.17075     -0.0405
-0.05804   0.0049729   -0.043748  -0.0037969      -1.152    -0.19998   -0.044073
-0.051868   0.0036737   -0.062262   -0.017114     -1.2108    -0.22337   -0.041475
-0.047646    0.008221   -0.077203   -0.029132     -1.1474    -0.22856   -0.039526
-0.045047    0.015692     -0.0837   -0.041475    -0.92008     -0.2133   -0.039201
-0.039201    0.022512   -0.082725   -0.051219    -0.56539    -0.18017   -0.041475
-0.026533     0.02641   -0.076554   -0.056091    -0.17952    -0.13924   -0.044723
-0.012567    0.028034   -0.069083   -0.055766     0.13327   -0.095393   -0.046022
-0.0018481    0.027709   -0.058689    -0.04927     0.31354   -0.053492   -0.045372
0.0046481    0.023162   -0.045047   -0.039526     0.36226   -0.017764   -0.043748
0.0072465    0.013418   -0.029457   -0.031081     0.32458   0.0072465   -0.042774
0.0052977   0.0017248   -0.021986   -0.026209      0.2593    0.021538   -0.042449
0.0026992   -0.007045   -0.025234   -0.025234     0.20733    0.026735   -0.043099
-0.00022403  -0.0076946   -0.033354   -0.026533     0.17777     0.02706   -0.039526
-0.00087364  -0.0031473   -0.036278   -0.024585     0.15796     0.02706   -0.028157
0.00075039   0.0036737   -0.022961   -0.021012     0.13814     0.02641   -0.013216
0.0039985    0.011794   0.0072465   -0.020037     0.10859    0.025111  -0.0028225
0.011144    0.016341    0.044924   -0.025559    0.066362    0.025111   0.0017248
0.020888    0.014068    0.081303   -0.037902    0.016666    0.028684   0.0056225
0.032582   0.0049729     0.11054   -0.050894   -0.035628    0.033881    0.008221
0.040702  -0.0034721     0.13912   -0.057715   -0.090845    0.036804    0.010819
0.041351  -0.0076946     0.16998   -0.053817    -0.15646     0.03518    0.011144
0.037129  -0.0067202       0.207   -0.042774    -0.24318    0.035505   0.0085458
0.031607  -0.0037969     0.24501   -0.027183    -0.35946     0.03453   0.0033489
0.025761   0.0017248      0.2567   -0.016464    -0.49426    0.030308  -0.0034721
0.021863   0.0059473     0.17192   -0.015165    -0.61996    0.014392  -0.0099683
0.01829   0.0036737   -0.050569   -0.023285    -0.70246   -0.010618   -0.013216
0.015042  -0.0057458    -0.35524   -0.036278    -0.71448   -0.039851   -0.014191
0.012443   -0.017764    -0.61508   -0.046996    -0.65439    -0.06681   -0.013216
0.0078962   -0.025234    -0.71772   -0.048945    -0.54363   -0.081751   -0.013541
0.0039985   -0.025884    -0.62515     -0.0405    -0.41111     -0.0837   -0.013541
0.0056225   -0.018738    -0.38642   -0.026209    -0.28151   -0.073306   -0.015815
0.012443   -0.010618    -0.10546   -0.010618    -0.16653   -0.061288   -0.019063
0.021863  -0.0063954     0.12125  -0.0015233   -0.064536   -0.053168   -0.019388
0.033231  -0.0037969     0.23883 -0.00022403    0.030633   -0.051219   -0.017439
0.041351 -0.00022403      0.2515  -0.0031473     0.11573   -0.058365   -0.016789
0.0433   0.0072465     0.19531  -0.0067202     0.18979   -0.073306   -0.018088
0.039402    0.015692     0.11898  -0.0096434     0.25053   -0.093444   -0.019063
0.031932    0.022188    0.058566   -0.010293     0.27229    -0.10936   -0.019063
0.023812    0.024137    0.033231  -0.0057458     0.20895    -0.12008   -0.018413
0.01764    0.024461    0.046873   0.0043233    0.048497    -0.12885   -0.015815
0.014717    0.025111    0.089423    0.016991    -0.16035    -0.13372   -0.013541
0.015367    0.030633     0.14269    0.030957    -0.32503     -0.1321   -0.011267
0.01764     0.03583     0.18297    0.041351    -0.36985    -0.12527   -0.010943
0.022512    0.037778     0.18524    0.047523    -0.27728    -0.11358  -0.0099683
0.028359    0.034855     0.15698     0.05207   -0.086948    -0.09929   -0.008669
0.030308    0.028359     0.13262     0.05272      0.1349   -0.084999   -0.007045
0.026085    0.013093     0.12288    0.048822     0.32978   -0.069733  -0.0080194
0.01829   -0.008669    0.094295     0.03453     0.46977   -0.053168   -0.014191
0.01017    -0.03238     0.01829    0.012119      0.5513   -0.035953   -0.022311
-0.0021729   -0.050569   -0.094743   -0.013216     0.58216    -0.01614   -0.026533
-0.016789   -0.062262    -0.21395   -0.034654     0.57761  0.00075039   -0.019712
-0.030431   -0.064536    -0.30619   -0.048296      0.5552    0.010495  -0.0041217
-0.038227    -0.05739    -0.35264   -0.052843     0.52824    0.013418    0.013093
-0.035628   -0.043099    -0.34712   -0.048945     0.50225    0.015367    0.025436
-0.022311   -0.026533     -0.2997   -0.038551     0.47757    0.019589    0.033231
-0.0015233   -0.014191    -0.22629    -0.02426     0.45126    0.027385    0.036804
0.015692  -0.0076946    -0.14541   -0.012242     0.42073    0.040052    0.037778
0.020239  -0.0050961   -0.075904  -0.0054209     0.38467    0.055318     0.03583
0.011794  -0.0037969   -0.026533  -0.0047713     0.32978    0.067661    0.032257
-0.0031473  -0.0015233   0.0017248  -0.0073698     0.23689    0.070584    0.024137
-0.016789  0.00042559    0.014392  -0.0096434    0.093321    0.064737    0.012443
-0.026858   0.0033489    0.021538  -0.0096434   -0.096692    0.053044   0.0026992
-0.033354   0.0059473    0.024137  -0.0047713    -0.31594    0.039402  -0.0024977
-0.037252   0.0059473    0.017965   0.0065969    -0.53388     0.02706  -0.0054209
-0.036278  0.00042559   0.0023744    0.021213    -0.71025    0.016016  -0.0089938
-0.032705   -0.008669   -0.023285    0.033556    -0.80185   0.0010752   -0.014191
-0.030431   -0.019388   -0.053817    0.036804    -0.77846   -0.019712   -0.018738
-0.031406   -0.028157   -0.079802    0.031282    -0.63035   -0.044073   -0.019388
-0.032705   -0.031406   -0.092469    0.022837     -0.3809   -0.068434   -0.015165
-0.025884   -0.028157   -0.084999    0.016016   -0.090845   -0.090196  -0.0063954
-0.010293   -0.019063   -0.059664    0.013093     0.16868    -0.09929   0.0020496
0.0085458   -0.010943   -0.027508    0.014068     0.33498   -0.092794   0.0065969
0.022188  -0.0063954   0.0036737    0.017965     0.37655   -0.075255   0.0036737
0.029333  -0.0021729    0.028359    0.026085     0.30704   -0.055116  -0.0057458
0.028684   0.0056225    0.046548    0.031932     0.17062   -0.037902   -0.016789
0.02641    0.016991    0.061489    0.030308    0.020564   -0.033354    -0.02426
0.023162    0.029983    0.070584     0.01894    -0.10741   -0.046347   -0.026533
0.019264    0.041027    0.072858      0.0014    -0.21655   -0.075904   -0.026858
0.013743    0.047847    0.071234   -0.018738    -0.33543    -0.11813   -0.030756
0.0046481    0.050446    0.065712   -0.035628    -0.49231    -0.16847   -0.039851
-0.0037969    0.051096    0.063113   -0.048945    -0.68427     -0.2146   -0.054792
-0.0080194    0.053044    0.069285   -0.053492    -0.86421    -0.24513   -0.069408
-0.0067202    0.056292    0.087474   -0.047971    -0.94964    -0.25227   -0.079802
-0.0021729    0.060515     0.11833   -0.033679    -0.88143    -0.23701   -0.082076
0.0036737    0.063763     0.16803   -0.017114    -0.65341    -0.20615   -0.073631
0.009845    0.062464     0.23981  -0.0050961    -0.31983     -0.1649   -0.060638
0.014068    0.054668     0.32296  -0.0018481    0.043625    -0.11845    -0.04992
0.016341    0.037778     0.40903  -0.0063954     0.36843   -0.071682   -0.045697
0.014068   0.0065969     0.49446   -0.017764     0.60262   -0.030431   -0.044073
0.0088706   -0.031406     0.57826   -0.030106     0.72832   0.0023744   -0.039201
-0.0011985   -0.064211     0.66433   -0.037577     0.75138    0.025436   -0.030106
-0.012567   -0.084024     0.73806   -0.035628     0.70104    0.043625   -0.020037
-0.021986   -0.087922     0.77022   -0.021661     0.61041    0.055318   -0.010943
-0.024909   -0.076229     0.72994   0.0049729      0.5055    0.065062  -0.0021729
-0.021661   -0.055441     0.60911    0.038753     0.40546    0.070909   0.0075714
-0.019063   -0.028157     0.42917    0.069285     0.31614    0.079679    0.020564
-0.017439  0.00042559     0.23429    0.091372     0.23656    0.097218    0.033881
-0.018738    0.027709    0.065387     0.10112     0.15438     0.12158    0.048172
-0.020362    0.051096   -0.054792    0.097868    0.057592     0.14919    0.059865
-0.021012    0.071558    -0.11878    0.084876   -0.057715     0.17647    0.066362
-0.019063    0.088124    -0.12268    0.070584    -0.17757     0.19661    0.067011
-0.010618     0.10014    -0.06616    0.064413    -0.27956       0.207     0.06084
0.00042559     0.10209    0.037454    0.071883    -0.33088     0.20928    0.050121
0.0088706    0.092996     0.15731    0.090072    -0.30847      0.2083    0.043625
0.013093    0.078704      0.2619     0.10242    -0.21297      0.2044    0.045899
0.014392    0.064737     0.32198     0.10079   -0.069733     0.19628    0.055643
0.011794    0.049796     0.32588    0.084876    0.079354     0.17972    0.067661
0.0036737    0.029333     0.27067    0.066362     0.20993     0.15601    0.069934
-0.008669   0.0036737      0.1703    0.050121     0.31581      0.1297    0.064413
-0.022636   -0.025234    0.037129    0.039402     0.41131     0.10631    0.056942
-0.036927   -0.059664    -0.13015     0.03583     0.50713    0.089423    0.051745
-0.04927    -0.10286    -0.34355     0.03518     0.59158    0.078055    0.047847
-0.056741     -0.1662    -0.61054    0.028684     0.63445    0.073507    0.044924
-0.059989    -0.24773    -0.89864    0.013093     0.61626    0.074806    0.042975
-0.059014     -0.3377     -1.1471   -0.011592     0.53896    0.076755    0.042975
-0.05804    -0.40948     -1.2952   -0.042774     0.42885    0.074157    0.044924
-0.055766    -0.43417     -1.2972   -0.070707     0.31614    0.065712    0.048822
-0.047971    -0.39681     -1.1319   -0.080776     0.22584    0.055643     0.05272
-0.034978    -0.30359    -0.82621   -0.069408     0.17192    0.046548    0.055968
-0.015165    -0.18017     -0.4595   -0.042124     0.15146    0.042651    0.062789
0.0085458   -0.055766     -0.1269  -0.0089938     0.15666    0.040052    0.070259
0.031932    0.045249     0.10144    0.021863      0.1781    0.038428    0.074806
0.053044     0.11768      0.2096    0.042975     0.20181    0.033231    0.076106
0.067011     0.16315     0.22812    0.053369     0.21577    0.020888    0.073832
0.073507     0.19141      0.2057    0.058891     0.21935   0.0026992    0.067661
0.076106      0.2083     0.18589    0.064413     0.22584   -0.013216    0.060515
0.079354     0.21837     0.17972    0.066686     0.24728   -0.018738    0.057592
0.083576     0.22454     0.17517    0.063438     0.29015   -0.011917    0.054344
0.088773     0.22389     0.15211    0.056942     0.35122   0.0020496    0.050121
0.091372      0.2109     0.11183    0.051745     0.41456    0.016991    0.047847
0.086824     0.18654    0.067336    0.050121     0.45873    0.028359    0.047198
0.075131     0.15926    0.031932    0.050771     0.46912    0.030957    0.044599
0.058241      0.1323    0.013743    0.056617     0.44866    0.028359    0.041351
0.042326     0.10989   0.0078962    0.069285     0.41098    0.025111    0.037129
0.032257    0.093321   0.0075714    0.086824     0.36064    0.023162    0.036154
0.030308    0.082277   0.0088706    0.097543      0.2921    0.019914    0.040377
0.032906    0.077405    0.020239     0.10047     0.19499   0.0095202    0.047523
0.040052     0.07708    0.049796    0.096244    0.066037  -0.0083442     0.05207
0.044924    0.076106    0.096244    0.090397   -0.097341   -0.035628    0.049796
0.044599    0.073832     0.14659    0.084551    -0.29905   -0.064536    0.041027
0.038753    0.069934     0.19011    0.078055     -0.5524   -0.088247     0.02641
0.029658    0.064737      0.2174    0.062139    -0.86616    -0.10709    0.009845
0.016016    0.061165     0.22519    0.033556     -1.2228     -0.1243  -0.0037969
0.0014    0.062139     0.21382   0.0020496     -1.5593    -0.14574   -0.013541
-0.0083442    0.065712     0.17615   -0.025234     -1.7617    -0.17042   -0.021012
-0.011592    0.067986     0.10242   -0.040825     -1.7139    -0.18666   -0.024585
-0.0093186    0.064413  -0.0073698   -0.047646     -1.3615    -0.18407    -0.02426
-0.0050961    0.054993    -0.13664   -0.050569    -0.76287     -0.1623   -0.018413
-0.00087364    0.045899     -0.2539   -0.050569   -0.085324    -0.12625  -0.0083442
0.0026992    0.042001    -0.32893   -0.050894     0.47367     -0.0824 -0.00022403
0.0033489    0.044599    -0.35134    -0.04992     0.79588   -0.037577  0.00010078
0.0014    0.052395    -0.33315   -0.044073     0.88163  -0.0018481  -0.0083442
-0.007045    0.054019     -0.2945   -0.033679     0.80497    0.023487   -0.020037
-0.021661    0.050771    -0.25812   -0.021661     0.64842    0.038428   -0.031081
-0.039526    0.041351    -0.23376   -0.011592     0.47724    0.050121   -0.042124
-0.051544    0.028684    -0.21297  -0.0031473     0.32978    0.065387   -0.047321
-0.053492    0.017316    -0.17432    0.003024     0.21317    0.084226   -0.045697
-0.047971    0.014717    -0.10286   0.0065969      0.1271     0.10469   -0.038551
-0.043423    0.016991   0.0078962   0.0043233    0.076106     0.12158    -0.03173
-0.047971    0.019589     0.14886   -0.007045     0.06896     0.12515   -0.029782
-0.061288    0.020239     0.28983   -0.026209     0.11054     0.11021   -0.032055
-0.078178    0.022188      0.3785   -0.051544     0.18557    0.078379   -0.041475
-0.09182    0.028359     0.37558    -0.07428     0.24078    0.034855   -0.054467
-0.095717    0.038753     0.29405   -0.086623     0.17939   -0.018088   -0.068758
-0.089871    0.056292     0.20018   -0.081751   -0.059339   -0.077853   -0.079477
-0.076229    0.080328     0.15958   -0.055441    -0.43612    -0.13664   -0.086298
-0.054467     0.10859     0.19109   -0.014516    -0.83108    -0.18699   -0.085324
-0.026858     0.13425     0.27034    0.028034     -1.0977    -0.22434   -0.078503
0.00042559     0.15081     0.34602    0.059541     -1.1328    -0.24221   -0.071357
0.021213     0.15471     0.37136    0.075131     -0.9334    -0.23896   -0.062587
0.033556     0.14464     0.31906    0.078704    -0.57546    -0.21427   -0.054792
0.040702     0.12158     0.18427     0.07773    -0.17302      -0.174   -0.047971
0.046548    0.089423   -0.011592    0.077405     0.18037     -0.1256   -0.039526
0.053044    0.055643    -0.23506     0.07708     0.44021   -0.076879   -0.028807
0.06084    0.028684    -0.45398    0.066686     0.61074   -0.038876   -0.017439
0.064413    0.011144    -0.61119    0.044275      0.7215   -0.010943  -0.0089938
0.059541  -0.0011985    -0.61931    0.012768     0.79978    0.015042  -0.0047713
0.044275   -0.015815    -0.42865   -0.027833     0.83518    0.041351  -0.0083442
0.019264   -0.039526   -0.099615   -0.072006     0.80887    0.063763   -0.019063
-0.0099683   -0.073631     0.22552    -0.11586     0.71695     0.07708   -0.035303
-0.036278    -0.11326     0.42365    -0.15029     0.57176    0.080653   -0.053492
-0.051219    -0.14769      0.4623    -0.17497     0.40124     0.06961   -0.068434
-0.05804     -0.1675     0.38467    -0.18829     0.22714    0.047847   -0.077528
-0.062587    -0.17172     0.25735    -0.19283    0.046548     0.01894   -0.079802
-0.063237    -0.15841     0.13197    -0.18569    -0.14964  -0.0093186   -0.069733
-0.059989    -0.13502    0.028684    -0.17205     -0.3299   -0.032055   -0.051544
-0.050569    -0.11488   -0.056741    -0.15418    -0.44683   -0.043748   -0.036927
-0.036278    -0.10644    -0.13632    -0.13567     -0.4582   -0.042774   -0.029132
-0.021012    -0.10968    -0.21232    -0.11748    -0.36238   -0.029132   -0.025234
-0.0093186    -0.11748    -0.27826   -0.097341    -0.20063  -0.0089938   -0.019388
-0.0060706    -0.12203    -0.32243    -0.07428   -0.047321   0.0095202  -0.0057458
-0.010293    -0.11553    -0.33348   -0.052518    0.031932     0.01764    0.014068
-0.015165    -0.10189    -0.30814   -0.034004    0.016991    0.017316    0.031607
-0.017439   -0.085648    -0.25585   -0.020687   -0.060963    0.008221    0.040377
-0.014516   -0.071032    -0.18374   -0.011917    -0.15386  -0.0044465    0.039078
-0.011917   -0.061288    -0.10351  -0.0083442    -0.23928   -0.021986     0.03453
-0.012567   -0.056416   -0.019712  -0.0096434    -0.32341   -0.043423    0.031932
-0.01484   -0.052843     0.06019   -0.013216     -0.4189   -0.072656    0.031932
-0.016464   -0.047321     0.12613   -0.012892    -0.52284    -0.11131    0.037129
-0.013866   -0.031406     0.16056  -0.0028225    -0.61216    -0.14736    0.044924
-0.008669 -0.00022403     0.14009    0.018615    -0.67128    -0.17075    0.053044
-0.0011985    0.047198    0.049796    0.048172    -0.70603    -0.17075    0.062464
0.009845     0.10501   -0.090845    0.072858     -0.7515    -0.14931    0.071883
0.025436     0.16088    -0.23311      0.0865    -0.85447    -0.11813    0.080328
0.0433     0.19953    -0.31139    0.090722     -1.0159   -0.088247    0.087474
0.055968     0.20863    -0.27469    0.093645     -1.1815   -0.064861    0.093645
0.058891     0.18979    -0.11261    0.099167     -1.2787   -0.048945    0.096569
0.055968     0.15309     0.11963     0.11118     -1.2611   -0.045697    0.095919
0.049796     0.11054      0.3314      0.1245     -1.1237   -0.051868    0.090397
0.047847    0.070909     0.45191     0.13814    -0.90286   -0.060963    0.080003
0.048172    0.042651     0.46165     0.15179    -0.64886   -0.064536    0.071234
0.049472    0.025761     0.39182     0.16738    -0.40656   -0.055441    0.067661
0.048497    0.017316     0.29373     0.17939    -0.19966   -0.040825    0.067986
0.044924    0.014392     0.22162     0.18167   -0.034654   -0.030431    0.072208
0.040052    0.012119     0.21317     0.17225    0.088773   -0.029782    0.076431
0.03583    0.003024      0.2515     0.15471     0.17355    -0.03238    0.076106
0.031282   -0.019063     0.27132     0.13652     0.22259   -0.027833    0.070259
0.023162   -0.048945     0.22357     0.12093      0.2528   -0.012242    0.057592
0.011794   -0.079152     0.10761     0.11183     0.28658    0.014068    0.045249
-0.00022403    -0.09929   -0.039201     0.10761      0.3418      0.0433    0.037129
-0.0060706    -0.10384     -0.1714     0.10599     0.41618     0.06831    0.032582
-0.0067202   -0.094093    -0.25292     0.10177     0.49868    0.084551    0.030633
-0.0011985    -0.07493    -0.26981    0.093321     0.58086    0.090722    0.028684
0.010495   -0.054792    -0.22337    0.080328     0.65816    0.087799    0.024461
0.023487   -0.042124     -0.1334     0.06084     0.72637    0.077405    0.020564
0.03518   -0.037252    -0.04115    0.039078     0.77964    0.065387    0.016341
0.042975   -0.038551   -0.021986    0.015692     0.80432    0.061814     0.01017
0.046548   -0.043423    -0.15029  -0.0083442     0.78906    0.068635  -0.0024977
0.042975   -0.048296     -0.4124   -0.031081     0.73871    0.081303   -0.018738
0.03518   -0.053492    -0.69726   -0.050244     0.66855    0.091696   -0.031081
0.023162   -0.058365    -0.87071   -0.067459     0.60197    0.097543   -0.037902
0.014717   -0.059989    -0.85739   -0.081426     0.55617    0.098517   -0.039201
0.010495   -0.055441     -0.6729   -0.090196     0.54058    0.097543   -0.036602
0.011794   -0.044398    -0.39519   -0.089546     0.53506    0.096893   -0.031081
0.018615   -0.028482    -0.11488   -0.075255     0.47919    0.097543   -0.022961
0.029009   -0.011267     0.10274   -0.051544       0.334    0.098193   -0.012567
0.039402   0.0043233     0.23104   -0.026858      0.1271    0.095594 -0.00087364
0.044924    0.013743     0.28008  -0.0060706   -0.067459    0.086824   0.0069217
0.039727    0.014717     0.28008    0.008221    -0.17692    0.074157   0.0075714
0.02641     0.01017      0.2593    0.015042    -0.16912     0.06084   0.0052977
0.0075714    0.003024     0.23948    0.019914   -0.064536    0.054019   0.0020496
-0.013541 -0.00054884     0.22454    0.026085    0.090397     0.05142  0.00042559
-0.03173  0.00010078     0.21188     0.03583     0.24111    0.044599 -0.00022403
-0.040825   0.0039985     0.19239    0.046223      0.3418    0.030957 -0.00022403
-0.039526    0.008221     0.15309    0.055318     0.37071    0.011144  -0.0021729
-0.031406   0.0095202      0.0852    0.058891     0.33043   -0.011917  -0.0044465
-0.023935   0.0052977  -0.0073698    0.056617     0.24793   -0.031081  -0.0073698
-0.020037   -0.008669    -0.10838    0.051096     0.15536   -0.041799   -0.008669
-0.016789   -0.029782    -0.20875    0.042001    0.073507   -0.041799  -0.0067202
-0.012242   -0.055441    -0.31269    0.030633    0.013743   -0.032055  -0.0037969
-0.0060706   -0.078827    -0.40331    0.015367   -0.027508    -0.01484  -0.0031473
-0.0037969   -0.094743    -0.43644  -0.0024977   -0.063886   0.0062721  -0.0067202
-0.0093186   -0.096367    -0.37992   -0.018738    -0.11066    0.030308   -0.012892
-0.015165   -0.078827    -0.24383   -0.028157    -0.17237    0.053694   -0.019063
-0.017439   -0.045372    -0.07493   -0.027508    -0.24513    0.070584   -0.020037
-0.013866  -0.0063954    0.063763   -0.018088    -0.32308     0.07773   -0.014516
-0.010293    0.025111       0.131  -0.0054209    -0.39844    0.076431  -0.0054209
-0.007045    0.041351      0.1271   0.0049729     -0.4634    0.072858  0.00075039
-0.0028225    0.041351    0.087149   0.0075714    -0.51472    0.069285  0.00010078
0.0014    0.031282    0.047523   0.0039985    -0.54558     0.06831  -0.0073698
0.0046481    0.022837    0.034855   0.0026992    -0.54655     0.06961   -0.017114
0.008221     0.01894    0.051096   0.0069217    -0.50952    0.071234   -0.024585
0.009845    0.016341    0.088124    0.017316    -0.42929    0.075781   -0.028807
0.012443    0.014068      0.1284    0.032582    -0.31366    0.082602   -0.030756
0.013418   0.0091954     0.15406    0.047523     -0.1714    0.082927   -0.030106
0.010819  0.00010078     0.15081     0.05272   -0.021661    0.065062   -0.032705
0.0036737   -0.013541     0.11736    0.045249     0.11443    0.028359   -0.038551
-0.0089938   -0.028157    0.058241    0.026085     0.22487   -0.020037   -0.047971
-0.021986   -0.036927   -0.013866 -0.00054884     0.31939   -0.073955   -0.056741
-0.034978   -0.036278   -0.081751   -0.028482     0.41975    -0.12235   -0.068109
-0.046671   -0.026858    -0.13047   -0.050569     0.53441    -0.15938   -0.079152
-0.057065  -0.0041217    -0.14996   -0.063237     0.65816    -0.18342   -0.090196
-0.063886    0.039402    -0.13632   -0.065835     0.77184    -0.19056   -0.098641
-0.062587     0.10209   -0.096042   -0.061937      0.8498    -0.17952    -0.09994
-0.050894     0.17192   -0.037577   -0.056091     0.85889    -0.15418   -0.091495
-0.034004     0.23851    0.027385   -0.048296     0.78289    -0.12008   -0.081101
-0.016464     0.29665    0.085525   -0.041799     0.63867   -0.086948   -0.072331
-0.0044465     0.34017     0.13197   -0.037252      0.4584   -0.057715   -0.060313
-0.0024977     0.36356     0.16705   -0.036927     0.28236   -0.032055   -0.047971
-0.0067202     0.36421     0.20051   -0.039851     0.13522   -0.012242   -0.039201
-0.011592     0.34472     0.24468   -0.044398    0.029983   0.0026992   -0.037252
-0.010293     0.31094     0.30964   -0.047646   -0.032055    0.013743   -0.037577
-0.0034721     0.27099     0.39344    -0.04862   -0.060638    0.025436   -0.034654
0.0056225     0.22617     0.48114   -0.044723   -0.068434    0.039078   -0.029782
0.01017     0.17712     0.55617   -0.036602   -0.069733     0.05207   -0.022311
0.0059473     0.12125     0.61139   -0.027833   -0.073631     0.06084   -0.011267
-0.0031473    0.050446     0.63965   -0.022636   -0.088572    0.061165  0.00042559
-0.010943   -0.050244     0.63055   -0.019388    -0.11748    0.056292   0.0091954
-0.012242    -0.19771     0.57176   -0.022636    -0.16198    0.046548    0.013418
-0.012242    -0.39487     0.46003   -0.028807    -0.21752    0.036804    0.016991
-0.011267    -0.61411     0.31386   -0.034654    -0.28021    0.031607    0.023812
-0.011267    -0.80022     0.17192   -0.037252    -0.34614    0.031932     0.03518
-0.0096434    -0.90092    0.070909   -0.031081    -0.42572    0.036804    0.050121
-0.0047713    -0.89767    0.024786   -0.014191    -0.53193    0.037778    0.065062
0.00075039    -0.80607    0.030308   0.0059473    -0.65666    0.030633    0.075456
0.0072465    -0.65536    0.062464    0.021863    -0.77099    0.020239    0.078704
0.015042    -0.48126     0.06961    0.030308    -0.84277   0.0095202    0.072208
0.023812    -0.31204   0.0010752    0.032582    -0.85577  -0.0034721    0.063763
0.032906    -0.16555    -0.14801    0.032906    -0.80899   -0.020687    0.060515
0.044599   -0.046671     -0.3312    0.033231    -0.70668   -0.046022    0.064088
0.056942    0.047198    -0.47737    0.036154    -0.55435   -0.081101     0.06961
0.069285     0.11995    -0.54005     0.04395    -0.35654    -0.11651    0.069285
0.077405     0.17355    -0.51862    0.055968    -0.13112    -0.14671    0.061814
0.076755     0.21058    -0.44651    0.064737    0.093645    -0.16263     0.05142
0.065712     0.23071    -0.35979    0.067986     0.27554    -0.16003    0.041351
0.053369     0.23818    -0.28346    0.066686      0.3824    -0.14476    0.034206
0.046548     0.23916    -0.22044    0.063438     0.40708     -0.1256    0.030308
0.046873     0.24176    -0.16425    0.058891     0.36486    -0.10903    0.028359
0.052395     0.24858    -0.10611    0.054019     0.28106   -0.095068    0.024786
0.054019     0.25995    -0.03173     0.05142     0.18004     -0.0824    0.021213
0.048822     0.26579    0.065387    0.053044    0.089098   -0.073631    0.017316
0.037129     0.26157     0.19336    0.055968    0.023812   -0.067134    0.013093
0.020239     0.23851     0.34927    0.058566   -0.013866   -0.061288   0.0056225
-0.00087364     0.19271      0.5146    0.057917   -0.034978   -0.057715  -0.0028225
-0.020362     0.13035     0.66596     0.05142   -0.050569   -0.054142  -0.0099683
-0.030106    0.064737     0.77542    0.039402   -0.067134   -0.045047   -0.010943
-0.029457    0.017316      0.8066    0.022188    -0.09117   -0.029132  -0.0073698
-0.02361  -0.0034721     0.73904   0.0052977    -0.11618   -0.013216  -0.0037969
-0.018088   0.0033489     0.58313   -0.011592    -0.13859  -0.0050961  -0.0015233
-0.016464    0.026735     0.37071   -0.024909    -0.15353   -0.010943   0.0010752
-0.017114    0.053694     0.13977   -0.033354    -0.15581   -0.021012    0.003024
-0.019388    0.074482   -0.075579    -0.03173    -0.14639   -0.025884   0.0046481
-0.021337    0.083576    -0.24545   -0.022311    -0.12463   -0.018738   0.0046481
-0.020362    0.083576    -0.36206  -0.0096434   -0.089221  -0.0041217   0.0033489
-0.01614    0.078055    -0.44489  0.00075039   -0.044398    0.015367   0.0026992
-0.010618    0.067661    -0.53291   0.0056225   0.0039985    0.033881 -0.00022403
-0.0034721    0.057267    -0.64269   0.0059473     0.05142    0.045899  -0.0034721
0.0043233     0.05207    -0.74403   0.0036737    0.092996    0.051745  -0.0047713
0.012768    0.054993    -0.78626   0.0026992      0.1232    0.055968  -0.0015233
0.01764    0.066686    -0.73494   0.0046481     0.14139    0.060515   0.0046481
0.015367    0.081627    -0.60437   0.0078962     0.16088    0.062789     0.01017
0.0049729    0.095919    -0.44326    0.011469     0.18946    0.063438    0.012443
-0.010293     0.10306    -0.30424    0.015692     0.23559    0.065387    0.011794
-0.025884     0.10696     -0.2146    0.019914     0.31841    0.067661   0.0095202
-0.040825     0.11216    -0.17205    0.019589     0.45808    0.070909   0.0059473
-0.053492      0.1271    -0.15646    0.016016     0.63802    0.072858  -0.0011985
-0.061288     0.15016    -0.14671    0.013743     0.80432    0.071883  -0.0096434
-0.061288     0.17387     -0.1321    0.015042     0.89137    0.071234   -0.018088
-0.053492     0.18394    -0.12073    0.019264     0.85987    0.072533   -0.021661
-0.042774      0.1716    -0.11975    0.020888     0.72345    0.074806   -0.021012
-0.031406     0.13879   -0.095393    0.013743     0.51297     0.07708   -0.019063
-0.022961    0.096893   0.0091954  -0.0063954     0.22877    0.073832   -0.021012
-0.021337    0.058566     0.20116   -0.033679    -0.17237    0.053044   -0.026533
-0.023935    0.029009     0.42885   -0.055441    -0.70571    0.010495   -0.034654
-0.025234   0.0075714     0.61399    -0.06616     -1.3008   -0.043423   -0.042124
-0.02361  -0.0076946     0.69974   -0.064536     -1.8143   -0.092469   -0.045047
-0.022311    -0.01614     0.67505   -0.053492     -2.0848    -0.12203   -0.042449
-0.028157   -0.017764     0.56494   -0.039851     -2.0186     -0.1256   -0.036927
-0.043099   -0.014516     0.41033   -0.032705     -1.6366    -0.10709   -0.030756
-0.061288   -0.007045     0.25215   -0.035628     -1.0516   -0.077203   -0.023935
-0.073306   0.0010752     0.11768   -0.051219    -0.40493   -0.046996   -0.011917
-0.069408   0.0075714     0.01894   -0.075579     0.17127   -0.022961   0.0017248
-0.052193    0.009845   -0.044398   -0.096042     0.58118 -0.00054884    0.013418
-0.031406   0.0065969   -0.080127    -0.10124     0.79555     0.01829    0.017965
-0.013216      0.0014   -0.096042   -0.090521     0.83551    0.033231    0.016666
0.00075039  0.00075039    -0.10254   -0.070382     0.75398    0.039727    0.016016
0.010819   0.0069217    -0.11001   -0.048296     0.60619    0.034855    0.019589
0.01764    0.017965    -0.11975   -0.030106     0.43762    0.019264    0.025761
0.020564    0.029009    -0.13437   -0.017764     0.27359  -0.0050961    0.032906
0.019264    0.031932    -0.15256  -0.0099683     0.12353    -0.03238    0.038753
0.015367     0.02641    -0.16653 -0.00054884   -0.017764   -0.055441    0.039078
0.014068    0.015692    -0.17237    0.009845    -0.15808   -0.069083    0.038103
0.01764   0.0065969    -0.16653    0.018615    -0.29125   -0.070382    0.041351
0.027709 -0.00054884    -0.15386    0.024137    -0.40623   -0.064211    0.049796
0.038103  -0.0044465    -0.14216    0.029009    -0.49068   -0.058365    0.057592
0.042651  -0.0041217    -0.13469    0.033556    -0.53291   -0.062912    0.059541
0.041351      0.0014    -0.13307    0.041676    -0.53908   -0.079152    0.053369
0.037778    0.011144     -0.1308    0.057592    -0.52901    -0.10481    0.044599
0.03453    0.019914    -0.12268    0.080328    -0.52446    -0.13729    0.040702
0.029983    0.025436    -0.10709     0.10144    -0.52414    -0.17692    0.041676
0.023812    0.026735   -0.089221     0.11216    -0.49556    -0.21785    0.048822
0.019264    0.024461   -0.075579     0.11021    -0.40039    -0.24708    0.057917
0.022837    0.020239   -0.070707    0.099167    -0.23181    -0.25357    0.062139
0.030308    0.016341   -0.078503    0.084551   -0.014516    -0.23441    0.058241
0.040377    0.011469   -0.096692    0.072208     0.20246    -0.19219     0.05207
0.048822   0.0039985     -0.1204    0.064737     0.38078    -0.13924    0.047523
0.055318  -0.0060706    -0.14216    0.065062      0.5055   -0.086948    0.045899
0.062139   -0.017114    -0.15678    0.069934     0.58183    -0.04115    0.044599
0.065712   -0.026533      -0.161    0.076431     0.60911  -0.0054209    0.040702
0.067336   -0.032705    -0.16003    0.082277     0.56104    0.016341    0.033556
0.064413   -0.033354    -0.15516    0.083251     0.41813    0.025111    0.027709
0.057267   -0.034004    -0.15353    0.078379     0.19856    0.022837    0.025761
0.050121   -0.037577    -0.15873    0.067986   -0.030431    0.017965    0.027385
0.044924    -0.04115      -0.161    0.058566    -0.19803    0.019264    0.029009
0.038428    -0.04115    -0.14801     0.05272    -0.26624    0.028684    0.028034
0.031282   -0.034329    -0.11196    0.048497    -0.24091    0.043625    0.023812
0.024461   -0.022961   -0.051868    0.039727    -0.15841    0.062789    0.017965
0.016341  -0.0093186     0.01829    0.026085   -0.067784      0.0852    0.011469
0.0026992 -0.00054884    0.086824   0.0085458  -0.0080194     0.10729   0.0052977
-0.015165   0.0010752     0.13977  -0.0089938   0.0056225      0.1232 -0.00022403
-0.035303 -0.00087364     0.16218   -0.025559   -0.013541     0.13197  -0.0093186
-0.04862  -0.0011985     0.14529   -0.034978   -0.038551      0.1323   -0.020362
-0.051544 -0.00054884    0.092346   -0.034329   -0.050894     0.12418   -0.026858
-0.045047   0.0017248    0.011794   -0.019388   -0.034329     0.11054   -0.027508
-0.035953   0.0065969   -0.072331   0.0026992    0.019264    0.097543   -0.022961
-0.026533    0.011469    -0.13892    0.020888     0.10501    0.093321   -0.016464
-0.019063    0.013743    -0.18342    0.027385     0.20863    0.096569   -0.010618
-0.01614    0.008221    -0.22304    0.020564     0.30997     0.10371  -0.0080194
-0.01549  -0.0073698    -0.28378  0.00075039     0.39864     0.10859   -0.010618
-0.016789   -0.028482    -0.36076   -0.025234     0.47464     0.11118    -0.01549
-0.014191   -0.047321    -0.41208   -0.046996     0.54383     0.10989   -0.022961
-0.0080194   -0.056416    -0.39422   -0.055766     0.60717     0.10729   -0.029457
-0.0028225   -0.051544     -0.2867   -0.052193     0.65524     0.10079   -0.030106
-0.0063954   -0.040175    -0.10449    -0.04115     0.67538      0.0852   -0.024585
-0.020362   -0.032055     0.12158   -0.027508     0.66563    0.057917   -0.017114
-0.039851   -0.035303     0.35089   -0.017114     0.63477    0.026735   -0.011917
-0.05739   -0.050569     0.52856  -0.0099683     0.59352   0.0017248   -0.013216
-0.069083   -0.069733     0.61626  -0.0093186      0.5461   -0.008669   -0.021661
-0.074605   -0.087272     0.60847    -0.01614     0.49186  -0.0073698   -0.033679
-0.074605   -0.095068     0.52856   -0.024585     0.43047  0.00075039   -0.043423
-0.071357   -0.088247     0.41878   -0.030756     0.36356    0.012768   -0.047321
-0.065835   -0.067784     0.32491   -0.030756      0.3025    0.022188   -0.047646
-0.056091   -0.036278     0.27294   -0.021337     0.26027    0.026085   -0.043423
-0.043099   0.0023744     0.26092  -0.0073698     0.23656    0.018615   -0.034329
-0.029132    0.038428     0.26449    0.011794     0.22162   0.0023744    -0.02361
-0.01614    0.062464     0.26255    0.031932     0.20246   -0.017764   -0.014516
-0.0099683    0.067336     0.24825    0.047198      0.1625   -0.036278  -0.0063954
-0.008669    0.054668     0.22941    0.053044    0.097868    -0.04992  0.00042559
-0.0063954    0.032582      0.2187    0.050771    0.024137    -0.05804   0.0049729
-0.00022403   0.0078962     0.23883    0.045899   -0.044073    -0.05804   0.0085458
0.01017   -0.017114     0.29373     0.04395   -0.094418   -0.048296    0.012119
0.021213   -0.042774      0.3366    0.045249    -0.11813   -0.030756    0.017316
0.030633    -0.06681     0.31224    0.044275    -0.11651  -0.0099683    0.021538
0.037129   -0.085648     0.20635    0.040052   -0.096692    0.012119    0.024461
0.041027   -0.095393    0.045249    0.033881   -0.067459    0.031607    0.027709
0.0433   -0.093119    -0.12235     0.02706   -0.035953    0.045899    0.036154
0.048172   -0.081426    -0.25422    0.022188   -0.015165    0.054344    0.047523
0.06019   -0.063237    -0.32243    0.017965   -0.010943    0.059541    0.057592
0.076106   -0.046022    -0.31983    0.015367   -0.021012    0.064413    0.063763
0.091047   -0.031406     -0.2435    0.019589   -0.038227    0.066362    0.062464
0.096893   -0.018738    -0.10286    0.033881   -0.057065    0.066686    0.059216
0.089098  -0.0089938    0.076755    0.049796   -0.074605    0.064413    0.055643
0.069934  -0.0034721     0.25995    0.059541   -0.089546    0.061489    0.050121
0.045574  -0.0028225     0.41585    0.060515    -0.10481    0.058241    0.041027
0.026735  -0.0047713     0.51979     0.05142    -0.12657    0.056942     0.02706
0.01894   -0.008669        0.55    0.042001    -0.15548    0.055968    0.011469
0.021213   -0.013216     0.47075    0.034206    -0.18407    0.049472  -0.0031473
0.023812   -0.019712     0.22812    0.028359    -0.20128    0.038428   -0.013541
0.01894   -0.029132    -0.17107    0.021538    -0.20193    0.023487   -0.017114
0.011794   -0.038551    -0.62093    0.013418    -0.18991   0.0026992   -0.011917
0.0026992   -0.045697    -0.96815   0.0049729    -0.17952   -0.023285  -0.0028225
-0.0080194   -0.051868     -1.1029  -0.0031473    -0.18374   -0.059989   0.0023744
-0.019063   -0.055116     -1.0182   -0.015165    -0.19543    -0.10611  -0.0028225
-0.029782   -0.055766    -0.80997   -0.030431    -0.19219    -0.15418    -0.01614
-0.034978   -0.056741    -0.61573   -0.046022    -0.14931    -0.19446   -0.034654
-0.033679   -0.058689    -0.51309   -0.059664   -0.061937    -0.21882   -0.054467
-0.02426   -0.057715    -0.47184   -0.070058    0.049147    -0.22597   -0.069733
-0.011592   -0.046671    -0.41923    -0.07493     0.14496    -0.21979    -0.07428
0.0056225   -0.025559    -0.30489   -0.070382     0.19011     -0.2042   -0.067459
0.022837  0.00042559    -0.14054   -0.057065     0.17582    -0.18601   -0.051868
0.033881    0.023812    0.026085   -0.036278     0.11281    -0.16782   -0.034978
0.038753    0.039727     0.15016   -0.008669    0.026735    -0.14736   -0.021337
0.040702    0.046873     0.21188    0.021863   -0.062262    -0.12755   -0.012242
0.040702    0.048822     0.21382    0.048497    -0.13957    -0.10644  -0.0083442
0.037778    0.049147      0.1768    0.065062    -0.19771    -0.08305  -0.0073698
0.02706    0.048822     0.12775    0.073182    -0.23668   -0.060963  -0.0063954
0.01017    0.048497    0.087799    0.074482    -0.26462   -0.042124  -0.0050961
-0.0044465    0.049796    0.071558    0.070259    -0.29807   -0.026533  -0.0015233
-0.012242    0.051745    0.074806    0.058891    -0.34809   -0.011592   0.0033489
-0.011267    0.052395    0.087149    0.042651     -0.4163   0.0046481   0.0065969
-0.0057458    0.050446    0.096569    0.027385    -0.49296    0.026735   0.0069217
0.0026992    0.046223    0.098842     0.01764    -0.56312    0.053044   0.0075714
0.0095202    0.042975    0.096244    0.015367    -0.61379    0.081303    0.011794
0.012119    0.040377    0.092996     0.01764    -0.63457     0.10436    0.018615
0.013093    0.039078    0.091372    0.021863    -0.61963     0.11703     0.02706
0.012119    0.036479    0.091047    0.029009    -0.56896     0.11703    0.036804
0.0085458    0.036154    0.090722    0.030308    -0.47217     0.10501    0.041351
0.0020496    0.036804    0.087474    0.022837    -0.31204    0.081303    0.037778
-0.0076946    0.036154    0.078379   0.0052977   -0.088572    0.050121    0.027709
-0.01614    0.033556     0.06961    -0.01484       0.169    0.019589    0.015692
-0.019063    0.030633    0.067661   -0.033679     0.41293  -0.0054209    0.008221
-0.015815    0.027385    0.069285   -0.050244     0.60099   -0.026533   0.0046481
-0.0073698    0.022188    0.071234   -0.062912     0.71728   -0.044723   0.0020496
-0.00054884    0.019264    0.069285    -0.06551     0.75983   -0.060313 -0.00022403
0.003024    0.020239    0.067336   -0.059664     0.73936   -0.074605  -0.0024977
0.003024    0.022837    0.065387   -0.050894     0.66726   -0.089221  -0.0054209
0.0043233    0.025436    0.063438   -0.045697     0.55065    -0.10806  -0.0067202
0.0085458    0.024786     0.06019   -0.042449     0.39767    -0.12917  -0.0060706
0.015367    0.023487    0.056942   -0.036278     0.22454    -0.14541   -0.007045
0.022837    0.023162     0.06019   -0.025884    0.050771    -0.15191   -0.011592
0.030957    0.022188    0.067011  -0.0093186    -0.10156    -0.14964   -0.020037
0.033231    0.016991    0.062139   0.0049729     -0.2133    -0.13989   -0.028807
0.028684    0.011794    0.027385   0.0091954    -0.28216    -0.12755   -0.030756
0.021213   0.0078962   -0.045697    0.003024    -0.31139    -0.11748   -0.027833
0.016016   0.0020496    -0.14379  -0.0063954    -0.31659    -0.10968   -0.021661
0.012768  -0.0080194    -0.23733  -0.0073698    -0.32243   -0.097341   -0.011267
0.011794    -0.01614      -0.301   0.0026992    -0.34614   -0.072006   0.0052977
0.0085458   -0.017764    -0.32113    0.022188    -0.39162   -0.033679    0.026085
0.0046481   -0.012242    -0.30067    0.042326     -0.4543   0.0095202    0.045574
0.0026992  -0.0015233    -0.25585    0.057917    -0.51309    0.050121     0.06084
0.0026992   0.0056225    -0.19803    0.063438    -0.54525    0.082602    0.064737
0.003024    0.008221    -0.13859    0.058566    -0.53291     0.10144    0.054019
-0.0015233   0.0072465   -0.080127    0.048172    -0.47574     0.10306    0.032257
-0.010943   0.0052977   -0.019063    0.032906    -0.38674    0.093321   0.0043233
-0.022636   0.0056225    0.050771    0.014068      -0.288    0.082602   -0.021661
-0.033679   0.0069217     0.13814  -0.0037969    -0.19511    0.075781   -0.039851
-0.041799   0.0072465     0.25085   -0.020037    -0.11943    0.074157    -0.04992
-0.046671   0.0072465      0.3798    -0.03303   -0.069408    0.076755   -0.051544
-0.047646    0.009845     0.49738   -0.041475   -0.041799      0.0865   -0.048945
-0.043748    0.021863     0.56981   -0.042449   -0.030106     0.10177   -0.044073
-0.036927    0.045249     0.57891   -0.036278    -0.02426     0.11931   -0.038227
-0.03238    0.072533     0.53441   -0.025884   -0.010943      0.1362    -0.03238
-0.029782    0.096244     0.46685   -0.013866    0.015042     0.15081   -0.026533
-0.026533     0.11346     0.40708  -0.0057458    0.053044     0.16315   -0.020037
-0.021661     0.11931     0.36876  -0.0031473     0.09397     0.16803   -0.014191
-0.018413     0.11313     0.34505  -0.0083442      0.1284     0.16315   -0.013541
-0.019063    0.099167     0.31711   -0.017114     0.15568     0.14724   -0.018413
-0.021337    0.078704     0.26709   -0.024585      0.1781     0.12223   -0.025884
-0.023935    0.055643     0.18979   -0.030431     0.20018    0.090397   -0.030756
-0.024585    0.031932    0.097868   -0.034329     0.22617    0.054993   -0.031406
-0.021012    0.013418   0.0085458   -0.034978     0.24566    0.019264   -0.029782
-0.015165   0.0091954   -0.059989    -0.03303     0.24241   -0.010618   -0.025884
-0.0099683    0.026735   -0.097666   -0.025559     0.20798   -0.034654   -0.020362
-0.0080194    0.062464    -0.10871   -0.010618     0.15211   -0.054142   -0.017114
-0.0060706     0.10242    -0.10319   0.0095202    0.093321    -0.06616   -0.016464
-0.0024977     0.13262   -0.089221    0.031607    0.053694   -0.067784   -0.014516
0.00042559     0.14269   -0.072331     0.05272    0.048497    -0.06616  -0.0080194
0.0017248     0.12872   -0.064861    0.066362    0.081627    -0.06681    0.003024
-0.0018481    0.094945    -0.08305    0.069285     0.15341   -0.067784    0.013093
-0.0089938    0.050446    -0.13015    0.061814     0.25053   -0.067459    0.017316
-0.018738   0.0075714    -0.18601    0.052395     0.34537   -0.064861    0.015042
-0.02426   -0.022961    -0.22434    0.049147     0.40773   -0.058365    0.008221
-0.02426   -0.038227    -0.23051    0.058891     0.41196   -0.051868 -0.00054884
-0.018413   -0.041799     -0.2055    0.075781     0.34927   -0.042124  -0.0099683
-0.011267   -0.039526     -0.1675    0.086824     0.22844   -0.025884   -0.015815
-0.0047713   -0.035953    -0.13404      0.0852    0.063763  -0.0034721   -0.012567
0.0026992    -0.03303    -0.10903    0.070259    -0.13242    0.019264 -0.00054884
0.011794   -0.030756   -0.087922    0.047198    -0.34614    0.039402    0.018615
0.019264   -0.029782    -0.06681    0.022188    -0.54817    0.053694    0.037129
0.018615   -0.027833   -0.045697   0.0020496    -0.69076    0.058891    0.048172
0.011794    -0.02361   -0.026858  -0.0063954    -0.73851    0.054993    0.044599
0.0020496   -0.021986    -0.01549  -0.0015233    -0.68492    0.045249    0.033881
-0.0073698   -0.023285   -0.011917     0.01017    -0.56019    0.033881    0.025436
-0.012242   -0.022636    -0.01484    0.020564    -0.40818    0.026735    0.022837
-0.010943   -0.020687   -0.020362    0.028359    -0.26657    0.024786    0.023812
-0.0034721   -0.020037   -0.030756    0.032257    -0.15711    0.025761    0.027709
0.0091954   -0.020687   -0.039851    0.031282     -0.0837    0.026085    0.034206
0.024461   -0.022636    -0.04927    0.025436   -0.038876    0.022837      0.0433
0.036804   -0.026533   -0.057065    0.019264   -0.026533    0.013743    0.050771
0.040702   -0.029782   -0.062262    0.016666   -0.055766  -0.0018481    0.055968
0.03583   -0.030106   -0.067784    0.016666    -0.14087   -0.028482    0.054019
0.028684   -0.028482   -0.074605     0.01764    -0.27241   -0.064211    0.047198
0.01894   -0.026209     -0.0837    0.017965    -0.42052    -0.10254     0.03518
0.0095202    -0.02361   -0.098965    0.016666     -0.5459    -0.13502    0.022188
0.00010078   -0.018738     -0.1217    0.013093    -0.61703    -0.15191    0.014392
-0.007045   -0.013216    -0.14574   0.0072465     -0.6232    -0.14736    0.015692
-0.012892   -0.008669    -0.16393   0.0010752    -0.56669    -0.12657    0.023487
-0.018088  -0.0073698    -0.17107  -0.0057458    -0.45983   -0.096692    0.034206
-0.020037  -0.0083442    -0.16782  -0.0083442    -0.32276   -0.068434    0.040052
-0.016789  -0.0076946    -0.15678  -0.0034721    -0.18666   -0.043423     0.03518
-0.010618  -0.0047713    -0.14022   0.0036737   -0.074605   -0.024585    0.025436
-0.0076946 -0.00054884    -0.11813   0.0069217   0.0036737   -0.016464    0.017316
-0.008669   0.0033489   -0.093444   0.0062721    0.052395   -0.022961    0.014068
-0.011267   0.0062721   -0.072981   0.0049729    0.089098   -0.040175    0.014392
-0.0099683    0.009845   -0.055116   0.0043233     0.14172   -0.057715    0.020564
-0.0054209    0.014068   -0.036602  0.00010078     0.23364   -0.066485    0.028034
-0.00022403    0.017316   -0.010618   -0.010943     0.36616    -0.06551    0.030633
0.0010752    0.016016    0.022512   -0.028157     0.51395   -0.058365    0.026735
-0.0018481   0.0069217    0.055643   -0.044073     0.63315   -0.051868    0.016341
-0.0083442   -0.008669    0.080978   -0.052843     0.69227   -0.046671   0.0046481
-0.018088   -0.026533     0.10047   -0.047321      0.6835   -0.038876  -0.0034721
-0.026209   -0.036602     0.11638   -0.029132     0.61366   -0.022636 -0.00054884
-0.03173   -0.033354      0.1323  -0.0041217     0.50713  0.00010078    0.013093
-0.034004   -0.021337     0.14561    0.017965     0.39377    0.022837    0.029333
-0.033679  -0.0076946     0.14496    0.029333     0.30055    0.035505    0.039078
-0.030106   0.0010752     0.12418    0.031607     0.24403    0.038103    0.042001
-0.022311   0.0049729    0.090072    0.033881     0.22682    0.036479    0.037129
-0.010618   0.0059473    0.057592    0.042651     0.24208    0.037454    0.028359
-0.0015233   0.0059473    0.040377    0.060515     0.27976    0.041676    0.017316
0.003024   0.0043233    0.042001    0.079029     0.33205    0.042651   0.0036737
0.0059473  -0.0015233    0.047523    0.088124     0.38987    0.040377  -0.0096434
0.0072465  -0.0073698     0.03583    0.088773     0.44996    0.034855    -0.01484
0.0095202  -0.0096434  -0.0028225    0.081627     0.49901    0.029009   -0.010293
0.015367  -0.0067202   -0.061937    0.071558     0.49511    0.021213 -0.00022403
0.025436  -0.0021729    -0.12852    0.059216     0.37071   0.0056225    0.009845
0.037454  0.00042559    -0.18829    0.045574     0.10761   -0.015165    0.014068
0.047523  -0.0011985    -0.23376    0.034206    -0.22142   -0.034978    0.012443
0.05272  -0.0041217    -0.26494    0.024786    -0.49198    -0.04927   0.0091954
0.053694  -0.0080194     -0.2867     0.01829    -0.58748   -0.055116   0.0062721
0.051096   -0.011917    -0.30749    0.015692    -0.46145    -0.05804   0.0020496
0.048822   -0.016789    -0.33478    0.015692     -0.1753   -0.057715  0.00042559
0.049796   -0.022636    -0.37115    0.011794     0.14756   -0.055116   0.0020496
0.053044    -0.02361    -0.41078  -0.0034721     0.39182   -0.056741   0.0078962
0.05207   -0.020362    -0.41858   -0.026533     0.49901   -0.062262    0.011144
0.041676   -0.014191     -0.3416   -0.050894     0.47237   -0.064861   0.0078962
0.022512   -0.011592    -0.16068   -0.067459     0.36356   -0.064211 -0.00022403
0.0072465   -0.015815    0.071558   -0.074605     0.23851   -0.062262  -0.0083442
0.0017248   -0.027508     0.27684   -0.075904     0.14496   -0.055116   -0.013866
0.0075714   -0.044398     0.39214   -0.072006     0.09397   -0.040825   -0.017114
0.01894   -0.062912     0.40351    -0.06551    0.067661   -0.022636   -0.018088
0.025111   -0.078178     0.34375   -0.053492    0.038103  -0.0057458   -0.016789
0.022837    -0.08305     0.25572   -0.032705  -0.0073698   0.0069217   -0.010293
0.015367   -0.072981     0.17355  -0.0044465   -0.056416    0.013093 -0.00087364
0.0095202   -0.046347     0.11801    0.021863   -0.085973    0.016991   0.0065969
0.0078962  -0.0031473    0.091696    0.041027   -0.081426    0.019264   0.0095202
0.012443    0.048822     0.09462    0.047847   -0.045372    0.024461   0.0095202
0.021213    0.099492     0.13684    0.045574    0.010819    0.030633   0.0091954
0.02641      0.1362     0.24566    0.041676    0.080653    0.036479   0.0095202
0.024137     0.15049     0.43112    0.037454     0.16705    0.037778   0.0088706
0.015692     0.14367     0.65946    0.031932     0.27164    0.032906   0.0046481
0.0056225     0.12515     0.86019    0.028034      0.3889    0.022512 -0.00054884
-0.0021729     0.10664     0.96413    0.025761      0.5016    0.016016  -0.0024977
-0.0044465    0.097218     0.93652    0.023487     0.56721    0.015692  0.00042559
0.0023744    0.096244     0.79523    0.023162     0.53343    0.018615   0.0039985
0.015692    0.097218     0.58833    0.020239     0.38142    0.015042   0.0072465
0.030308     0.09397     0.36031    0.014717     0.15536   0.0039985    0.009845
0.041027    0.082927     0.14107   0.0059473   -0.064861   -0.010943    0.009845
0.046223    0.061814   -0.046347  -0.0054209    -0.21979   -0.027508   0.0017248
0.048822    0.028684    -0.18342   -0.014191    -0.29872   -0.043748   -0.010618
0.045899   -0.020037    -0.26267   -0.021337     -0.3312   -0.053817    -0.02426
0.039727   -0.084674    -0.28898   -0.030431    -0.35459   -0.057065   -0.036927
0.033556    -0.16328    -0.27176     -0.0405    -0.38674   -0.054467   -0.046996
0.029658    -0.24091    -0.22434   -0.048296    -0.42052   -0.043423   -0.053817
0.026085    -0.29125    -0.17302    -0.04992    -0.43774   -0.024909   -0.054142
0.021863    -0.29645    -0.16393   -0.047646    -0.42897  -0.0031473   -0.043748
0.016341    -0.25617    -0.23993   -0.043423    -0.40234     0.01764   -0.029782
0.0075714    -0.18666    -0.39292   -0.040825    -0.36596    0.031282   -0.019063
-0.0028225    -0.10871      -0.555   -0.037577    -0.31918    0.030633    -0.01614
-0.01484   -0.040175    -0.64757   -0.030106       -0.25    0.016666    -0.01484
-0.020362   0.0065969    -0.63555   -0.023285    -0.15353      0.0014   -0.013216
-0.019712     0.03453    -0.53258   -0.019388   -0.061288  -0.0083442   -0.011592
-0.016464    0.045249    -0.38772   -0.020362   -0.017114   -0.014191   -0.011592
-0.013216    0.046548    -0.25162   -0.029132   -0.041799   -0.018738   -0.015165
-0.0083442    0.042651    -0.15711   -0.043423    -0.10968   -0.024909   -0.018738
-0.0015233    0.039727    -0.11261   -0.058689    -0.14866   -0.034329    -0.02361
0.0049729    0.039727    -0.10806   -0.069408   -0.090521   -0.043099   -0.028482
0.0085458    0.042326    -0.12365   -0.073955    0.069934   -0.044398   -0.034004
0.0091954    0.045249    -0.13892   -0.072006     0.27716   -0.034004   -0.036278
0.0052977    0.047523    -0.14087   -0.061937     0.45061   -0.012892   -0.033679
-0.0041217    0.048497     -0.1282   -0.047646     0.53603    0.020564   -0.028807
-0.018738    0.050446    -0.11001   -0.030431     0.52207    0.062789   -0.025559
-0.036602    0.055318   -0.095068   -0.011917     0.43567     0.10306   -0.022961
-0.053492     0.06831    -0.09117    0.008221     0.31354     0.13425   -0.018738
-0.059664    0.087474    -0.10481    0.029009     0.18524     0.15373   -0.014191
-0.053817     0.10891    -0.13859    0.047198    0.064737     0.16445   -0.010618
-0.0405      0.1271    -0.18894    0.059865   -0.040175     0.16965  -0.0054209
-0.026858     0.14042    -0.24286    0.064413    -0.12722     0.16868   0.0039985
-0.014516     0.14561    -0.28768    0.060515    -0.19543     0.15861    0.016666
-0.0037969     0.14464    -0.31496    0.050121    -0.25162     0.13782     0.03583
0.0026992     0.14237    -0.31431    0.038428    -0.30847     0.11118    0.053369
0.0049729     0.14107    -0.28346    0.030957    -0.38415    0.080978    0.066686
0.0059473     0.13814    -0.22337    0.029983    -0.49003     0.05207    0.076106
0.0020496      0.1297    -0.13957    0.032582    -0.62483    0.021213    0.080003
-0.0063954     0.11866   -0.046022    0.036154    -0.75605   -0.020362    0.078704
-0.016464     0.10761    0.040377    0.034855    -0.80152   -0.076554     0.06896
-0.02361    0.092996     0.11346    0.025111    -0.69174    -0.13892    0.050121
-0.025884    0.069934      0.1768    0.009845    -0.43352    -0.19024    0.029983
-0.024585     0.03583     0.23786  -0.0060706    -0.11521     -0.2159     0.01894
-0.021012  -0.0031473     0.30347   -0.013866     0.14302    -0.21557    0.025436
-0.008669   -0.035303     0.36421   -0.010618      0.2528    -0.19738     0.04395
0.014068    -0.04927     0.39019   0.0072465     0.18492    -0.17594    0.067011
0.041027   -0.044073     0.35901    0.031282   -0.034004    -0.16035    0.086824
0.060515   -0.023935     0.28008    0.053694    -0.32795    -0.15223    0.099817
0.06961  0.00042559     0.18589    0.070584    -0.59982    -0.14379     0.10306
0.069285    0.021863     0.11866    0.083251    -0.76612    -0.12463    0.096244
0.061814    0.033556     0.11411    0.092996    -0.77749   -0.090845    0.082602
0.045574    0.032582     0.16088    0.094945    -0.64042   -0.045697    0.064413
0.023487    0.018615     0.19596    0.088448    -0.40266   0.0026992    0.047523
-0.00022403  -0.0093186     0.16088    0.073832    -0.12398    0.045574     0.03453
-0.017764   -0.041799    0.055968    0.050771     0.13555    0.082927    0.024137
-0.025559   -0.067459   -0.071682     0.02641     0.33075     0.11508    0.015692
-0.021337   -0.080776     -0.1597    0.010495     0.43859     0.14107    0.008221
-0.011592   -0.081426    -0.16718   0.0085458     0.46263     0.15958    0.003024
0.00010078   -0.076554   -0.097017    0.019589     0.41261     0.17095  -0.0024977
0.0078962   -0.069083    0.009845    0.032257     0.27749     0.17647   -0.008669
0.008221   -0.060313    0.099817    0.040702    0.061489     0.17647   -0.016789
0.00010078   -0.050244     0.13587    0.042651    -0.17205      0.1677   -0.026533
-0.014191   -0.039526     0.11346    0.036479    -0.34062     0.15179   -0.038227
-0.027833   -0.030106    0.054668    0.022512    -0.39779      0.1336   -0.051544
-0.038551    -0.02426  -0.0076946   0.0062721     -0.3429     0.12093    -0.06681
-0.047646    -0.02361     -0.0405   -0.010943    -0.21037     0.11736   -0.085324
-0.057065   -0.029132   -0.031081   -0.027508   -0.054142     0.11768    -0.10286
-0.06551   -0.034654   0.0095202   -0.042124    0.076755     0.11248    -0.11326
-0.073955   -0.037577     0.06831   -0.046996     0.15503     0.10047    -0.11391
-0.079802   -0.034329     0.13392   -0.037902     0.18037    0.082927    -0.10741
-0.078178   -0.021661     0.19693   -0.021012     0.16835    0.058566   -0.097341
-0.068109   0.0056225     0.25702   0.0020496     0.14529    0.030633   -0.085324
-0.055116    0.048822     0.31939    0.028034     0.13197  0.00075039   -0.072331
-0.042124    0.099167      0.3876    0.051096     0.12548   -0.026533   -0.061288
-0.034329     0.13977     0.45288    0.069285     0.11736   -0.047321   -0.052843
-0.03173     0.15536     0.49673    0.079029     0.10209   -0.059339   -0.046347
-0.031406     0.14432     0.49706    0.082277    0.081952   -0.061288   -0.035953
-0.028157     0.11183     0.43437    0.081627    0.064088   -0.057065   -0.020037
-0.019063    0.067661     0.30412    0.078379    0.057592   -0.054792  -0.0021729
-0.0057458     0.02641      0.1219    0.076755    0.065712   -0.054792    0.012119
0.0065969  -0.0057458   -0.075255    0.072533    0.083576   -0.056741     0.01894
0.013093   -0.028157    -0.24708    0.062464     0.10112   -0.056416     0.01764
0.010819   -0.044073    -0.37213    0.047198     0.11248    -0.05739    0.011469
0.0078962   -0.058689    -0.47055    0.028359     0.11476   -0.059339   0.0036737
0.0062721   -0.073955    -0.56052    0.011794     0.11054   -0.062912  -0.0021729
0.0075714   -0.086298     -0.6245 -0.00054884     0.10566   -0.069733  -0.0057458
0.008221   -0.088572    -0.62191   -0.007045     0.10274   -0.082725  -0.0041217
0.008221   -0.077853    -0.53193  -0.0080194     0.10436   -0.098641   0.0033489
0.0069217    -0.05739     -0.3744  -0.0044465     0.11021    -0.10676    0.015042
0.0062721   -0.034329    -0.19998   0.0039985     0.11573    -0.10221    0.026735
0.0059473   -0.015165   -0.059664    0.016016     0.11866   -0.085648    0.034855
0.0059473  -0.0011985    0.025761    0.027709     0.11736   -0.067134    0.037454
0.0075714   0.0052977    0.062139    0.031282     0.11313   -0.054142     0.03453
0.011794   0.0049729    0.066686     0.02641     0.10631   -0.047321    0.029983
0.015692   0.0033489    0.055643    0.020239    0.099167   -0.050244    0.022188
0.013743   0.0020496    0.040702    0.019589    0.094295   -0.060313    0.012768
0.0095202      0.0014    0.028034    0.021538    0.094945   -0.074605   0.0017248
0.0046481   0.0026992    0.020564    0.020239    0.095919   -0.089871  -0.0057458
0.0010752   0.0036737    0.015692    0.013418    0.089748    -0.10221  -0.0067202
-0.00022403   0.0043233    0.011144   0.0065969    0.079029    -0.10968  -0.0021729
-0.0031473   0.0020496   0.0072465   0.0056225    0.068635    -0.11066   0.0056225
-0.0067202 -0.00087364   0.0065969     0.01017    0.061814    -0.10546    0.012119
-0.0076946  -0.0041217   0.0078962    0.017965    0.061814   -0.097991    0.015692
-0.0034721  -0.0028225   0.0072465    0.025111    0.063113   -0.093119    0.017316
0.0033489   0.0023744   0.0043233    0.030957    0.064737   -0.090521    0.017316
0.010495   0.0056225  -0.0015233    0.032582    0.063113   -0.091495     0.01894
0.01894   0.0039985  -0.0089938    0.029009    0.055643   -0.092469    0.019589
0.029009  -0.0018481   -0.015815    0.023487    0.044599    -0.09117    0.016991
0.03583   -0.007045   -0.022311     0.01764    0.032582   -0.086948    0.014717
0.039078   -0.010618   -0.024909    0.014068    0.026085   -0.076879    0.016341
0.037778   -0.011917   -0.020037    0.013743    0.030308   -0.060963    0.021863
0.033881   -0.010293  -0.0063954    0.011794    0.046548   -0.043748    0.027385
0.025111  -0.0060706    0.012768   0.0085458    0.069285   -0.027508    0.031607
0.013093 -0.00022403    0.034206   0.0059473    0.086175   -0.017439    0.029983
0.0033489   0.0020496    0.055643   0.0033489    0.091047    -0.01484    0.023487
-0.0031473   0.0010752    0.074482  0.00010078    0.086824   -0.018738    0.013743
-0.0050961  -0.0018481    0.086824  -0.0034721     0.07708   -0.023285   0.0065969
-0.0037969  -0.0011985    0.089098   -0.008669    0.065712   -0.024585   0.0046481
-0.00022403  0.00010078    0.075456   -0.016789    0.048172   -0.021986   0.0075714
0.0069217   0.0046481    0.043625   -0.027833     0.01829   -0.021012    0.010495
0.013093    0.010495   0.0039985   -0.039851   -0.030756   -0.021661   0.0088706
0.015042    0.014068   -0.021012   -0.051544    -0.10189    -0.02361   0.0039985
0.01017    0.015042   -0.014191   -0.062912    -0.19089   -0.027183      0.0014
-0.00054884    0.016016    0.019589   -0.072981    -0.27923   -0.030431   0.0036737
-0.010618    0.018615    0.065712   -0.076229    -0.34842   -0.031081   0.0075714
-0.017114    0.020888    0.098842   -0.068758    -0.38317   -0.029457    0.011794
-0.017764    0.020239     0.10989   -0.053168    -0.37668   -0.028807    0.014068
-0.01549    0.015692     0.10891   -0.034654    -0.32828   -0.027508     0.01017
-0.013541    0.008221     0.11995   -0.017114    -0.24805   -0.027508   0.0056225
-0.010943   0.0039985     0.16023 -0.00087364    -0.15126   -0.026209   0.0078962
-0.0076946   0.0052977     0.22032    0.014392    -0.05739   -0.019712    0.015367
0.00010078    0.011794     0.28366    0.027385    0.020564  -0.0076946    0.022837
0.011144    0.020564     0.33108     0.03583    0.075781   0.0078962    0.025436
0.022837    0.025761     0.34505    0.038753     0.10924    0.023812    0.025111
0.029658    0.027385     0.32361    0.037129     0.12158    0.035505    0.023162
0.030633    0.026735     0.27229    0.033881     0.11995    0.039402    0.020564
0.029658    0.026735     0.19141    0.031932     0.11443    0.037778    0.019589
0.02706    0.028359    0.082277    0.032582     0.10859    0.033556    0.016666
0.024786    0.032906   -0.046022    0.034855     0.10209    0.034855    0.012443
0.025111    0.037778     -0.1636    0.037129    0.091372    0.043625   0.0075714
0.02706    0.039078    -0.24123    0.037129    0.076431    0.057267      0.0014
0.028034    0.034855    -0.27566    0.028359    0.057917    0.071558  -0.0034721
0.027385    0.022512    -0.30132    0.009845    0.037778     0.08585  -0.0063954
0.026735   0.0010752    -0.35037   -0.017764    0.015692    0.099492   -0.010943
0.023812   -0.021986    -0.40623   -0.050569  -0.0050961     0.10989   -0.017439
0.016666   -0.037902    -0.40818   -0.080127   -0.022636     0.11216   -0.024909
0.0036737   -0.040825    -0.30652    -0.10124   -0.039201     0.10664    -0.03173
-0.0073698   -0.031081    -0.10514    -0.11293   -0.058689    0.095269    -0.03238
-0.0093186   -0.013541     0.13165    -0.11748     -0.0824    0.081303   -0.026533
0.00075039   0.0075714     0.31419    -0.11391    -0.10838    0.066362   -0.018088
0.019914    0.023487     0.33952   -0.097666    -0.13469    0.050121  -0.0073698
0.037454    0.030308     0.15276   -0.073955      -0.161    0.032582   0.0039985
0.0433    0.025436    -0.18666   -0.054467    -0.18569    0.013093    0.013743
0.036154    0.011469    -0.52706    -0.04115     -0.2055  -0.0083442     0.01829
0.021863  -0.0047713     -0.7187   -0.027833    -0.21557   -0.028807    0.017965
0.0095202    -0.01549    -0.69401  -0.0060706    -0.20843   -0.047646    0.015692
0.0043233   -0.017764    -0.49166    0.021863    -0.18147   -0.061937    0.011794
0.0049729   -0.013866    -0.22012    0.048497    -0.14444   -0.071032   0.0095202
0.011144  -0.0093186    0.012768    0.063763    -0.10903    -0.07428   0.0065969
0.01829  -0.0083442     0.14756    0.063113   -0.085973   -0.072006 -0.00022403
0.022837  -0.0076946     0.18329    0.048822   -0.069408    -0.06616  -0.0093186
0.023812  -0.0031473     0.15568    0.031607   -0.034654   -0.063237   -0.017114
0.024461   0.0046481     0.10631     0.01764     0.03583    -0.06681   -0.018088
0.027709    0.012768    0.066686     0.01017     0.14172   -0.077203   -0.010618
0.033881    0.017965    0.049472   0.0075714     0.25313   -0.083375   0.0023744
0.038103    0.022512    0.051745    0.011469     0.33628   -0.074605    0.017316
0.037778    0.025436    0.064737    0.020239      0.3772   -0.047971    0.030308
0.029658    0.026735    0.076106    0.029658      0.3746  -0.0093186    0.039402
0.015692    0.024461    0.073507     0.03453     0.34115    0.032582    0.046223
0.003024    0.019264    0.049796    0.037454     0.29795     0.06961    0.049147
-0.0021729    0.010819   0.0062721    0.038428     0.27521    0.099492    0.046548
-0.0011985  -0.0011985   -0.056416    0.036479     0.31062      0.1206    0.038753
-0.0024977   -0.012892     -0.1295    0.030308     0.43892     0.12775     0.02706
-0.008669   -0.021012    -0.19933    0.020239     0.64679     0.11995    0.015367
-0.020362   -0.025559    -0.25357   0.0085458     0.88163    0.097543   0.0062721
-0.030106   -0.027183    -0.28443 -0.00087364      1.0937    0.067011  -0.0011985
-0.030431   -0.025234    -0.29158   -0.007045      1.2451     0.03453  -0.0083442
-0.022961   -0.019712    -0.28281   -0.011592      1.3084   0.0078962    -0.01484
-0.010618   -0.011917    -0.26754   -0.012242      1.2519   -0.010293   -0.016464
-0.00022403  -0.0044465    -0.24903   -0.008669      1.0242   -0.021337  -0.0099683
0.0033489   0.0010752    -0.19543  -0.0018481     0.59158   -0.031081  -0.0031473
-0.0015233   0.0020496   -0.053168   0.0056225  -0.0031473   -0.040825 -0.00087364
-0.014191  0.00042559     0.18687    0.008221     -0.6258   -0.044073  -0.0047713
-0.028482  -0.0063954     0.46717   0.0023744     -1.1078   -0.043748  -0.0099683
-0.037252   -0.018088     0.70656  -0.0089938     -1.3274   -0.040175    -0.01484
-0.039201   -0.033679     0.84038   -0.019712     -1.2569   -0.033679   -0.020687
-0.038551   -0.048945      0.8524   -0.025884    -0.96425    -0.02361   -0.027183
-0.037902   -0.057715     0.76632   -0.027508    -0.57091   -0.016464    -0.03173
-0.0405   -0.057065     0.63088   -0.032055    -0.19381   -0.019388   -0.034004
-0.043423   -0.045372     0.49965   -0.040175      0.0852    -0.03238   -0.030756
-0.041799   -0.020687     0.41163   -0.046996     0.23689   -0.050569   -0.021661
-0.035628    0.014068     0.37071   -0.050569     0.25443   -0.067784  -0.0096434
-0.023935    0.048497     0.35219   -0.046996     0.12872   -0.083375   0.0046481
-0.0089938    0.072533     0.31094   -0.036927    -0.14314    -0.10091    0.014392
0.003024    0.081952     0.21382   -0.023935    -0.52057    -0.12365    0.016016
0.010495    0.074806     0.06896  -0.0080194    -0.91456    -0.14834    0.011469
0.014068     0.05207   -0.082076   0.0065969     -1.2205    -0.16295   0.0065969
0.017316    0.021213    -0.19154    0.021213     -1.3621    -0.15581   0.0059473
0.016991  -0.0067202    -0.23409    0.038753     -1.3212     -0.1269    0.012119
0.014392   -0.020362     -0.2172    0.057267     -1.1338     -0.0824    0.025111
0.012119   -0.014516    -0.16718    0.071234    -0.87623   -0.032055    0.042651
0.009845    0.014068    -0.11228    0.074157    -0.62515    0.012443    0.059865
0.0091954    0.059541   -0.073306    0.070909      -0.428    0.043625    0.070259
0.011469     0.10924   -0.054792     0.06896    -0.29255    0.063113    0.072533
0.016991     0.14984   -0.051544    0.072858    -0.19803    0.073182    0.066686
0.019589     0.17192    -0.05804    0.081627    -0.12105    0.079354    0.056617
0.015042       0.169   -0.072006    0.084226   -0.042774    0.082927    0.046223
0.0056225     0.14399    -0.09929    0.081303    0.047847    0.082927    0.036154
-0.0047713     0.10599    -0.13989    0.075131     0.14561    0.083901    0.027709
-0.014516    0.065387    -0.18601    0.066686     0.23494    0.088124    0.023162
-0.021012    0.030633    -0.22369    0.054668     0.29892    0.094945    0.022837
-0.021986   0.0062721    -0.23896    0.039402     0.32166    0.096569     0.02641
-0.020362  -0.0067202    -0.23181    0.022512      0.2973    0.086175    0.029658
-0.01614   -0.014191    -0.21167   0.0052977     0.22649    0.066037    0.028034
-0.011917   -0.019712    -0.18861   -0.010618     0.11476    0.045899    0.021863
-0.010293   -0.026858     -0.1675   -0.019712   -0.031081    0.031932    0.017316
-0.011267   -0.031406    -0.15126   -0.022961    -0.20615    0.020564     0.01894
-0.017114   -0.031081    -0.13762   -0.026858    -0.40753   0.0033489    0.022512
-0.022636   -0.025234     -0.1256   -0.034004    -0.61703   -0.026533    0.023487
-0.02361   -0.018738    -0.10968   -0.040175    -0.80737   -0.061613    0.021538
-0.020687    -0.01614   -0.089871   -0.042774    -0.94639   -0.090521    0.013743
-0.018413   -0.019712   -0.069733   -0.038876     -1.0143    -0.10449  0.00075039
-0.016789   -0.025559   -0.059014   -0.032705     -1.0075    -0.10806   -0.019388
-0.018738   -0.030756    -0.05739   -0.028482    -0.93697    -0.10059   -0.037577
-0.022636   -0.031406   -0.060638   -0.027183    -0.80834   -0.084024   -0.046347
-0.027833   -0.026209   -0.061613   -0.024585    -0.63003   -0.061288   -0.044073
-0.032705   -0.018413   -0.059339   -0.017764    -0.41663   -0.038876   -0.034329
-0.04115   -0.010293   -0.053817  -0.0034721    -0.17302   -0.026858   -0.024585
-0.048296  -0.0067202   -0.044073    0.015042    0.096244   -0.025234   -0.018413
-0.04927  -0.0073698   -0.033679    0.032906      0.3733   -0.028807   -0.019388
-0.044723   -0.010293   -0.027508    0.049472     0.62406   -0.031406   -0.027833
-0.038227   -0.012567   -0.024585    0.065387     0.80108    -0.03173   -0.036602
-0.028807   -0.010943    -0.02361    0.075781     0.87513   -0.026858     -0.0405
-0.016789  -0.0080194   -0.022961    0.076755     0.85012   -0.016789   -0.038227
-0.0083442  -0.0073698   -0.021986    0.067336     0.75333  -0.0044465   -0.034978
-0.0054209  -0.0060706   -0.021986     0.05272     0.62893   0.0033489   -0.031406
-0.0057458  -0.0054209   -0.023935    0.042326     0.51622   0.0059473   -0.030431
-0.0034721  -0.0067202   -0.025559    0.039402     0.43924   0.0020496   -0.029132
0.0014   -0.011267   -0.026533    0.042326     0.40156  -0.0034721   -0.026209
0.0069217   -0.020037   -0.027183    0.047198     0.39279  -0.0060706   -0.023935
0.009845   -0.027508   -0.028482    0.050446     0.39539  0.00042559   -0.022311
0.012119   -0.029457    -0.03303    0.053694     0.39734    0.016341   -0.017764
0.014392   -0.024585   -0.040825    0.055968     0.39929    0.034206  -0.0089938
0.017965   -0.015815    -0.04927    0.053694     0.40221    0.050771   0.0023744
0.024137   -0.007045   -0.055441    0.042975     0.40579    0.062464    0.012119
0.029009  -0.0041217   -0.056091    0.029333     0.40449    0.067661    0.015042
0.028684  -0.0063954   -0.052518     0.01829     0.39344    0.065712    0.011144
0.023162   -0.012242   -0.048945    0.011794     0.37493    0.063438      0.0014
0.014717   -0.020362   -0.045372   0.0088706     0.35512    0.061489  -0.0099683
0.0075714   -0.027508    -0.04115   0.0072465     0.33693    0.061814   -0.019712
0.0039985   -0.028157   -0.037577    0.008221     0.31484    0.061165   -0.025559
0.0033489    -0.02361   -0.036602   0.0072465     0.28691    0.058566   -0.027833
0.0020496   -0.014191   -0.037252   0.0046481     0.25572    0.058566   -0.024585
0.00075039  -0.0011985   -0.036602   0.0036737     0.22747    0.064737    -0.01549
0.0017248    0.011469    -0.03303   0.0075714     0.20668    0.075456  -0.0050961
0.0059473    0.023487   -0.021012    0.014392     0.19304    0.084876   0.0069217
0.014068    0.030633   0.0075714    0.025111     0.18167    0.090397    0.016666
0.023812    0.033881    0.054344    0.035505     0.16803    0.084876    0.024786
0.029333    0.032906     0.11151    0.042975     0.14951     0.06961    0.027385
0.028684    0.029983     0.16348    0.049147     0.12353    0.050446    0.022837
0.020888    0.029009     0.19174    0.054668    0.098517     0.03583     0.01017
0.008221    0.031932     0.19076    0.055643    0.090397     0.02706  -0.0034721
-0.0031473     0.03583     0.16218    0.052395     0.10339    0.020564    -0.01484
-0.0073698    0.036479     0.11963    0.048822      0.1297    0.014717   -0.020037
-0.0018481    0.034855    0.078704    0.047523     0.15536    0.010495   -0.017439
0.010819    0.030957    0.046873    0.047847     0.17842   0.0065969   -0.008669
0.026085    0.026735    0.024786    0.048172     0.20635   0.0043233   0.0017248
0.040702    0.022837      0.0014    0.046548     0.24923   0.0023744    0.011469
0.051096    0.022188   -0.031081    0.041351     0.30867   0.0020496    0.019264
0.053044    0.026085   -0.072006    0.034855      0.3759   0.0010752    0.022837
0.04395    0.034206    -0.11715    0.029333     0.43989   0.0023744    0.019264
0.025111      0.0433    -0.16003    0.027385     0.48406   0.0062721    0.011469
0.0039985    0.051096    -0.19543    0.033231     0.49056   0.0091954   0.0046481
-0.01549    0.051096    -0.22012    0.042975     0.45256   0.0069217  -0.0015233
-0.028157    0.042975    -0.23246    0.052395     0.36324  -0.0034721  -0.0057458
-0.028807    0.032906    -0.22304    0.049147     0.21902   -0.021012  -0.0080194
-0.019388    0.032906    -0.18471    0.037129    0.022837   -0.038227   -0.011917
-0.0031473    0.048822    -0.11293    0.022188    -0.21492   -0.050894   -0.018413
0.015367    0.076431   -0.027508    0.009845    -0.47932   -0.062262   -0.027183
0.030308     0.10436    0.048822  0.00042559    -0.74143   -0.077528   -0.032705
0.040702     0.12483     0.11476  -0.0034721    -0.96263   -0.093769   -0.032055
0.04395      0.1336     0.18134  -0.0031473     -1.1156    -0.10968   -0.021661
0.040702     0.12385     0.22844  -0.0041217     -1.1929     -0.1243  -0.0050961
0.036804    0.096569     0.21902   -0.012567     -1.2066    -0.13794    0.012443
0.033231    0.063763     0.14951   -0.026858     -1.1835    -0.15029     0.02641
0.030308    0.034855    0.042975   -0.040825     -1.1439    -0.16035    0.033231
0.025436    0.016666   -0.062587   -0.049595      -1.088    -0.16815    0.030957
0.01894    0.010819    -0.13567    -0.04862     -1.0019    -0.17724    0.024137
0.012119    0.011469    -0.15191   -0.039526    -0.87136    -0.18536    0.014717
0.0078962    0.011469   -0.097341   -0.028807    -0.69531    -0.19089   0.0059473
0.0085458   0.0026992    0.020239   -0.021012    -0.49491    -0.19024   0.0017248
0.015042   -0.020037     0.16543   -0.018088    -0.30587    -0.18244   0.0017248
0.021863   -0.061288     0.28658   -0.021337    -0.15711    -0.16945   0.0043233
0.021213    -0.12398     0.35122   -0.032055   -0.056091    -0.14996   0.0091954
0.012768    -0.20485     0.36941   -0.048296   0.0075714     -0.1256    0.012768
-0.0021729    -0.29158     0.37071   -0.064861    0.059216   -0.097666    0.013093
-0.016464    -0.35979     0.37298   -0.071032     0.14139   -0.062912    0.012119
-0.027183    -0.38545      0.3733   -0.066485     0.28171   -0.017764    0.012443
-0.030106    -0.35264     0.36518   -0.054142     0.47757    0.040052    0.014717
-0.025559    -0.26949     0.34635   -0.036927     0.70721     0.10209    0.019589
-0.01614    -0.15905     0.32263   -0.020037     0.93262     0.15893    0.024786
-0.0028225   -0.052518     0.29438   -0.012242      1.1145     0.19693    0.023487
0.009845    0.027709      0.2567   -0.014191      1.2201     0.21252    0.015692
0.01764    0.074806     0.20051   -0.024909      1.2425     0.20668   0.0033489
0.020888    0.091372      0.1219   -0.034978      1.1928     0.19271  -0.0080194
0.019589    0.088773    0.026735   -0.039851       1.095     0.18134   -0.017114
0.015367    0.078704   -0.067134   -0.038227     0.97257     0.17874   -0.022311
0.011469     0.06961    -0.13827   -0.034004     0.83843     0.18427   -0.022311
0.010819    0.063438    -0.17757   -0.031406     0.69551     0.19856   -0.017439
0.011144    0.057592    -0.18894   -0.032705     0.51395     0.21642  -0.0073698
0.011144    0.046223    -0.17952   -0.041799     0.26384     0.22357   0.0036737
0.0088706    0.027385    -0.16165   -0.059339   -0.035303      0.2135    0.011144
0.0072465   0.0033489    -0.14866   -0.079477    -0.31074     0.18427    0.013743
0.0065969   -0.020362    -0.14281   -0.098641    -0.48581     0.13847   0.0095202
0.0052977   -0.035628    -0.14022    -0.11293    -0.52284    0.086175  -0.0031473
0.0039985   -0.034329    -0.13275    -0.11748    -0.43449    0.036479   -0.017764
0.0039985   -0.018413    -0.11423    -0.11098    -0.26754  -0.0044465   -0.028807
0.0052977   0.0026992   -0.088896   -0.097991   -0.075904    -0.03173   -0.029782
0.0036737    0.020888   -0.064861   -0.081101    0.090072   -0.045372   -0.019388
-0.0011985    0.030633   -0.051219   -0.062587     0.18881   -0.051544  -0.0044465
-0.0073698    0.032906   -0.051868   -0.040825     0.20668   -0.054467   0.0069217
-0.010943     0.03518   -0.063237   -0.018088     0.15731   -0.053168    0.014717
-0.0083442    0.042326   -0.082725   0.0052977    0.071883    -0.04927    0.020564
0.0014    0.056942    -0.11358    0.024137   -0.013216   -0.048945    0.025436
0.013093    0.075781    -0.15873    0.037129   -0.071357   -0.055116    0.027385
0.024461    0.095594     -0.2094    0.046223    -0.10449   -0.067459    0.027709
0.029009     0.11183    -0.25162    0.054668    -0.12755   -0.082076    0.029009
0.024786     0.12548    -0.27534    0.066362    -0.16133   -0.095393    0.031932
0.011794     0.13392    -0.27079    0.080003    -0.21525    -0.10416    0.036804
-0.0011985     0.13977    -0.22856    0.091047    -0.28346    -0.10774    0.042326
-0.0041217     0.14432    -0.14801    0.098517    -0.35361    -0.10936    0.047198
0.0056225     0.14691   -0.036602     0.10209     -0.4163    -0.11066    0.053044
0.024137     0.14951    0.091047     0.10242    -0.46665    -0.11358    0.057917
0.047198     0.14886      0.2161     0.10274    -0.50595    -0.11975    0.059865
0.066037     0.14107     0.32491    0.099492    -0.53908    -0.12657    0.058241
0.074157     0.11573     0.41358    0.091696    -0.58293    -0.12885    0.055318
0.069934     0.06831     0.47854    0.078704    -0.65601    -0.12592    0.054019
0.055968   0.0062721     0.51395    0.064088    -0.75767    -0.11943    0.056617
0.041351   -0.052193     0.49901    0.054019    -0.86129    -0.10903    0.062464
0.029658   -0.090521     0.40903     0.05207    -0.93372   -0.094093    0.069285
0.024461    -0.10091     0.23494    0.055643    -0.94087   -0.075904    0.071883
0.024461   -0.085973  -0.0037969    0.059216    -0.87103   -0.053168    0.070909
0.027385   -0.057065    -0.26299    0.061165    -0.74046   -0.027508    0.066362
0.029658   -0.026209    -0.49361    0.062789    -0.57513  -0.0018481    0.059216
0.030957  -0.0024977    -0.66348    0.061489    -0.40006     0.01894    0.052395
0.027709   0.0078962    -0.77586    0.055643    -0.23051    0.030633    0.047523
0.01829   0.0075714    -0.84277    0.040052   -0.080127    0.034855    0.040702
0.0078962   0.0039985    -0.86291    0.014717    0.045249    0.033556    0.033231
-0.00087364   0.0059473    -0.82166   -0.012892     0.15211    0.029009    0.023812
-0.0057458    0.018615       -0.72   -0.034978     0.26482     0.01829    0.014068
-0.0099683    0.040377    -0.56669   -0.042124     0.40546    0.003024    0.003024
-0.018088    0.062464    -0.35232   -0.035953     0.57501   -0.013541   -0.010943
-0.030106    0.074482   -0.072656   -0.027183     0.74553    -0.02426   -0.022636
-0.042774    0.071558     0.23559   -0.024909     0.87481   -0.022636   -0.028482
-0.051868    0.053369     0.49901    -0.03173     0.93425   -0.012242   -0.027508
-0.054142    0.025436     0.65589   -0.042449     0.92125  0.00010078   -0.025559
-0.047321  0.00075039     0.69649   -0.054142     0.86344    0.010819   -0.026533
-0.037252   -0.010943     0.66433   -0.058365     0.80302    0.016666   -0.029132
-0.027508  -0.0041217     0.61009   -0.050569      0.7647    0.013093   -0.035953
-0.02361    0.012768     0.55942   -0.034004     0.74586 -0.00022403   -0.044398
-0.023285    0.032906     0.50355   -0.011267      0.7215   -0.015815   -0.052518
-0.025884    0.048497     0.42365    0.011794     0.65556    -0.03238   -0.058365
-0.027508    0.056617     0.31062    0.029333      0.5107   -0.043099   -0.061288
-0.024909    0.059865     0.17647    0.040377     0.26807   -0.052193   -0.061937
-0.020687    0.055318    0.047198    0.043625   -0.064861   -0.065835   -0.061613
-0.018738    0.045249   -0.051868      0.0433    -0.44034   -0.089546   -0.061288
-0.021337    0.034206    -0.11033    0.041351    -0.78431     -0.1191   -0.057715
-0.023935    0.023487    -0.13112    0.038753     -1.0325    -0.14541   -0.053492
-0.027508    0.013093     -0.1256    0.037129     -1.1539    -0.16003   -0.049595
-0.034004    0.003024    -0.10709    0.031932     -1.1536    -0.16328   -0.042774
-0.040175  -0.0063954   -0.088572    0.022512     -1.0659      -0.161   -0.030431
-0.042449   -0.013216   -0.069733    0.014068    -0.93827    -0.15191   -0.016789
-0.038227   -0.018088   -0.039201   0.0078962    -0.81484    -0.13892  -0.0076946
-0.03173   -0.020362    0.010495   0.0026992    -0.71383    -0.12398  -0.0034721
-0.025884   -0.020362    0.075131    0.003024    -0.63003    -0.10838  -0.0021729
-0.02361   -0.020037     0.14269   0.0056225    -0.54655   -0.092145  -0.0041217
-0.025884   -0.018738     0.19856   0.0091954     -0.4543   -0.076879   -0.008669
-0.030431   -0.018088     0.22877   0.0091954    -0.34939   -0.063237   -0.013866
-0.035303   -0.017439     0.23559   0.0085458    -0.22694   -0.046996   -0.019388
-0.036602   -0.016464     0.22487     0.01017   -0.094093   -0.027183   -0.022961
-0.034654   -0.016789     0.19791     0.01829     0.03518  -0.0018481   -0.022961
-0.031081   -0.019388     0.15828    0.036479     0.14432    0.025111   -0.020362
-0.026533   -0.022311     0.11768    0.054668     0.22649    0.050446   -0.019063
-0.020037    -0.02426    0.063438     0.06084     0.28626    0.076106   -0.018088
-0.012242   -0.030106   -0.064211    0.050446     0.32946    0.096893    -0.01484
-0.0054209   -0.041799    -0.30847     0.02641     0.37103     0.10826  -0.0099683
-0.00022403   -0.059989    -0.63522  0.00042559     0.42203     0.10761  -0.0021729
0.0043233   -0.078827    -0.93112    -0.01614     0.48536    0.099167   0.0065969
0.0069217    -0.09182     -1.0695   -0.021986     0.55357    0.092346    0.013743
0.0056225   -0.093769    -0.99056   -0.017764     0.61788    0.092346    0.014717
0.00042559   -0.084674    -0.73202  -0.0076946     0.67245    0.097868    0.012443
-0.010293   -0.070382    -0.41858      0.0014     0.70623     0.10696   0.0095202
-0.022636   -0.054467    -0.19738    0.008221     0.67473     0.10989   0.0072465
-0.03303   -0.040825    -0.15905    0.010819     0.50842    0.097868   0.0056225
-0.041799   -0.033354    -0.28865   0.0085458     0.17127    0.067986   0.0023744
-0.04992   -0.030756    -0.48938 -0.00087364    -0.28118    0.018615  -0.0034721
-0.05739   -0.033679    -0.66348    -0.01614    -0.70116   -0.046671   -0.012242
-0.062912   -0.038876    -0.76515   -0.033354    -0.92463    -0.11683   -0.022636
-0.064536   -0.044723    -0.77911   -0.052518    -0.87006     -0.1727   -0.034329
-0.067459   -0.052193    -0.67193   -0.068434    -0.58001    -0.19543   -0.044398
-0.072331   -0.059989    -0.40916   -0.069733    -0.18504    -0.18212    -0.04927
-0.073955   -0.065186   -0.017764   -0.054792     0.16705    -0.14281   -0.050569
-0.06681   -0.061613     0.40481   -0.026858     0.37915   -0.094093   -0.050569
-0.053817   -0.044723     0.73579   0.0059473     0.43112    -0.04927   -0.045372
-0.042124   -0.013216     0.90274    0.037129     0.36324   -0.013216   -0.036602
-0.032705    0.029009     0.89982    0.062139     0.24501    0.016991   -0.022961
-0.025234    0.065387     0.77996    0.076106     0.14139    0.040702   -0.008669
-0.017114    0.083251     0.61594    0.080653    0.088773    0.057917   0.0036737
-0.0089938    0.078379     0.46035    0.080978    0.090397    0.066362    0.014068
-0.0015233    0.055968     0.34375    0.080003     0.13067    0.067986    0.021213
0.0075714    0.028684     0.26872    0.080003     0.18654    0.070584     0.02641
0.020239   0.0036737     0.22617    0.078055     0.24046    0.077405    0.029009
0.032257   -0.012567     0.20311     0.06961     0.27911    0.087474    0.032906
0.036804   -0.017764     0.18946    0.052395     0.30022     0.10566    0.038753
0.037454   -0.011592     0.17712    0.034206     0.30477     0.13165    0.046548
0.037778   0.0023744     0.16868    0.020239     0.29762     0.16121    0.054993
0.040702    0.016341     0.15991     0.01017     0.28431     0.18394    0.063113
0.044599    0.025111     0.14659   0.0039985     0.26352     0.19109    0.070909
0.042975     0.02706     0.12937   0.0059473     0.23299     0.18557    0.078704
0.037778    0.026735     0.11021    0.010819     0.19011     0.16933    0.081952
0.038103    0.026085    0.093645    0.014392     0.13457     0.14594    0.080978
0.045899    0.025436    0.081627    0.013093    0.064413     0.11898    0.078704
0.054668    0.024137    0.073832    0.011469    -0.02426    0.092346    0.071883
0.057917    0.021863    0.069934    0.013418    -0.14671    0.072208    0.063438
0.055968    0.019589    0.066362    0.021213    -0.31042    0.062139    0.055968
0.057592     0.01764    0.062139     0.03453    -0.49913    0.058241    0.049796
0.065062    0.015692    0.053369    0.049147    -0.67517     0.05207    0.048497
0.07708    0.014068      0.0433    0.061489    -0.80477    0.039078    0.051096
0.084551    0.015042    0.034206    0.068635    -0.85284    0.019589    0.054668
0.083901    0.017316    0.028034     0.06831    -0.79568  -0.0034721    0.054344
0.076755    0.019264    0.025111     0.06019    -0.63035   -0.023285    0.051096
0.061489    0.020564    0.023487    0.047523    -0.37538   -0.034329    0.045899
0.042651    0.020239    0.021213     0.03583   -0.070707   -0.035628    0.041027
0.025111    0.016991    0.019264    0.024786     0.23104    -0.03173    0.033881
0.012443    0.011794    0.020564    0.017316     0.46458   -0.024909    0.029658
0.0078962   0.0095202    0.024461    0.010495     0.57696   -0.016464    0.029333
0.0075714    0.011144    0.031282   0.0052977     0.55682   -0.010293    0.032582
0.010819    0.013418     0.03583   0.0010752     0.43567  -0.0073698    0.036154
0.013418    0.014717     0.03453  0.00042559     0.27326  -0.0034721     0.03583
0.013743    0.015042    0.025436   0.0059473     0.12613  0.00075039    0.029009
0.015692    0.014717   0.0095202    0.016666    0.030633   0.0049729     0.01764
0.016341    0.012119  -0.0057458    0.029333  -0.0057458   0.0072465   0.0072465
0.01764    0.010819   -0.011592    0.042651   0.0039985   0.0069217   0.0059473
0.021213    0.015692  -0.0076946    0.054019    0.030633   0.0033489    0.010819
0.026735    0.027709   0.0046481    0.061489    0.054993 -0.00022403    0.021213
0.027385    0.044599    0.023812    0.061489    0.071234   0.0017248     0.03518
0.021538    0.059541    0.040702    0.054668     0.07773    0.012443    0.049796
0.013418    0.065062    0.045899     0.04395    0.075781    0.029983    0.058891
0.0091954    0.061165     0.03518    0.029983    0.067661    0.044924    0.056942
0.012443    0.048822    0.010819    0.015042    0.055968     0.05142    0.047523
0.023487     0.03518   -0.017764  0.00010078    0.050446    0.048497    0.035505
0.038753     0.02641   -0.043423   -0.012892    0.053694    0.038428    0.022512
0.051096    0.022188   -0.059014   -0.020687    0.061489    0.023162   0.0049729
0.05272    0.019914   -0.061613   -0.025234    0.067986   0.0046481   -0.013866
0.044275    0.017965   -0.054792   -0.025884    0.065062   -0.017439   -0.027833
0.032582    0.016666   -0.041799   -0.024585    0.054019   -0.042449   -0.032705
0.020888     0.01764   -0.021986   -0.020362    0.038428    -0.06681   -0.032055
0.015367    0.019589   0.0033489    -0.01484    0.021538     -0.0837   -0.029782
0.014717    0.023487    0.030633   -0.011267    0.008221   -0.092145   -0.025884
0.015042     0.02706    0.054993  -0.0099683  -0.0034721   -0.095717   -0.025884
0.016016    0.029333    0.076106   -0.012242   -0.012242   -0.098316   -0.029457
0.016341    0.025436    0.096244    -0.01614   -0.017764    -0.10059   -0.037252
0.011144    0.017965     0.11638   -0.023285   -0.020362    -0.10384   -0.047321
0.0014   0.0069217      0.1362   -0.033679   -0.018088    -0.10579   -0.056741
-0.0083442  -0.0041217     0.15406   -0.044073   -0.010293    -0.10254   -0.060638
-0.01549   -0.010943     0.16543    -0.04862   0.0059473   -0.093444   -0.055766
-0.018088  -0.0093186      0.1664   -0.044723    0.032257   -0.078178   -0.045697
-0.019712  -0.0015233     0.16218   -0.037252    0.060515   -0.063886   -0.032055
-0.019712    0.008221     0.15244   -0.024909    0.080653   -0.053492   -0.022636
-0.019388    0.011469     0.13652  -0.0080194    0.090072   -0.047971   -0.018088
-0.018088   0.0075714     0.11118    0.009845    0.093321   -0.044073   -0.013866
-0.014191  0.00075039    0.076106    0.021863    0.096244     -0.0405   -0.010943
-0.0080194  -0.0050961    0.033881    0.024137     0.09462   -0.036602   -0.013541
-0.00054884  -0.0037969  -0.0089938     0.01894    0.082602    -0.03238   -0.021012
0.0046481  0.00042559   -0.048296    0.010495    0.054668   -0.026533   -0.029782
0.0049729   0.0072465   -0.082076   0.0020496    0.017965   -0.019063   -0.036602
-0.0011985    0.014068    -0.10514  -0.0050961   -0.018738   -0.007045   -0.038876
-0.0083442    0.019589    -0.11488   -0.010618   -0.046671   0.0078962   -0.039201
-0.010618    0.023812    -0.11228   -0.013541   -0.059014    0.023487   -0.038876
-0.007045    0.023812    -0.09929   -0.012242   -0.060638    0.033231   -0.042124
-0.00054884    0.021213   -0.073306  -0.0096434   -0.057715    0.035505   -0.048296
0.0088706    0.016666    -0.03173   -0.010943    -0.04862    0.034855   -0.051868
0.013093    0.011144    0.026085   -0.018413    -0.02426    0.029658   -0.048945
0.012768   0.0056225    0.091372   -0.030431    0.023812    0.020888   -0.034978
0.010819 -0.00087364     0.16153   -0.043748    0.087799    0.014717   -0.021012
0.0065969   -0.011917     0.23559   -0.055766     0.14042    0.013743   -0.015165
0.0049729   -0.032705     0.28918   -0.068109     0.14821    0.017316   -0.016789
0.0014   -0.065186     0.27456   -0.080127    0.096244    0.021538   -0.021986
-0.0044465    -0.10319     0.17062    -0.09182 -0.00054884    0.021863   -0.030106
-0.007045    -0.13404   0.0033489    -0.10091    -0.10026     0.01764     -0.0405
-0.0034721    -0.14931    -0.17952    -0.10871    -0.16068    0.011794   -0.054467
0.003024    -0.14606    -0.33672    -0.11618    -0.15743   0.0069217   -0.070707
0.0036737     -0.1308    -0.44034    -0.12105   -0.089221   0.0046481     -0.0837
-0.0028225    -0.11423    -0.49361    -0.12008    0.025111   0.0017248   -0.087597
-0.014191    -0.10449    -0.51569    -0.11066     0.15276  -0.0021729     -0.0837
-0.026533    -0.10319    -0.52641   -0.096692      0.2619  -0.0047713    -0.07428
-0.037902    -0.10611    -0.53843   -0.081426     0.33075  -0.0057458   -0.062912
-0.046347    -0.10806    -0.55175    -0.06551     0.35609  -0.0034721   -0.051544
-0.050894    -0.10611    -0.55694   -0.045697     0.33952  -0.0028225   -0.043423
-0.048945   -0.096692    -0.54428   -0.020362     0.29535   -0.007045   -0.036278
-0.042449   -0.079152    -0.50757   0.0043233     0.24436   -0.014516    -0.03173
-0.033354   -0.055441    -0.44781    0.023487     0.20603   -0.025559   -0.028157
-0.021661   -0.034654    -0.36693    0.037778     0.18037   -0.038551   -0.022636
-0.007045   -0.020687    -0.27014    0.048172     0.16121   -0.052193   -0.013216
0.003024   -0.012892    -0.16458    0.054993     0.14172   -0.063561 -0.00022403
0.0049729  -0.0063954   -0.064861    0.058891     0.11703   -0.074605    0.009845
0.0023744      0.0014    0.016341    0.059541    0.087149   -0.086623    0.013418
-0.0041217     0.01017    0.077405    0.056942     0.05272    -0.09929    0.011144
-0.0093186    0.016666     0.12548    0.050446    0.010819    -0.11163   0.0095202
-0.010618    0.023487     0.16153    0.045574   -0.043099     -0.1217    0.012443
-0.0093186    0.039078     0.18134    0.042651    -0.11196     -0.1295    0.019264
-0.008669    0.072208     0.17972    0.042326    -0.19966    -0.13437    0.026085
-0.011592     0.12093     0.16056    0.041676    -0.31659    -0.13599    0.028359
-0.011917     0.17322     0.13457    0.039727    -0.44911    -0.13469     0.02706
-0.0073698      0.2148     0.11573    0.037454    -0.56766    -0.13112    0.025436
0.003024     0.23689     0.11216    0.034855    -0.64237    -0.12527    0.027385
0.01764     0.23754     0.13035    0.033556    -0.65471    -0.11651    0.030308
0.030633     0.22032      0.1755    0.034206    -0.60729    -0.10579     0.03518
0.03453     0.18784     0.25313    0.036804    -0.52316   -0.093769    0.039078
0.029009     0.14724     0.35641    0.037454    -0.42735   -0.081101    0.038753
0.013743     0.10599     0.46263     0.03453    -0.34809   -0.070058    0.033556
-0.0057458    0.069934     0.53441    0.028359    -0.30944   -0.064861    0.024461
-0.024585    0.039727     0.54058    0.025111    -0.31496   -0.068434    0.015367
-0.036278     0.01829     0.47692     0.02641    -0.34842   -0.080451   0.0078962
-0.04115   0.0056225     0.36518    0.032257    -0.38057   -0.090196   0.0052977
-0.040825  0.00075039     0.24046    0.039727    -0.39357   -0.092145   0.0052977
-0.037252    0.003024     0.13132    0.046873     -0.3848   -0.085648   0.0059473
-0.03303    0.013418    0.062789    0.054668    -0.36336   -0.072331   0.0069217
-0.029457    0.028684    0.042651    0.061489     -0.3325   -0.053168   0.0069217
-0.028157    0.050771    0.062139    0.067661    -0.29223   -0.031406   0.0078962
-0.027183    0.076106     0.10014     0.06896    -0.23896   -0.011592   0.0078962
-0.020362     0.10079     0.13555     0.06831    -0.17172    0.003024   0.0072465
-0.0080194     0.11736     0.15179    0.063438   -0.097341    0.016666   0.0075714
0.0033489     0.12028     0.14172    0.056292   -0.029132    0.029333    0.012768
0.008221     0.10696     0.10566    0.050446    0.022512    0.036804    0.026085
0.0065969    0.081303    0.054019    0.046873     0.05142    0.037129    0.041351
0.00075039    0.050771  0.00042559    0.045899    0.056942    0.030308     0.05272
-0.0060706    0.020239   -0.046347    0.044599    0.041676    0.016341    0.054668
-0.010293  -0.0021729   -0.082725    0.040377   0.0095202   0.0033489    0.050121
-0.0099683   -0.015165    -0.10676    0.034855    -0.03303  -0.0024977     0.04395
-0.0031473   -0.021337    -0.11975    0.026085     -0.0837  -0.0024977    0.037778
0.0023744   -0.021661    -0.12592    0.015042    -0.13404  -0.0028225    0.034206
0.0036737   -0.017114    -0.12755   0.0056225    -0.16588  -0.0044465    0.034206
0.0026992   -0.012892    -0.12625   0.0017248    -0.15646  -0.0034721    0.038753
0.0033489   -0.008669     -0.1243   0.0046481    -0.10351 -0.00054884    0.046548
0.0072465  -0.0076946     -0.1204    0.012443   -0.023935   0.0023744    0.056617
0.013418  -0.0067202    -0.11391    0.021213    0.058241   0.0026992    0.066362
0.01764  -0.0054209    -0.09929    0.024137     0.13002  -0.0028225    0.069934
0.021863  -0.0060706   -0.080451    0.020239     0.19563   -0.012567     0.06831
0.02641  -0.0060706   -0.061937    0.010495     0.26807    -0.02361    0.067011
0.029983  -0.0063954   -0.045047      0.0014     0.34147   -0.032055    0.070259
0.034855  -0.0044465   -0.030431 -0.00087364       0.385   -0.035628    0.076106
0.039402   0.0010752   -0.018413   0.0010752     0.35869   -0.035303    0.079354
0.039727   0.0088706   -0.012567   0.0059473      0.2554   -0.031406    0.079029
0.033231    0.016341   -0.016789    0.012768     0.10924   -0.026209    0.076755
0.023812     0.01894   -0.030756    0.020888    -0.02361   -0.021986    0.073507
0.016991    0.016666    -0.04862    0.025436   -0.087922   -0.012892     0.06961
0.015367    0.012443   -0.061937    0.026085   -0.061937   0.0052977    0.064088
0.017965   0.0065969   -0.064536    0.024137    0.040052    0.032257    0.055968
0.01894   0.0023744   -0.053492    0.023162      0.1781    0.062464    0.044275
0.017316  -0.0011985   -0.029782    0.025111     0.30737    0.087474    0.030308
0.015692 -0.00054884  -0.0024977    0.028359     0.39442     0.10534    0.019264
0.015042  0.00075039    0.022837    0.028034     0.41261     0.11573    0.010495
0.017316   0.0010752    0.044924    0.025436      0.3457     0.12255   0.0062721
0.019914  -0.0031473    0.065062    0.019264     0.19304     0.12158   0.0069217
0.020888   -0.010943     0.08585    0.011794   -0.028807     0.11118    0.014392
0.022837   -0.017764    0.097543   0.0075714    -0.27339    0.097543    0.026735
0.026085   -0.019388    0.071558    0.008221    -0.48841    0.091372    0.037129
0.029333   -0.013216   -0.023935    0.010495      -0.631    0.094945    0.041027
0.030957  -0.0054209    -0.17659    0.011469    -0.68849     0.10956    0.039402
0.029983 -0.00022403    -0.32666     0.01017     -0.6755     0.13165    0.035505
0.025761  0.00010078    -0.40526   0.0095202    -0.61866     0.15601    0.034855
0.015042 -0.00087364     -0.3835    0.011144    -0.54265     0.17745     0.03518
0.0026992   0.0026992    -0.27404    0.019914    -0.45625     0.18979    0.031932
-0.0089938    0.012768     -0.1217    0.029983    -0.35069     0.18687    0.026085
-0.016789    0.030308    0.019589     0.03583    -0.21297      0.1677    0.020239
-0.019388    0.049796     0.10112    0.035505   -0.034654     0.13327    0.015367
-0.019712    0.067011    0.099167    0.030957     0.17842    0.091696    0.008221
-0.018413    0.080978    0.015042    0.023162     0.40579    0.053044  -0.0028225
-0.019712    0.087474    -0.11845    0.013743     0.61529    0.020564   -0.012567
-0.024585    0.085525       -0.25   0.0036737     0.76924  -0.0011985   -0.018413
-0.03173    0.074482     -0.3299  -0.0054209      0.8368   -0.014191   -0.020687
-0.036278    0.058566    -0.34127   -0.012567      0.8066   -0.022311   -0.019388
-0.034654    0.042651    -0.29158    -0.01484     0.69097    -0.03238   -0.018413
-0.026533    0.028684    -0.20648   -0.012567     0.51752   -0.050569   -0.019712
-0.016789    0.013418    -0.11553  -0.0060706     0.31809   -0.073306   -0.021661
-0.0076946  -0.0054209   -0.039851 -0.00022403     0.12645   -0.098965   -0.018413
-0.00022403   -0.027833   0.0065969   0.0043233    -0.02426    -0.12105  -0.0080194
0.003024   -0.050569    0.015692   0.0052977    -0.11586    -0.13502   0.0033489
0.0049729   -0.079477   -0.010943  0.00042559    -0.13957    -0.13762    0.011794
0.0049729    -0.12333   -0.061937  -0.0054209    -0.10546    -0.12852    0.013418
0.0023744    -0.18699    -0.12592  -0.0083442   -0.034654    -0.11066    0.008221
-0.0041217    -0.26787    -0.18569  -0.0063954    0.050446   -0.086948  -0.0060706
-0.01549    -0.34647    -0.21849  0.00075039     0.13197   -0.060638   -0.026209
-0.027183    -0.39649    -0.21427    0.011144     0.19206   -0.034329   -0.045697
-0.03238    -0.39876    -0.18407    0.021538     0.21545  -0.0096434   -0.059664
-0.031406    -0.35069    -0.14736    0.030633     0.20051   0.0088706   -0.062912
-0.026858    -0.26981    -0.11943    0.036804     0.15406    0.020564   -0.055441
-0.02426    -0.17789    -0.11261    0.038753     0.09397    0.029658   -0.041799
-0.026209   -0.095068    -0.12787    0.032257    0.047198    0.041027   -0.029782
-0.028482   -0.035303     -0.1295    0.016991    0.037129    0.055318    -0.02426
-0.030106  0.00042559   -0.052193  0.00010078    0.067011    0.072208   -0.025559
-0.033679    0.016341     0.13555   -0.014516     0.11995    0.089098   -0.031081
-0.037577    0.019264     0.39149   -0.021661      0.1729     0.10371   -0.035628
-0.040175    0.016666     0.63477    -0.02361     0.20928     0.11443   -0.037902
-0.038227    0.011144     0.79036   -0.023285      0.2174     0.12288   -0.036278
-0.03173   0.0085458     0.81862   -0.023935     0.19206      0.1297    -0.03303
-0.022961    0.013093     0.72962   -0.030756     0.13684      0.1323   -0.030431
-0.017764    0.024786     0.56332   -0.044723    0.063763     0.12905   -0.030106
-0.019063    0.041676     0.37201   -0.061937   -0.018738     0.11866   -0.035953
-0.024909     0.06019     0.20278   -0.073631   -0.097666    0.093645   -0.045372
-0.035628    0.078055    0.080328   -0.072656     -0.1649    0.056617   -0.054467
-0.045047    0.089748   0.0052977   -0.061288    -0.21557    0.015692   -0.059014
-0.051544    0.095594   -0.035628   -0.043748       -0.25   -0.020037   -0.059339
-0.052843    0.094295    -0.05739   -0.023935    -0.26397   -0.042774    -0.05739
-0.046347    0.090397   -0.068434  -0.0089938    -0.25942   -0.056091   -0.053168
-0.035953    0.082927   -0.070382  0.00010078     -0.2461   -0.063886    -0.04992
-0.028482    0.072858   -0.065186   0.0062721    -0.23149   -0.066485   -0.047971
-0.021337     0.06084   -0.056416    0.011469    -0.22109    -0.06681   -0.043099
-0.012567     0.05142   -0.048945    0.016341     -0.2146    -0.06616   -0.038227
-0.0044465    0.048172     -0.0405    0.017316    -0.20518   -0.065186   -0.035953
-0.0021729     0.05207   -0.029457    0.014068    -0.19543   -0.066485   -0.036278
-0.0050961    0.062789    -0.02361   0.0052977    -0.18536   -0.072006   -0.035628
-0.0073698    0.080653   -0.030756  -0.0054209    -0.17789   -0.078503   -0.030756
-0.0031473     0.10469   -0.056416   -0.011592     -0.1701   -0.084674    -0.02361
0.0088706     0.13165   -0.094418  -0.0083442    -0.15808   -0.087272   -0.016789
0.025761     0.15601     -0.1243   0.0026992    -0.13112   -0.079802  -0.0096434
0.042326     0.17452    -0.12787    0.018615   -0.080776   -0.059014 -0.00022403
0.056292     0.18459   -0.094743    0.033556  -0.0073698   -0.027833    0.014392
0.067011     0.18816   -0.028157    0.044599    0.082602    0.010495    0.034206
0.076106     0.18427    0.065062    0.047847     0.18037    0.048172    0.054019
0.078055     0.17517     0.16315    0.041351     0.28301    0.074157    0.066037
0.073832     0.16153     0.24955    0.025436     0.38402    0.086175    0.069285
0.062464     0.14009     0.32069   0.0039985     0.47692    0.084551    0.064737
0.048497     0.10079      0.3746   -0.019388     0.55325     0.07708    0.054344
0.039402    0.046223     0.41618   -0.041799     0.60392    0.070584    0.040052
0.038428   -0.013216     0.44866   -0.059989     0.62308    0.067011     0.02706
0.042975   -0.062912     0.45613   -0.070058     0.60717    0.062139    0.017316
0.045574   -0.088896     0.41423   -0.069083     0.56072    0.053369    0.012119
0.045899   -0.090845     0.31127   -0.059339     0.49836    0.036804    0.013093
0.048172   -0.077203     0.16283   -0.041799     0.43989     0.01894    0.019264
0.056617   -0.055766   0.0056225   -0.013216     0.40546   0.0059473    0.026735
0.067986   -0.035303    -0.12268    0.018615     0.39637  -0.0015233    0.035505
0.076431   -0.019712    -0.20096    0.042651     0.38695  -0.0096434     0.04395
0.077405  -0.0083442    -0.22954    0.054993     0.31451   -0.019063    0.051745
0.071558   0.0010752    -0.22207    0.058891     0.10924   -0.034004    0.056292
0.06019   0.0056225    -0.19673    0.059216    -0.22856   -0.056741    0.054668
0.044275   0.0085458    -0.16295    0.062789    -0.60664   -0.087922    0.046223
0.029983    0.011469     -0.1191    0.074482    -0.90124    -0.12398    0.032906
0.019589    0.014392   -0.062262    0.089098     -1.0178    -0.15905     0.01764
0.014392     0.01764   0.0026992     0.10047    -0.95971    -0.19024   0.0033489
0.014392    0.018615    0.067986     0.10794    -0.82751     -0.2159  -0.0054209
0.011794     0.01894     0.11801     0.11606    -0.73266    -0.23084   -0.007045
0.0091954    0.016666     0.13782     0.12418    -0.71902    -0.23279  -0.0041217
0.0075714    0.010819      0.1219     0.12872     -0.7554    -0.21817   0.0046481
0.0069217   0.0062721    0.079029     0.12288    -0.78009    -0.18861    0.016991
0.0088706   0.0056225    0.019264     0.10924    -0.74208    -0.15029    0.028034
0.015692   0.0075714   -0.051544     0.09397    -0.62483    -0.10676    0.033231
0.02641     0.01017    -0.12787    0.082927    -0.44164   -0.062262    0.032906
0.037778   0.0091954    -0.20193    0.076755    -0.23084   -0.020362    0.028684
0.048497    0.003024    -0.26624    0.073507   -0.030431    0.015367    0.020888
0.054344   -0.010293    -0.31789    0.066037     0.13457    0.042975    0.013418
0.05207   -0.026533    -0.37018     0.05272     0.25637    0.061814    0.009845
0.036479   -0.046022    -0.44489    0.031282      0.3327    0.071558   0.0075714
0.014392   -0.062912    -0.53031   0.0049729     0.36421    0.075781   0.0036737
-0.0067202   -0.069733    -0.58001   -0.020037     0.35966    0.075781  -0.0041217
-0.021012   -0.061288    -0.54785   -0.038227     0.33303    0.073832   -0.010618
-0.029132   -0.040175    -0.43222   -0.047646     0.29015    0.071883   -0.013541
-0.030756   -0.014191    -0.27501   -0.050894     0.23624    0.071234    -0.01484
-0.030106   0.0062721    -0.12365   -0.053492     0.18719    0.063763    -0.01549
-0.029457    0.015042  -0.0073698   -0.059014      0.1716    0.046873   -0.019388
-0.03238    0.013743    0.069285   -0.067784     0.19239    0.023487   -0.028482
-0.036927   0.0078962     0.11606   -0.078503     0.22324  -0.0037969   -0.045047
-0.039851    0.003024     0.13392   -0.089871     0.22324   -0.030756    -0.06551
-0.038876   0.0026992     0.12255    -0.09994     0.17355    -0.05804    -0.08305
-0.033354    0.003024    0.096893    -0.10806    0.089098   -0.079152    -0.09182
-0.021986   0.0033489    0.092671    -0.10774  -0.0015233   -0.088247   -0.092145
-0.0083442      0.0014     0.13132   -0.096042   -0.075255   -0.085324   -0.084024
0.0023744   0.0010752      0.2083   -0.075904    -0.12268   -0.079802   -0.067459
0.0091954   0.0059473     0.29795   -0.053492    -0.14606   -0.077203    -0.04927
0.013093    0.014392     0.36486   -0.033679    -0.15516   -0.084674   -0.039526
0.01764    0.023162     0.38727   -0.020037     -0.1675    -0.10481   -0.039201
0.019589    0.026735     0.36973  -0.0076946    -0.19121     -0.1334    -0.04115
0.01764    0.028359     0.32881   0.0023744    -0.21557    -0.15743   -0.040175
0.013743    0.029658     0.28236     0.01017    -0.22337    -0.16328   -0.034004
0.009845    0.030957     0.24013    0.016016    -0.20193    -0.14704   -0.023935
0.0088706    0.031282     0.19109    0.017965    -0.15158    -0.11293  -0.0096434
0.01017    0.029983    0.090722    0.016666   -0.085648    -0.06616   0.0052977
0.011794    0.027385     -0.1178    0.013743   -0.023285   -0.017439    0.019914
0.013093    0.020239    -0.41046   0.0069217     0.01894    0.031607    0.026735
0.012119   0.0069217    -0.68622  -0.0057458    0.034855    0.076755    0.022837
0.003024   -0.020037    -0.84472   -0.024909    0.015042     0.11183    0.012443
-0.011592   -0.059989    -0.85025   -0.050894   -0.030431     0.13295 -0.00087364
-0.029782    -0.10189    -0.72454   -0.077528   -0.089221     0.14074   -0.013216
-0.043099    -0.13047    -0.51829   -0.097017    -0.14866     0.13587   -0.022636
-0.048945    -0.13567    -0.29028    -0.10319    -0.19803     0.12548   -0.021661
-0.044723    -0.11651    -0.09994   -0.095393    -0.22856     0.11736   -0.010293
-0.032705   -0.082725    0.012443   -0.077853    -0.22954     0.11346   0.0062721
-0.016789   -0.044398    0.042651   -0.052518     -0.2029     0.10306    0.021863
-0.00087364   -0.012242    0.019264   -0.020687    -0.16165    0.078704    0.030633
0.011469    0.009845   -0.015815   0.0091954    -0.11845    0.040052    0.030957
0.020239    0.023487   -0.030106    0.029333   -0.072656  -0.0044465    0.027709
0.024786    0.028359   -0.013866    0.038428  -0.0050961   -0.039851    0.024786
0.022512    0.027709    0.022188    0.038428     0.10566   -0.056741    0.021863
0.011469    0.022837    0.062789    0.039402     0.25767   -0.054142    0.020239
-0.0011985    0.020888    0.097218    0.050121     0.41585   -0.035953    0.024461
-0.010293    0.022512     0.12288    0.068635     0.52954  -0.0083442    0.032906
-0.0096434    0.029009     0.13684    0.086824     0.56072    0.019914    0.040377
-0.00087364    0.037129     0.14269     0.09397      0.5068    0.046548    0.041351
0.01017    0.043625     0.14529    0.086824     0.39767     0.06831    0.039402
0.015692    0.048497     0.14529    0.069934     0.26937    0.078704    0.038428
0.013093     0.05142     0.14529     0.05207     0.14107     0.07773    0.042326
0.0033489    0.048822     0.14432    0.040377    0.016991     0.06831    0.050446
-0.010943    0.039402     0.13879    0.038103   -0.093119    0.054993    0.055318
-0.02361    0.025111     0.13165    0.038753    -0.17887    0.042001     0.05207
-0.029782    0.014392     0.12613    0.037454    -0.22986     0.03583    0.045899
-0.029132    0.012768     0.12613    0.038753    -0.24383    0.033231    0.041351
-0.025234     0.01764     0.12872    0.042651    -0.22564    0.033231    0.039727
-0.020362     0.02641     0.12678    0.046223    -0.18342    0.032582     0.03518
-0.014191    0.032906     0.11411    0.048822    -0.12982    0.030633    0.029983
-0.007045    0.037454    0.095269    0.053694   -0.071357    0.025111    0.028684
