0.040377    0.030633      0.0014    0.025761    -0.60469   -0.089221    0.036479
0.046548    0.028034   0.0043233     0.03518    -0.44424   -0.059664    0.024461
0.042651    0.019589   0.0033489    0.039402    -0.27858   -0.029457    0.016666
0.031932   0.0059473  0.00042559    0.037129    -0.12657  0.00010078    0.011469
0.022188  -0.0093186 -0.00022403    0.030957  0.00042559    0.024786    0.003024
0.020888   -0.021661   0.0026992    0.024461    0.098193     0.04395  -0.0060706
0.025436   -0.028807   0.0052977    0.016666     0.16608    0.056942   -0.010943
0.023487   -0.027508   0.0020496   0.0088706      0.2096    0.070259   -0.011592
0.012768   -0.018413   -0.008669   0.0049729     0.23721      0.0865   -0.011592
-0.0015233  -0.0044465   -0.018738    0.009845      0.2567     0.10794   -0.011267
-0.015165    0.012768   -0.019388    0.022512     0.27261     0.13067  -0.0057458
-0.023285    0.031932  -0.0076946    0.040377     0.27976     0.14886   0.0049729
-0.025884    0.049472    0.011469    0.053044     0.27294     0.15828    0.015692
-0.026209    0.058566    0.029009    0.058891      0.2489     0.15633    0.020239
-0.026533    0.056942     0.03583    0.056292     0.21415     0.13977    0.016016
-0.025559    0.046223    0.028359    0.047847      0.1755     0.11313   0.0036737
-0.020037    0.033556   0.0085458    0.038428     0.13879    0.081952   -0.012892
-0.015165    0.024137   -0.011267    0.032906     0.10566    0.046223   -0.027833
-0.016464    0.021538   -0.025884    0.030633    0.081627   0.0088706   -0.041799
-0.022961    0.022188   -0.034654    0.029333    0.064737   -0.032705   -0.059989
-0.029132    0.019914   -0.039526    0.028034    0.054993   -0.076554   -0.081101
-0.030431    0.013093   -0.039526    0.024786    0.049796    -0.11651   -0.098316
-0.027183   0.0052977   -0.030106    0.019589    0.053694    -0.14834    -0.10481
-0.019712   0.0026992   -0.011917    0.011794    0.066037    -0.17107   -0.094418
-0.013866   0.0062721   0.0091954   0.0052977    0.083576    -0.18374   -0.069733
-0.0093186    0.012768    0.024461   0.0010752     0.10112    -0.18731   -0.036602
-0.0057458    0.016666    0.031932    0.003024     0.11638    -0.18569  -0.0028225
-0.0057458    0.016666    0.034206    0.011794     0.13002    -0.18244    0.027709
-0.010293    0.015692    0.031282    0.023487     0.13977    -0.18049    0.046873
-0.018088    0.016016    0.023162    0.032906     0.14626    -0.17724    0.055643
-0.023935    0.016341    0.012119    0.031607     0.15373     -0.1701    0.058566
-0.029132     0.01894   0.0017248    0.017965     0.16575    -0.15483    0.057267
-0.034654    0.023487  -0.0050961  -0.0044465      0.1781     -0.1334    0.057592
-0.040825    0.030633  -0.0076946   -0.024585     0.17777    -0.11001    0.061489
-0.042449    0.036804  -0.0054209   -0.036602     0.14886   -0.086623    0.066037
-0.036927    0.039727  -0.0041217   -0.039201    0.094295   -0.063561    0.064737
-0.028157    0.039402  -0.0073698   -0.034654    0.033231   -0.037577    0.055968
-0.019388    0.034855    -0.01484    -0.02361  -0.0057458   -0.013541    0.040052
-0.015815    0.028684   -0.023935   -0.011592  -0.0057458   0.0020496    0.024461
-0.018413    0.020888   -0.030106  -0.0021729    0.031932   0.0036737    0.013418
-0.022961    0.012119   -0.032055   0.0039985    0.095269  -0.0089938    0.010495
-0.024909   0.0059473   -0.030106   0.0065969     0.17257   -0.029132    0.013743
-0.022636   0.0033489   -0.022961    0.010819     0.24468   -0.047971    0.019264
-0.016789  0.00075039   -0.017114    0.017965      0.2986   -0.059664     0.02641
-0.010618  -0.0060706   -0.011592    0.025436     0.33758   -0.061937    0.029333
-0.0073698   -0.016789  -0.0054209    0.032257     0.37136   -0.053817    0.024461
-0.0054209   -0.028157  0.00042559    0.034855     0.40286   -0.037902    0.011144
-0.0034721   -0.034329   0.0059473    0.033881     0.42592    -0.01484  -0.0044465
0.0023744   -0.032055   0.0095202    0.029658     0.42495    0.010495   -0.012892
0.0088706   -0.025559    0.008221    0.021213     0.38175    0.036479    -0.01549
0.011469   -0.021986  0.00075039    0.011469     0.28853    0.057917   -0.013541
0.0046481   -0.021012  -0.0093186  0.00042559     0.16673    0.075456   -0.012892
-0.0041217   -0.021661   -0.019063   -0.011917    0.058566    0.087149   -0.013541
-0.010943   -0.023285   -0.023935   -0.026209  -0.0063954    0.090397   -0.013541
-0.015165   -0.021986   -0.025234   -0.036602   -0.019063    0.084226   -0.015165
-0.022636   -0.016464   -0.024585   -0.038227   0.0056225    0.076755   -0.020362
-0.033354   -0.007045   -0.022961    -0.03173    0.040702    0.074482   -0.028807
-0.044398   0.0017248   -0.016789   -0.021012    0.067336    0.078704   -0.036278
-0.051544   0.0091954  -0.0076946  -0.0099683    0.082277      0.0865   -0.037252
-0.054792    0.014068  0.00075039   0.0026992    0.092996    0.096569   -0.032055
-0.052843    0.016341   0.0046481    0.014068     0.10534     0.10566   -0.022961
-0.042124    0.016341   0.0059473    0.020239     0.11508     0.11183   -0.011267
-0.025234    0.016016   0.0069217    0.020888     0.11703     0.11443 -0.00022403
-0.0073698    0.014717   0.0075714    0.018615     0.10566     0.11281    0.008221
0.0046481    0.017316    0.010495    0.016016    0.072858     0.10696    0.016991
0.0095202    0.022188    0.014392    0.015692    0.014068    0.097543    0.025111
0.012768    0.027385    0.016666    0.015692    -0.06681    0.087799    0.032906
0.020888    0.030957    0.016016    0.015042    -0.15548    0.080978    0.041027
0.032906    0.036154    0.013418    0.012443    -0.23474    0.079029    0.042651
0.044924    0.043625    0.009845   0.0085458     -0.2906    0.078055    0.037454
0.051745    0.049472   0.0039985   0.0020496    -0.31983    0.072208    0.029333
0.050771     0.05142  -0.0063954  -0.0054209     -0.3299     0.06019    0.021213
0.045574    0.051745   -0.015165   -0.011592    -0.32828    0.045249    0.015367
0.042001    0.055318   -0.019388   -0.012892    -0.31626    0.029658   0.0095202
0.042651    0.064088   -0.013866  -0.0093186     -0.2945     0.01764   0.0020496
0.048822    0.073507  0.00075039 -0.00054884    -0.26169   0.0075714  -0.0034721
0.056617    0.075131    0.018615   0.0078962    -0.21655  0.00042559  -0.0080194
0.065712    0.064413    0.031282    0.011794     -0.1675  -0.0011985   -0.010618
0.072208    0.043625    0.035505   0.0095202    -0.13015   0.0020496   -0.010618
0.072858    0.020239    0.030957   0.0043233     -0.1204    0.003024  -0.0096434
0.065062   0.0039985    0.017965  -0.0037969    -0.14346  -0.0041217  -0.0099683
0.049796  -0.0031473   0.0010752  -0.0099683    -0.18926   -0.025884   -0.012892
0.031932  -0.0050961   -0.013866   -0.014516    -0.24221   -0.055766   -0.013866
0.012443  -0.0034721    -0.02426   -0.019063    -0.28248   -0.087922  -0.0099683
-0.0083442 -0.00087364   -0.031406   -0.021661    -0.29742    -0.11391  -0.0057458
-0.030106   0.0017248   -0.037252   -0.019712    -0.28703    -0.12787  -0.0063954
-0.045047   0.0056225    -0.04115   -0.011267    -0.25585    -0.12982   -0.012567
-0.049595   0.0085458   -0.040175 -0.00054884    -0.20972    -0.12268   -0.021337
-0.048296    0.009845   -0.032055   0.0095202    -0.15841    -0.10806   -0.030106
-0.046671   0.0078962   -0.019063    0.013418    -0.10936   -0.090196   -0.033354
-0.044723    0.003024  -0.0018481    0.009845   -0.073631   -0.072981   -0.028482
-0.040825  -0.0041217    0.009845  -0.0011985   -0.056091   -0.055441   -0.019388
-0.034654  -0.0099683   0.0091954   -0.011267   -0.059989   -0.037252   -0.014516
-0.028157   -0.010293  -0.0015233   -0.015165   -0.075904   -0.019063   -0.017764
-0.021012  -0.0076946   -0.013541   -0.013866   -0.093769  -0.0037969   -0.026533
-0.015815  -0.0054209   -0.017439  -0.0067202    -0.10774   0.0062721   -0.032055
-0.014191  -0.0054209   -0.013216   0.0039985    -0.11196    0.010495   -0.029782
-0.017114  -0.0054209  -0.0034721    0.014068    -0.10319    0.011469    -0.02426
-0.021012   -0.007045   0.0075714    0.020564   -0.082725    0.013093   -0.019063
-0.021012   -0.010293    0.016991    0.025111   -0.052843    0.014717   -0.016464
-0.017114   -0.014516    0.022512    0.029009   -0.017439    0.010819   -0.018088
-0.012567   -0.017439    0.022512    0.026735    0.020564   0.0020496   -0.024909
-0.010618   -0.018413    0.016991    0.015692    0.061814  -0.0060706   -0.033354
-0.013866   -0.016789   0.0088706  -0.0024977     0.10566   -0.010943   -0.038551
-0.019063  -0.0093186   0.0026992   -0.022311     0.14269   -0.012892   -0.034329
-0.025884 -0.00087364  -0.0015233   -0.035953     0.16705   -0.014191    -0.02426
-0.030431   0.0072465  -0.0028225   -0.036278     0.16803    -0.01484   -0.013866
-0.027833    0.011469  -0.0018481   -0.029782     0.14107   -0.019712  -0.0037969
-0.019712    0.013093 -0.00087364   -0.022311    0.085525   -0.033354   0.0052977
-0.0067202    0.013743   0.0010752   -0.019712   0.0043233   -0.055116    0.012119
0.0065969    0.015367  0.00042559   -0.020687   -0.088572   -0.076879    0.016016
0.016666    0.015692   0.0026992   -0.020037    -0.16588   -0.092469    0.015692
0.021213    0.013743   0.0072465   -0.017764     -0.2029   -0.095393    0.013418
0.021213    0.009845    0.011469   -0.015165    -0.19056   -0.084349   0.0095202
0.01764   0.0065969    0.012119   -0.016789    -0.13404   -0.061613   0.0046481
0.011144   0.0036737   0.0043233   -0.021661   -0.055116   -0.037252 -0.00022403
0.0014      0.0014  -0.0083442   -0.027183    0.020239   -0.020362  -0.0034721
-0.0073698  -0.0015233   -0.021337   -0.032055    0.073182   -0.010943  -0.0015233
-0.014516  -0.0028225   -0.029132    -0.03173    0.097868  -0.0041217   0.0033489
-0.017764  -0.0037969   -0.032055    -0.02361    0.094295  0.00075039   0.0095202
-0.01484  -0.0034721   -0.029782   -0.015815    0.059865   0.0065969    0.011469
-0.010618  -0.0015233   -0.026533   -0.013866  0.00010078    0.015692   0.0095202
-0.0083442   0.0017248   -0.023285    -0.01484   -0.075255    0.028359   0.0046481
-0.0080194   0.0049729   -0.023935   -0.011267    -0.14996    0.040377   0.0020496
-0.008669    0.008221   -0.025884 -0.00022403    -0.20193    0.047198   0.0039985
-0.0093186    0.010495   -0.021661    0.016016    -0.20615    0.042326    0.014392
-0.0067202    0.013743   -0.011267    0.029658    -0.14022     0.02641    0.028684
-0.00087364    0.015367   0.0010752     0.03453  0.00042559   0.0059473    0.040702
0.0049729     0.01764   0.0091954    0.032906     0.19693   -0.013541    0.045249
0.009845    0.022837    0.011144     0.02641     0.40514   -0.028807    0.037778
0.014068    0.028034   0.0049729     0.01894     0.57046    -0.04115    0.019914
0.01829    0.030957  -0.0067202    0.014068     0.65264   -0.045697  0.00010078
0.021863    0.028359   -0.018088    0.015042     0.64614   -0.040175   -0.012567
0.022837    0.019589    -0.02426    0.023162     0.57111   -0.023935   -0.013216
0.020239   0.0085458   -0.021661    0.031932     0.46198  -0.0057458  -0.0080194
0.013743  -0.0037969   -0.012892    0.038103     0.35089    0.009845  -0.0031473
0.0059473   -0.013866  -0.0024977    0.038103     0.26027     0.01829  -0.0018481
-0.0011985   -0.020687   0.0039985     0.03518     0.19401    0.020888  -0.0054209
-0.0044465   -0.022311   0.0075714    0.030308     0.14399    0.019264   -0.007045
-0.0015233   -0.018413    0.012443    0.027385    0.092996    0.020564  0.00075039
0.0036737  -0.0099683    0.020564    0.030633    0.019914    0.029983    0.017316
0.008221   0.0017248    0.029983    0.037129   -0.090845     0.05142    0.034206
0.010495   0.0095202    0.037129    0.042001    -0.22986    0.078379    0.045899
0.014392    0.012443    0.036154    0.039402    -0.36044     0.10079    0.050121
0.020888    0.010819    0.025436    0.030957    -0.45106     0.11086    0.050771
0.02641   0.0065969   0.0091954    0.019914    -0.48126     0.10566    0.050771
0.022512   0.0033489  -0.0028225    0.011144    -0.44846    0.087149    0.053044
0.010495  0.00010078  -0.0089938   0.0072465    -0.36693    0.062789    0.053694
-0.0054209  -0.0037969   -0.011592   0.0085458    -0.26234    0.040052    0.048822
-0.018088   -0.007045  -0.0096434    0.011794    -0.15808    0.021863    0.036804
-0.019063  -0.0096434  -0.0047713    0.014068   -0.063886   0.0095202    0.023487
-0.008669   -0.013216  -0.0011985    0.015042    0.017316      0.0014    0.016016
0.0052977   -0.018738  0.00010078     0.01764    0.084876  -0.0060706    0.011794
0.01764   -0.028482 -0.00087364    0.019914     0.14367   -0.016464   0.0075714
0.030633   -0.037902  -0.0034721    0.021538     0.19791   -0.033354   0.0072465
0.0433   -0.041799   -0.007045    0.022837     0.24598   -0.051219    0.017965
0.059865   -0.038227  -0.0057458    0.029009     0.28431   -0.066485    0.036804
0.078704   -0.024585 -0.00054884    0.038753     0.30412   -0.076229    0.058891
0.091696  -0.0060706   0.0023744    0.046873     0.30932   -0.079477    0.074806
0.091696    0.012768  -0.0028225    0.048497     0.30087   -0.078503    0.078379
0.080653    0.025436   -0.013541    0.045899     0.27002   -0.078503    0.067661
0.061165    0.028684   -0.021012    0.041351     0.20148     -0.0824    0.047198
0.042651    0.024461   -0.014191    0.036154    0.083901   -0.092145    0.026735
0.029658    0.012768   0.0069217    0.025761   -0.072006    -0.10156    0.010495
0.019914  -0.0028225    0.032906    0.011144    -0.23474    -0.10579   0.0023744
0.0065969    -0.01614    0.052395  -0.0041217     -0.3705    -0.10026   0.0023744
-0.015815   -0.024585    0.056617    -0.01549    -0.45755   -0.084999   0.0059473
-0.043423   -0.022961     0.05142   -0.018088    -0.49393   -0.063886   0.0088706
-0.069408   -0.012242    0.041027   -0.012242    -0.49036   -0.039526    0.011469
-0.085324 -0.00087364    0.029333  -0.0021729    -0.45918   -0.016789    0.015692
-0.089871   0.0056225    0.021538   0.0072465    -0.41305   0.0039985    0.021863
-0.084674   0.0072465    0.021863    0.014068    -0.36498    0.024137    0.022512
-0.072981   0.0033489    0.029009    0.015692    -0.32211      0.0433    0.015042
-0.062587  -0.0047713    0.038103    0.012443    -0.28248    0.057917  0.00010078
-0.056741   -0.012567    0.044924   0.0072465    -0.23571    0.062789   -0.014516
-0.054792   -0.015815    0.044924   0.0033489    -0.16815    0.056617   -0.021986
-0.052843   -0.014191    0.039402 -0.00022403   -0.072006    0.042326   -0.020037
-0.048945   -0.010943    0.030308  -0.0034721    0.042651    0.022512   -0.012567
-0.041475   -0.010293     0.01829  -0.0057458     0.15861    0.003024 -0.00054884
-0.030756  -0.0089938   0.0085458  -0.0089938     0.26157   -0.015815    0.012768
-0.020362  -0.0067202   0.0033489   -0.011592     0.34407    -0.03238    0.028034
-0.0099683  -0.0050961      0.0014  -0.0083442     0.40286   -0.045697    0.039402
0.0014  -0.0041217  0.00042559   0.0023744     0.43697   -0.055116    0.044924
0.011469  -0.0018481  -0.0015233    0.015692     0.44639   -0.057715    0.041027
0.018615   0.0039985  -0.0063954    0.024786     0.43924   -0.052193    0.028359
0.023812    0.012119   -0.010293    0.025436     0.42105   -0.041799   0.0078962
0.026085    0.019914   -0.013216    0.019914     0.39767    -0.03303   -0.012567
0.024137    0.020564   -0.015815    0.011469     0.37525   -0.024585   -0.024585
0.020888    0.015042   -0.018088   0.0072465     0.35771   -0.018413   -0.027183
0.016016    0.009845   -0.019712    0.010819     0.33887   -0.010943    -0.02361
0.012768     0.01017    -0.01549    0.022188     0.30152  0.00075039    -0.01549
0.012768    0.016991  -0.0057458     0.03453     0.22389    0.014068  -0.0073698
0.016991    0.028034   0.0059473    0.042001     0.10371    0.023812 -0.00087364
0.023162    0.036479    0.013418    0.039078   -0.045047    0.025436   0.0039985
0.031282    0.045249    0.014068    0.032582    -0.19413    0.019589   0.0036737
0.041027     0.05207   0.0095202     0.02641    -0.31918    0.009845  0.00010078
0.050121    0.054019   0.0023744    0.023162    -0.40201  -0.0041217  -0.0080194
0.058566     0.05207  -0.0067202    0.021213    -0.44229   -0.022636   -0.017439
0.062789    0.047523   -0.014191    0.021213     -0.4582   -0.042449   -0.025559
0.06019    0.040377   -0.019712    0.018615    -0.47055    -0.05804    -0.03303
0.048172    0.033231   -0.021986    0.012768    -0.49166   -0.064211   -0.036927
0.031282     0.02706    -0.02426   0.0046481    -0.51634   -0.059664   -0.037902
0.016666    0.023812   -0.029457 -0.00087364    -0.52706   -0.045372   -0.038227
0.011794    0.024137   -0.035628  -0.0021729    -0.51115    -0.02361   -0.037577
0.019589    0.027709   -0.039526  -0.0028225    -0.46535 -0.00054884   -0.037902
0.033881    0.032582   -0.037252  -0.0024977    -0.39779    0.020239   -0.036602
0.044924     0.03518   -0.035303 -0.00087364    -0.31042    0.035505   -0.036278
0.050121    0.034206   -0.037577 -0.00087364     -0.2146    0.043625   -0.034654
0.047847    0.030633   -0.046671 -0.00087364    -0.12333    0.048822    -0.03173
0.041351    0.025436   -0.056741   0.0020496   -0.044723    0.054019   -0.027508
0.038428    0.021538   -0.062587   0.0078962    0.022512    0.059541   -0.022636
0.038753    0.019914   -0.060313    0.015692    0.081627    0.059216    -0.01549
0.041027    0.019914   -0.050569    0.025111     0.13165    0.049472  -0.0080194
0.044924     0.01894   -0.038876    0.031282     0.16965    0.032582  0.00075039
0.049796    0.015692   -0.026858    0.031282     0.19434    0.013743    0.013093
0.053369    0.011794   -0.017439    0.025761     0.20765 -0.00087364    0.024786
0.054993    0.010495  -0.0089938     0.01764      0.2135  -0.0099683    0.031607
0.05272     0.01017 -0.00054884    0.011144     0.21317   -0.015815    0.033231
0.045249     0.01017    0.009845   0.0078962      0.2057   -0.022311    0.031607
0.033231     0.01017    0.024137   0.0078962     0.19109   -0.030106     0.02641
0.020888    0.011794    0.035505    0.014392     0.17257   -0.037577     0.01829
0.012119    0.015367    0.038103    0.023487     0.15503   -0.042774   0.0091954
0.01017     0.01764    0.032257    0.030957     0.14172   -0.045047   0.0033489
0.011469    0.016991    0.021538    0.032582     0.13165   -0.044073 -0.00054884
0.014068    0.015367    0.012119    0.028359     0.11995   -0.039201  -0.0024977
0.012443    0.013093   0.0043233    0.021538     0.10274   -0.031081  -0.0047713
0.0069217    0.009845   0.0033489    0.016991    0.080328   -0.021012  -0.0073698
-0.0015233   0.0049729   0.0046481    0.015042    0.053694   -0.011917  -0.0067202
-0.0093186  -0.0031473    0.003024    0.011469    0.023162  -0.0067202  -0.0050961
-0.017439  -0.0083442  -0.0031473   0.0085458  -0.0099683  -0.0050961  -0.0054209
-0.023935   -0.008669   -0.011267   0.0072465   -0.035303  -0.0076946   -0.010293
-0.028482  -0.0080194   -0.017439   0.0078962   -0.050894   -0.012242   -0.016789
-0.032705   -0.010943    -0.02426   0.0072465   -0.063561    -0.01549   -0.022961
-0.038227   -0.016464    -0.03238   0.0062721   -0.079477   -0.013866   -0.027183
-0.047971   -0.021012   -0.036278   0.0072465    -0.10189   -0.007045   -0.026858
-0.059664   -0.022636   -0.030756    0.012119    -0.12722      0.0014    -0.02361
-0.065835   -0.019063   -0.021012    0.019264    -0.14346    0.008221   -0.018413
-0.064211   -0.012567   -0.012892     0.02706    -0.13989    0.013743   -0.014191
-0.055766  -0.0050961  -0.0063954    0.029658    -0.11586    0.016666   -0.011267
-0.044723  -0.0018481  -0.0028225    0.025761   -0.084024    0.020564  -0.0096434
-0.036602  -0.0044465  0.00042559    0.015042    -0.05739    0.024137   -0.010943
-0.034654   -0.011592  0.00075039   0.0020496   -0.040175    0.025111   -0.011592
-0.037902   -0.022636  -0.0015233  -0.0057458   -0.030756    0.023162   -0.008669
-0.042124   -0.035628  -0.0031473  -0.0083442   -0.031081    0.014717 -0.00022403
-0.044398   -0.045047  0.00075039  -0.0099683   -0.036927   0.0017248    0.010495
-0.045047   -0.046671    0.012119   -0.008669   -0.045372   -0.010943    0.013743
-0.044398   -0.044073    0.022188   -0.007045   -0.053168    -0.01549   0.0078962
-0.037252   -0.037577    0.024786  -0.0067202   -0.059014   -0.010943  -0.0021729
-0.02426   -0.030106     0.01764  -0.0067202   -0.063886  0.00075039   -0.011592
-0.0093186   -0.025234   0.0062721   -0.010618   -0.062262    0.012119   -0.017439
0.0036737   -0.022961  -0.0047713   -0.015165   -0.048296    0.016341   -0.019712
0.009845   -0.021986  -0.0096434   -0.017114   -0.021337    0.013093   -0.017439
0.0088706   -0.023935  -0.0093186   -0.012242    0.016016   0.0049729   -0.015165
0.0056225   -0.025559  -0.0037969  -0.0037969    0.056942  -0.0044465   -0.015165
0.0014   -0.027183    0.003024   0.0026992    0.095594   -0.011917    -0.01549
-0.0024977   -0.028157    0.011469   0.0065969     0.12775  -0.0099683    -0.01549
-0.0041217   -0.026858    0.019914    0.009845     0.16413   0.0017248   -0.015815
-0.0044465   -0.021661    0.028359    0.012119     0.21382     0.01764   -0.017439
-0.0050961   -0.012242    0.036154    0.014068     0.27261    0.031282   -0.020687
-0.0050961  -0.0021729    0.042975    0.015692     0.32946    0.036479   -0.021986
-0.00087364   0.0046481    0.045899    0.017965     0.37201    0.031282   -0.019388
0.0072465   0.0085458    0.042326    0.024137     0.39247    0.024786   -0.013541
0.015367    0.008221    0.030957    0.033231     0.38467    0.021213  -0.0099683
0.01894   0.0043233    0.016991    0.037778       0.347    0.020239   -0.010943
0.01764  -0.0031473   0.0020496    0.033556     0.27944    0.020888   -0.013216
0.012768  -0.0083442  -0.0076946    0.021213     0.18622    0.020239   -0.012242
0.0036737   -0.013866   -0.015165    0.008221    0.081303    0.016991  -0.0073698
-0.0096434   -0.019388   -0.019063  -0.0015233   -0.025884    0.015367  -0.0034721
-0.024585   -0.021661   -0.022961  -0.0050961    -0.12625    0.014717  -0.0011985
-0.034978   -0.021661   -0.023935  -0.0021729    -0.21622    0.013418   0.0023744
-0.036278   -0.023935   -0.021661   0.0049729    -0.29612    0.012443   0.0088706
-0.027833   -0.028157   -0.018738    0.013093    -0.36531    0.011469     0.01829
-0.014516    -0.03173   -0.018738    0.016991     -0.4202    0.011794     0.02706
0.003024   -0.030106   -0.015815    0.018615    -0.45723    0.012119    0.032257
0.01894   -0.023285  -0.0089938    0.018615    -0.47249    0.012119     0.03453
0.032906   -0.014191 -0.00022403    0.020888    -0.45983    0.015367     0.03453
0.042975  -0.0050961   0.0085458    0.025111     -0.4163    0.021538    0.034855
0.048497   0.0020496    0.016341    0.028034    -0.35394    0.026735     0.03453
0.049796   0.0095202    0.022837    0.029333    -0.29223    0.029658    0.033231
0.045899    0.018615     0.02641    0.026735    -0.24091    0.031607    0.031932
0.036479    0.026735    0.024137    0.020564    -0.19608    0.031607     0.02641
0.026735    0.031607     0.01894    0.011794    -0.15256     0.02706    0.016341
0.023487    0.030957    0.012119 -0.00087364    -0.11326    0.013743   0.0056225
0.020888    0.028359   0.0020496   -0.013866   -0.084024   -0.010618  -0.0031473
0.014068    0.025761   -0.011592   -0.026533   -0.060638   -0.043099  -0.0099683
0.0023744     0.02706   -0.022961   -0.037252   -0.028807   -0.073955   -0.017114
-0.0080194    0.029983   -0.026858   -0.046022    0.011794   -0.098316   -0.026209
-0.016464    0.030957   -0.021986   -0.056091    0.055318    -0.11683   -0.034654
-0.018088    0.026085    -0.01549   -0.068434      0.0852    -0.13502   -0.043423
-0.021661    0.013743   -0.012567   -0.084349    0.080653    -0.15418   -0.051868
-0.03303  -0.0073698   -0.018738    -0.10124    0.049472    -0.17302   -0.062587
-0.051219   -0.033679   -0.033679    -0.11196    0.022188    -0.18536   -0.070382
-0.069083   -0.055441   -0.046022    -0.11358    0.022512    -0.18407    -0.06551
-0.077528   -0.068109   -0.047321    -0.10871    0.056942    -0.16718   -0.047321
-0.076554   -0.070058   -0.036602   -0.097017     0.11476    -0.13892   -0.019388
-0.066485   -0.064861   -0.020362   -0.078178     0.17387    -0.10514   0.0075714
-0.050569   -0.051219  -0.0054209   -0.057065      0.2109   -0.075255    0.028684
-0.037252   -0.032055   0.0043233   -0.035628      0.2174   -0.058689    0.039727
-0.025234   -0.012892     0.01017   -0.014516     0.19726   -0.063886    0.046548
-0.01614 -0.00054884    0.014717   0.0056225     0.16315   -0.084999    0.054019
-0.013216   0.0065969    0.021538    0.023812     0.11995    -0.10871    0.064737
-0.016464    0.011794    0.028359     0.03518    0.061814    -0.12463    0.076106
-0.024909     0.01764    0.029983    0.038753   -0.021661    -0.13404    0.080978
-0.03303    0.023162    0.025761    0.036479     -0.1295    -0.13989    0.075456
-0.037902    0.027385    0.020239    0.030308    -0.24318    -0.14216     0.06084
-0.040175    0.029983    0.013743    0.025436     -0.3325    -0.13729    0.041027
-0.036278    0.029333   0.0075714    0.026735     -0.3705    -0.12398    0.022837
-0.022636     0.02706  0.00042559    0.031607    -0.34679    -0.09994    0.012443
0.0017248    0.022188  -0.0018481    0.038428    -0.27306   -0.069083    0.012119
0.027385    0.016666   0.0020496      0.0433      -0.174   -0.034978    0.016016
0.04395    0.010819   0.0072465      0.0433   -0.076879  -0.0031473    0.017965
0.044924   0.0069217   0.0069217    0.041027  -0.0076946    0.021863    0.017316
0.033881   0.0065969   0.0010752    0.037454    0.018615    0.040702    0.015692
0.01764   0.0091954  -0.0050961    0.032257   0.0033489    0.057917    0.014068
0.0036737    0.010819  -0.0083442    0.029009   -0.042124    0.073507    0.012443
-0.0028225   0.0091954   -0.008669    0.026085    -0.10449    0.081303    0.011794
-0.0044465   0.0059473   -0.010943    0.021863    -0.15288    0.078379   0.0095202
-0.0073698   0.0059473   -0.016464     0.01764    -0.15256    0.063113   0.0052977
-0.011267   0.0069217   -0.022636    0.016991   -0.077528    0.038753   0.0023744
-0.015815   0.0065969    -0.02426    0.019589    0.062464    0.014392  0.00042559
-0.019712   0.0026992   -0.020362    0.023162     0.23234   0.0020496  -0.0018481
-0.020687  -0.0028225   -0.013216    0.024786     0.38045    0.009845  -0.0047713
-0.018738  -0.0060706  -0.0076946    0.024786     0.46555    0.036804  -0.0047713
-0.012567  -0.0031473  -0.0037969    0.024461     0.47237    0.076106  -0.0047713
-0.0031473   0.0056225  0.00010078    0.025111     0.41845     0.12028  -0.0034721
0.0075714    0.015042   0.0036737    0.023812      0.3327     0.15438      0.0014
0.017316    0.021538   0.0049729    0.020239     0.24273     0.17062   0.0095202
0.022837    0.022837   0.0043233    0.016991     0.15438     0.16413    0.016341
0.025436    0.022188  -0.0018481    0.015692    0.063438     0.14009    0.020888
0.025111    0.022512  -0.0093186    0.017316   -0.034654     0.10631    0.020888
0.028034    0.025111    -0.01484    0.020239     -0.1269     0.06831    0.016991
0.03583    0.031607   -0.016464    0.024137    -0.18439    0.029333   0.0052977
0.045574    0.038103   -0.016464    0.030957    -0.17984   -0.008669  -0.0096434
0.050446    0.039727   -0.015815     0.03583    -0.10871   -0.044073   -0.023935
0.047198    0.037454   -0.017114    0.037454   0.0059473   -0.070707   -0.031081
0.040052    0.034855   -0.017114    0.034855     0.13262   -0.087597   -0.031406
0.032906     0.03518   -0.015165    0.029009     0.24111   -0.093444    -0.02361
0.022837    0.035505   -0.013866    0.021213     0.30574   -0.089871   -0.015165
0.009845     0.03518  -0.0099683    0.015042     0.31646   -0.079802   -0.008669
0.00042559    0.033881  0.00010078    0.011794     0.28431   -0.062912  -0.0044465
-0.0015233    0.033556    0.013093    0.009845     0.22617   -0.037902  -0.0018481
0.0017248    0.037454    0.021538   0.0091954     0.16218   -0.010943 -0.00054884
0.0059473      0.0433    0.021863   0.0069217     0.10501   0.0078962 -0.00054884
0.0095202    0.047847    0.013418    0.003024    0.062139    0.013093 -0.00054884
0.014068    0.048822  0.00010078  -0.0021729    0.038753   0.0078962   0.0017248
0.017965    0.046223   -0.010618  -0.0063954    0.038103  -0.0054209   0.0065969
0.01894    0.039078   -0.017439  -0.0080194    0.053044   -0.019063    0.012119
0.016991    0.029333   -0.017439  -0.0047713    0.071234   -0.024585    0.012443
0.014392     0.01894  -0.0096434   0.0036737    0.083251   -0.017114   0.0065969
0.013093    0.011794      0.0014    0.013418    0.083901  0.00075039  -0.0018481
0.013418    0.013093    0.011144    0.022512    0.071234    0.023487   -0.010618
0.013743     0.01894    0.017316    0.031607     0.05142     0.04395   -0.013866
0.011469    0.024461    0.015692    0.041676    0.033881    0.056942  -0.0089938
0.0091954    0.029009   0.0078962    0.049147    0.022837     0.06896   0.0023744
0.011144    0.032906  -0.0011985    0.053369    0.017965    0.087149     0.01829
0.01829    0.036804  -0.0057458    0.051096    0.014392     0.11054    0.033881
0.024461    0.041351  -0.0031473    0.041027   0.0072465      0.1323    0.044924
0.02706      0.0433   0.0033489    0.024137  -0.0024977     0.14659    0.050121
0.026085    0.040052   0.0069217   0.0062721   -0.007045     0.15049    0.050446
0.023812    0.032582   0.0017248  -0.0093186  -0.0031473     0.14496     0.04395
0.022512    0.023162   -0.011592   -0.017764    0.013093     0.13132    0.030957
0.022837    0.013093   -0.025884   -0.021661    0.033881     0.11411     0.01894
0.023162   0.0072465   -0.034654   -0.025234    0.041027    0.095269    0.013418
0.024461   0.0091954   -0.034978   -0.029457    0.015042    0.079679    0.014717
0.02641    0.015692   -0.029457    -0.03238   -0.050569    0.067336    0.017965
0.029983    0.021538   -0.018413    -0.03303    -0.14119    0.059865    0.016666
0.028034    0.022512  -0.0083442   -0.029132    -0.23246    0.053369   0.0088706
0.017316    0.014392 -0.00054884   -0.021012    -0.30554    0.040702   0.0023744
0.0014   0.0020496   0.0043233   -0.010293    -0.35719    0.021538   0.0017248
-0.013541  -0.0063954   0.0033489  0.00075039    -0.38934 -0.00087364   0.0069217
-0.019712  -0.0067202  -0.0021729   0.0088706    -0.40591   -0.027183    0.011794
-0.016789  -0.0018481  -0.0099683    0.013418    -0.41338   -0.057715    0.012768
-0.0099683   0.0020496   -0.017764    0.014068     -0.4189   -0.085324   0.0078962
-0.0057458  0.00010078   -0.018738    0.011469    -0.42345    -0.10286  -0.0015233
-0.0041217  -0.0073698    -0.01549   0.0078962    -0.42215    -0.10968  -0.0083442
-0.0047713   -0.016464  -0.0089938   0.0046481    -0.40851    -0.11261  -0.0096434
-0.0054209   -0.024585  -0.0041217  0.00075039     -0.3705    -0.11326  -0.0073698
-0.0063954   -0.030431  -0.0031473  -0.0063954    -0.30197    -0.11001  -0.0044465
-0.010943    -0.03303  -0.0060706   -0.013541    -0.20972    -0.10124  -0.0037969
-0.015815   -0.034654  -0.0089938   -0.015165    -0.11618   -0.090845  -0.0037969
-0.020362   -0.035303  -0.0080194   -0.008669   -0.038227   -0.080776  -0.0034721
-0.021986   -0.034004  -0.0041217   0.0033489    0.018615   -0.068758  -0.0028225
-0.021337   -0.028157   0.0020496     0.01764    0.056292   -0.053817  -0.0024977
-0.020687   -0.017439   0.0085458    0.031282    0.082602   -0.037577  -0.0024977
-0.019388  -0.0037969    0.012768    0.040702    0.097218   -0.022636   -0.007045
-0.012567    0.011144    0.014068    0.045249     0.10371   -0.010293   -0.011917
-0.00054884    0.026735    0.012443    0.047847     0.10436   0.0010752   -0.014516
0.01017    0.044275   0.0095202     0.05272     0.10566   0.0091954   -0.012567
0.016991    0.064737   0.0052977    0.057592     0.11183     0.01829   -0.007045
0.024137    0.081627   0.0010752    0.058566     0.12093    0.029009  -0.0011985
0.033231    0.087799  -0.0031473    0.054019     0.12872    0.041676   0.0046481
0.042001    0.081952  -0.0089938    0.047523     0.13067    0.052395    0.014392
0.048172    0.071883   -0.012567    0.042001     0.13002    0.059216    0.032257
0.051096    0.063113   -0.014516    0.040052     0.12905    0.060515    0.051745
0.053044    0.057267   -0.014516    0.041027     0.13132    0.055968    0.066362
0.055968    0.048497  -0.0096434    0.041351     0.13425    0.047198    0.065712
0.057917    0.037129   0.0026992    0.036154     0.13457    0.037778    0.046548
0.052395    0.024137    0.021538    0.029658     0.13002    0.032582    0.017965
0.040052    0.011794    0.042326    0.022188     0.12353    0.029658  -0.0089938
0.026085   0.0043233    0.057917    0.016991     0.11995    0.024786   -0.023935
0.015042      0.0014    0.061814    0.011144     0.11736    0.015367   -0.029132
0.009845 -0.00054884    0.054019   0.0069217     0.11508   0.0023744   -0.025884
0.0078962  -0.0034721    0.039402   0.0065969     0.10826   -0.010943   -0.017764
0.0069217  -0.0047713    0.021538    0.011794    0.096244   -0.019063  -0.0073698
0.00075039  -0.0057458   0.0069217    0.017965    0.079679   -0.020037   0.0023744
-0.0093186  -0.0034721  -0.0024977    0.024137    0.062139   -0.014516   0.0085458
-0.016789 -0.00087364  -0.0060706    0.029009    0.047523  -0.0050961    0.012119
-0.019063  0.00010078  -0.0047713    0.030633    0.035505   0.0026992    0.019264
-0.017439  -0.0047713  0.00042559    0.029658    0.021213   0.0085458    0.032582
-0.01484   -0.014191   0.0075714     0.02641   0.0023744    0.013418    0.049472
-0.012567   -0.024585    0.012443    0.022188   -0.021012    0.017965    0.061814
-0.0093186    -0.03173    0.016016    0.017965   -0.042774    0.021538    0.065387
-0.0037969    -0.03173    0.019264    0.013418   -0.059339    0.021863    0.057592
0.00075039   -0.027508    0.019914    0.008221   -0.071682     0.01829    0.039402
0.0017248   -0.021337    0.016666   0.0010752   -0.078827    0.009845    0.017965
-0.0011985   -0.017439    0.008221  -0.0076946    -0.08305  -0.0050961 -0.00054884
-0.0089938   -0.018413  -0.0015233    -0.01614   -0.085648   -0.022311   -0.010618
-0.022961   -0.022636  -0.0089938    -0.02361    -0.08305   -0.034978   -0.016789
-0.039526    -0.02426   -0.010943   -0.028482   -0.071682   -0.042774   -0.022636
-0.052518   -0.022311   -0.008669   -0.029782   -0.045372   -0.051868   -0.027183
-0.056741   -0.020362  -0.0034721   -0.026858  -0.0044465   -0.059989   -0.026209
-0.050569   -0.020687   0.0036737   -0.020362    0.044599    -0.06551   -0.019712
-0.038227   -0.024585   0.0052977   -0.011592    0.095919   -0.064536   -0.013216
-0.025884   -0.029457   0.0023744  -0.0024977     0.15081   -0.060313   -0.010293
-0.016464   -0.028157  -0.0037969   0.0059473      0.2083   -0.054467   -0.013216
-0.007045   -0.017439   -0.010943    0.013743     0.26287   -0.044723   -0.021661
0.003024  -0.0060706   -0.013216     0.01894     0.30574   -0.034329   -0.030756
0.013093  -0.0031473  -0.0063954    0.016016     0.32556   -0.024909   -0.039851
0.022837  -0.0093186   0.0059473   0.0065969     0.31776   -0.019063   -0.045697
0.032906   -0.021337    0.019589  -0.0047713     0.28236   -0.016464   -0.047646
0.041351   -0.031406    0.028684   -0.013866     0.22974   -0.021661   -0.048296
0.042975   -0.037252    0.029009   -0.018738     0.16868   -0.030756    -0.04927
0.029658   -0.037577    0.020239   -0.021661     0.10469   -0.039526   -0.053492
0.0059473   -0.031406   0.0069217   -0.022311    0.040702   -0.044723   -0.057715
-0.01484   -0.019388  -0.0054209   -0.022311   -0.013216   -0.045697   -0.057065
-0.024585  -0.0028225   -0.014191   -0.022961   -0.053817   -0.038876   -0.053817
-0.027183    0.010819   -0.021661   -0.025559   -0.081426   -0.020037   -0.047321
-0.03303    0.021538   -0.025559   -0.027833   -0.097341   0.0091954   -0.036602
-0.04862    0.025761   -0.021661   -0.028482    -0.10416    0.039078   -0.021337
-0.071682    0.021538   -0.010293   -0.026858    -0.10774    0.057592  -0.0024977
-0.099615   0.0078962  -0.0011985   -0.020362    -0.11683    0.059541    0.017316
-0.1256  -0.0096434   0.0036737   -0.014516    -0.13989    0.047523    0.034855
-0.14476    -0.02361   0.0020496   -0.008669    -0.17562    0.026735    0.042326
-0.15061   -0.027508  -0.0028225  0.00075039    -0.22207 -0.00054884    0.036154
-0.14281   -0.019712  -0.0073698    0.010495    -0.27988   -0.032055    0.021863
-0.12365   -0.007045  -0.0083442    0.013093    -0.34614   -0.068758   0.0043233
-0.095393   0.0052977  -0.0044465    0.008221    -0.40721    -0.10481   -0.014191
-0.064861    0.013418   0.0062721  -0.0011985    -0.43709    -0.12755   -0.028482
-0.034978    0.016341    0.011469  -0.0099683    -0.41565    -0.13177   -0.029457
-0.010293    0.016666   0.0065969   -0.012892    -0.34062    -0.12235   -0.019388
0.0056225    0.016666  -0.0076946  -0.0050961    -0.23279    -0.10546  -0.0028225
0.013418    0.019589   -0.021337    0.010819     -0.1191   -0.086948    0.011469
0.016666    0.024137   -0.030106     0.02641   -0.023285   -0.071357    0.015692
0.01829    0.028034   -0.029782    0.033231    0.040052    -0.05739    0.015367
0.019264    0.029658   -0.022311    0.032906     0.06961   -0.043099    0.017316
0.021863    0.031282   -0.011917    0.028684    0.073182   -0.029132    0.025761
0.024137    0.036154  -0.0034721    0.021863    0.059865   -0.013866    0.039402
0.02706    0.042651   0.0039985    0.015367    0.037454   0.0020496    0.055318
0.029658    0.051745   0.0085458    0.014068    0.011794    0.018615    0.066686
0.032582    0.062464   0.0062721    0.017316   -0.013541    0.030308    0.069285
0.037454    0.072533  0.00010078    0.023812   -0.034329    0.036154    0.065062
0.043625    0.082277  -0.0057458    0.031282    -0.04862    0.037778    0.058566
0.050446    0.089098   -0.011917    0.036804   -0.060313    0.039727    0.054993
0.057917    0.092996   -0.016789    0.036479   -0.073306    0.045249    0.059216
0.061814    0.093645   -0.019388    0.031282   -0.092469    0.052395    0.072858
0.061165    0.088124   -0.018413    0.024786    -0.11683    0.056292    0.090072
0.056942    0.080328   -0.011267    0.020564    -0.14152     0.05207     0.10144
0.050121    0.073507   0.0020496    0.022512    -0.15938    0.037778     0.10047
0.039727    0.069285     0.01829    0.028684     -0.1662    0.013418      0.0865
0.029658    0.063438    0.031607    0.033881    -0.15776   -0.012892    0.066686
0.020564     0.05272    0.036804     0.03518    -0.13307    -0.03238    0.049796
0.016991    0.037454     0.03453     0.03583    -0.09929   -0.039851    0.038103
0.019589    0.021213    0.029009     0.03518   -0.060963   -0.035953    0.031607
0.025761   0.0088706    0.024461    0.030957   -0.022311   -0.026533    0.026085
0.033556   0.0039985    0.022188    0.020239    0.019589   -0.019063    0.017316
0.042651   0.0049729    0.020888   0.0072465    0.063763   -0.019712   0.0033489
0.054344   0.0088706    0.016341  -0.0050961     0.10729    -0.03238   -0.011592
0.065387     0.01017   0.0069217    -0.01484     0.14009   -0.056416   -0.021986
0.071883   0.0091954  -0.0041217   -0.020362     0.15763   -0.079477   -0.026858
0.06831   0.0095202    -0.01549   -0.020037     0.15796   -0.096042    -0.03238
0.054344    0.013743   -0.020687    -0.01614     0.14756    -0.10221   -0.042124
0.036154    0.020239   -0.016789   -0.011592     0.14139    -0.09994   -0.058689
0.021538    0.026735  -0.0060706  -0.0047713     0.14464   -0.090521   -0.069408
0.015367    0.030957   0.0059473   0.0033489     0.15016   -0.076879   -0.068434
0.015367    0.031607    0.016016   0.0085458     0.15601   -0.061288   -0.058689
0.018615    0.028034    0.021863    0.011794     0.15698   -0.043748   -0.045047
0.022188    0.020239    0.023162    0.014717     0.15796   -0.026533    -0.03238
0.028034    0.010819    0.022837    0.017316     0.15861   -0.013866   -0.019712
0.034206   0.0033489    0.024137    0.019589     0.16023  -0.0099683  -0.0067202
0.038753 -0.00087364    0.024461    0.019264     0.15828   -0.012242   0.0059473
0.034206  -0.0050961    0.020239    0.014068     0.14302   -0.025559    0.016341
0.021213  -0.0093186    0.010819   0.0072465     0.10859   -0.047971    0.024461
0.0072465   -0.014191  -0.0037969  0.00010078    0.048822   -0.073955    0.031607
-0.0018481   -0.021337   -0.018738  -0.0050961   -0.047971    -0.10156    0.030957
-0.0024977   -0.029132    -0.03173  -0.0089938    -0.18894    -0.12268    0.025436
0.0014   -0.038551   -0.039526   -0.008669    -0.36141    -0.13112    0.017316
0.0046481   -0.046996   -0.042124   -0.007045    -0.54005    -0.13242   0.0072465
0.00075039   -0.051868   -0.038551  -0.0076946    -0.69953    -0.13177  -0.0054209
-0.011917   -0.050894   -0.030756   -0.012242    -0.81809    -0.13307   -0.022311
-0.027508   -0.044073   -0.024909   -0.018738    -0.87396    -0.13307   -0.037902
-0.037902    -0.03303    -0.02426   -0.019712    -0.85934     -0.1295   -0.046022
-0.038227   -0.023285   -0.026858   -0.013216    -0.78074    -0.11423   -0.044723
-0.029132   -0.016789   -0.027508  -0.0034721    -0.65828   -0.083375   -0.034329
-0.016464   -0.012892   -0.026209   0.0069217    -0.52154   -0.041475   -0.018738
-0.0031473  -0.0073698   -0.025234     0.01764    -0.40071   0.0026992  -0.0041217
0.0075714   0.0023744    -0.02426    0.025111    -0.31042    0.040377   0.0065969
0.012443    0.015367   -0.024585    0.028684    -0.24123    0.067986    0.013093
0.0091954    0.028359   -0.021986    0.026735    -0.17465    0.083576    0.014392
0.0010752    0.037778   -0.013541    0.019914   -0.097017    0.087799    0.010495
-0.007045    0.042975  -0.0024977    0.012768     0.01017    0.080653    0.003024
-0.0076946      0.0433   0.0052977    0.009845      0.1625    0.067661  -0.0050961
-0.0018481    0.040377   0.0056225    0.011469     0.35771     0.05272   -0.011267
0.0049729    0.034855      0.0014    0.014068     0.57274    0.041351   -0.016464
0.0056225    0.025436  -0.0021729    0.013418     0.76535    0.037129   -0.020687
0.00075039    0.012768 -0.00022403   0.0095202     0.89592    0.037454   -0.023285
-0.0057458 -0.00054884   0.0033489   0.0078962     0.94172    0.039078   -0.019063
-0.0076946   -0.010943   0.0043233   0.0095202     0.90631    0.043625   -0.012567
-0.0041217   -0.015165    0.003024    0.013743     0.81667    0.053044   -0.010943
0.0046481   -0.012242  0.00042559    0.017316     0.70461    0.062789   -0.013541
0.01017  -0.0041217 -0.00087364     0.01894     0.58313    0.068635    -0.01549
0.0072465   0.0017248 -0.00054884     0.01829     0.43437    0.062789   -0.014191
-0.0011985   0.0039985  0.00075039    0.016341     0.23786    0.040377   -0.013541
-0.0031473   0.0059473   0.0017248    0.015367   0.0069217   0.0056225    -0.01484
0.003024   0.0072465   0.0023744    0.017316    -0.21167   -0.029782   -0.013216
0.015367   0.0043233   0.0020496    0.022188    -0.37018   -0.056741  -0.0044465
0.031607  -0.0021729   0.0010752    0.028034    -0.43644   -0.068758   0.0088706
0.045574  -0.0096434   0.0017248    0.030308    -0.41208   -0.065835     0.01829
0.052395   -0.013216   0.0049729     0.02641    -0.33445   -0.050894    0.020888
0.049472   -0.011592    0.011794    0.021213    -0.24383   -0.029457     0.01764
0.036154  -0.0067202    0.020564    0.017965    -0.16588  -0.0089938    0.012768
0.01829 -0.00087364    0.024137    0.014717    -0.10384   0.0065969   0.0069217
0.0039985   0.0010752    0.023162     0.01017   -0.045047     0.01894   0.0010752
-0.0031473  -0.0024977    0.019264   0.0046481     0.01829    0.030308  -0.0041217
-0.0060706   -0.010618    0.014068  -0.0024977    0.089423    0.037778   -0.013216
-0.010293   -0.019388   0.0095202  -0.0083442      0.1651    0.040377   -0.027833
-0.019063   -0.025234   0.0039985   -0.010618     0.23104    0.036154   -0.044723
-0.030756   -0.025559  -0.0047713  -0.0099683     0.26579    0.028684   -0.057715
-0.038876   -0.025884   -0.015815   -0.010943     0.25605    0.024137   -0.059014
-0.0405   -0.029457   -0.025234   -0.013216     0.20993     0.02706   -0.047971
-0.035953   -0.034978   -0.029457   -0.014191     0.15179    0.038103    -0.03173
-0.025884   -0.039526   -0.028807   -0.013216     0.10859    0.051745   -0.016789
-0.013866   -0.038551   -0.021337   -0.010943    0.093321    0.066362  -0.0044465
-0.0050961    -0.03238  -0.0057458   -0.007045     0.10177    0.083901   0.0069217
0.00042559   -0.024909   0.0088706  -0.0015233     0.12255     0.10729    0.015692
0.0039985   -0.019388    0.017316   0.0036737     0.14984     0.13067    0.020564
0.0085458   -0.018088    0.020564   0.0056225     0.17452     0.14691    0.022512
0.015042   -0.017114    0.022188   0.0033489     0.18979     0.15731    0.021863
0.021538   -0.017114    0.023162 -0.00087364     0.19174     0.16413    0.021538
0.028359   -0.020037    0.022188  -0.0050961     0.17712       0.169    0.023812
0.03518   -0.021661    0.017316  -0.0096434     0.14691     0.17095    0.026735
0.042326   -0.021337   0.0085458  -0.0099683     0.10274     0.16673    0.029658
0.050446   -0.021337  -0.0021729  -0.0034721    0.042001     0.15406    0.033556
0.057917    -0.02361   -0.012892    0.008221   -0.028482     0.13132    0.038428
0.058566   -0.026533   -0.020362    0.017316   -0.096042     0.10209    0.038753
0.05207   -0.021661    -0.02426    0.020564    -0.14606    0.070584    0.030633
0.042326  -0.0093186   -0.025884    0.016341    -0.16815    0.039078    0.021538
0.031282   0.0078962   -0.026209   0.0072465    -0.15808    0.013093    0.021213
0.021213    0.021538   -0.020687  -0.0015233    -0.12463  -0.0067202    0.030957
0.012768    0.030308  -0.0093186  -0.0021729   -0.077203   -0.022636    0.049147
0.0020496    0.033556   0.0052977   0.0072465   -0.030756   -0.033354    0.066686
-0.014191    0.032906    0.016341    0.021863    0.003024   -0.037902    0.073832
-0.03238    0.027709     0.01764    0.033231    0.022188   -0.039851    0.072858
-0.048296    0.020888    0.015042    0.034206     0.02706   -0.037902    0.067986
-0.056091    0.013093    0.012443     0.02706    0.022188   -0.036602    0.062139
-0.053168   0.0036737    0.009845     0.01764     0.01017   -0.038551    0.056617
-0.04115  -0.0060706    0.010819    0.012768  -0.0057458   -0.043748    0.048497
-0.024909  -0.0093186    0.014717    0.014717   -0.023285   -0.050569    0.036479
-0.011592  -0.0054209    0.017965    0.020239   -0.041475   -0.059664    0.023162
-0.0054209   0.0043233    0.014068     0.02641   -0.063886   -0.072006    0.012443
-0.010293    0.015042   0.0046481    0.029333   -0.092794   -0.086623   0.0056225
-0.021012    0.023162  -0.0041217    0.028359     -0.1269   -0.097666 -0.00054884
-0.030431    0.024137  -0.0089938    0.024786    -0.16035    -0.10059  -0.0060706
-0.034329     0.01894   -0.010943    0.024137    -0.18764   -0.095717   -0.012242
-0.036927    0.012443   -0.010618    0.026085     -0.2055   -0.084999   -0.018088
-0.039201   0.0069217  -0.0099683    0.029983    -0.21622   -0.071357   -0.022636
-0.036278   0.0059473  -0.0076946    0.030957    -0.22532    -0.05804    -0.02361
-0.027833   0.0069217  -0.0037969    0.030308    -0.23116   -0.050894   -0.024585
-0.021337    0.011794  -0.0011985    0.029983    -0.23019   -0.050244   -0.025559
-0.019388    0.016016   0.0026992    0.029658    -0.21525   -0.051544   -0.023935
-0.022311    0.016341   0.0062721    0.026735    -0.18536   -0.051219   -0.015815
-0.025884    0.012768    0.011144     0.01894    -0.14314   -0.048945  -0.0034721
-0.025559   0.0072465    0.014392   0.0091954   -0.095717   -0.044398    0.008221
-0.018738   0.0017248    0.015367  0.00042559   -0.052518   -0.037252    0.013743
-0.0076946  0.00010078    0.013418  -0.0028225   -0.018088   -0.030756    0.013418
0.0026992   0.0069217    0.012443 -0.00087364    0.011144   -0.026533   0.0088706
0.0069217    0.021538    0.009845   0.0017248    0.038103    -0.02361  0.00075039
0.0059473    0.034206   0.0023744   0.0036737    0.059865   -0.020687  -0.0073698
-0.00054884     0.03453   -0.008669   0.0043233    0.072858   -0.019063  -0.0099683
-0.0096434    0.023162   -0.016789      0.0014    0.080978   -0.016464  -0.0050961
-0.016464   0.0088706   -0.020362  -0.0057458    0.081303   -0.011917   0.0062721
-0.016789  0.00075039   -0.019063   -0.010618    0.075131  -0.0073698     0.01829
-0.013541  -0.0011985    -0.01614   -0.007045    0.061165  -0.0047713    0.026085
-0.008669   0.0020496   -0.013866   0.0075714    0.043625  -0.0060706    0.028684
-0.0034721   0.0049729   -0.012567    0.027709    0.031932  -0.0083442    0.025111
0.0049729   0.0072465  -0.0096434    0.044599    0.027709   -0.011592    0.023162
0.017316   0.0085458  -0.0018481    0.055968    0.029658   -0.013216    0.024461
0.028359    0.009845   0.0069217     0.06019    0.032582  -0.0060706    0.029333
0.033231    0.013743    0.015692    0.054344    0.031282    0.010495    0.033231
0.029009     0.01829    0.020888    0.040702    0.027385     0.03583    0.036154
0.021538    0.019914    0.024461     0.02706    0.021863    0.061165    0.039402
0.014392    0.019914    0.025761    0.018615    0.012768    0.081952    0.047198
0.012443    0.019589    0.026085    0.016991   0.0049729    0.096244    0.056617
0.014392    0.016991    0.027385    0.016016   0.0046481     0.10339    0.066362
0.016666    0.011144    0.025436    0.011794    0.011469     0.10144    0.071883
0.015692    0.008221    0.021213   0.0046481    0.020888    0.092346    0.070909
0.010819   0.0062721    0.013418  -0.0011985    0.034206     0.07708    0.063763
0.0017248   0.0075714      0.0014  -0.0018481    0.055318    0.058891    0.051096
-0.0080194   0.0078962   -0.012567   0.0020496    0.091047    0.041027    0.036154
-0.018738   0.0056225   -0.025559   0.0088706     0.14399    0.028359    0.020888
-0.028807   0.0052977   -0.036927    0.015367     0.21447    0.021863   0.0039985
-0.039201   0.0056225   -0.045372    0.016991      0.2908    0.016991   -0.011592
-0.046347   0.0023744   -0.050894    0.013093     0.35836   0.0088706   -0.020687
-0.051544  -0.0063954   -0.050244   0.0052977     0.39767 -0.00054884   -0.019388
-0.053168   -0.019388   -0.042449  -0.0024977     0.39702  -0.0063954   -0.011267
-0.04992   -0.030431   -0.029457  -0.0093186     0.36064   -0.010943  -0.0057458
-0.039851   -0.034654   -0.013541    -0.01614     0.29697   -0.012892   -0.008669
-0.026209   -0.030756 -0.00087364   -0.021012     0.21935   -0.010943   -0.017439
-0.0099683   -0.020687   0.0043233   -0.024585     0.14269  -0.0028225    -0.02426
0.0033489  -0.0057458   0.0020496   -0.026533    0.076106   0.0078962   -0.027183
0.010495   0.0075714  -0.0047713   -0.027508    0.022512    0.013418    -0.02426
0.014068     0.01894   -0.012567   -0.026209   -0.017764    0.011469   -0.017114
0.012443    0.029658   -0.020362   -0.022636   -0.046996   0.0065969  -0.0083442
0.0072465    0.036804   -0.027833   -0.013866   -0.072006  -0.0011985  -0.0031473
0.00075039    0.039078   -0.034329  -0.0041217   -0.096692  -0.0083442  -0.0044465
-0.0060706     0.03518    -0.04115      0.0014    -0.12138   -0.017114   -0.013866
-0.012892    0.028034   -0.044723  0.00042559    -0.14087   -0.025884   -0.025234
-0.020037     0.01894   -0.043748  -0.0060706    -0.14574   -0.033679   -0.034978
-0.025234    0.012119   -0.040175   -0.011917    -0.13177   -0.039526   -0.041475
-0.027508    0.008221   -0.034978   -0.013541    -0.10384   -0.037577   -0.045697
-0.026858   0.0095202   -0.025559   -0.014191   -0.074605   -0.034329   -0.043748
-0.024585    0.014392   -0.010943   -0.015165   -0.050894   -0.039201   -0.031081
-0.018413    0.019589   0.0049729    -0.01484   -0.037252    -0.05804   -0.011267
-0.0080194    0.022837    0.016341  -0.0096434   -0.035628   -0.084999   0.0065969
0.0078962    0.023812    0.021213  -0.0021729   -0.048296    -0.10968    0.017316
0.028034    0.023487    0.022837   0.0043233   -0.084999    -0.12722    0.019589
0.046873    0.023812    0.024461    0.008221    -0.16003    -0.13437    0.014392
0.058566    0.025111    0.024137   0.0065969    -0.26364    -0.13534   0.0069217
0.061814    0.027709     0.01829   0.0020496    -0.35979     -0.1334  0.00075039
0.058241     0.02706   0.0075714 -0.00054884     -0.4124     -0.1282  -0.0044465
0.050121    0.022512  -0.0028225    0.003024    -0.40461    -0.11553   -0.008669
0.038428    0.013418   -0.010618    0.015042    -0.35264   -0.098316   -0.013866
0.023162 -0.00054884    -0.01614    0.029333    -0.28865   -0.079152   -0.019388
0.008221    -0.01484   -0.018088    0.036479    -0.23571   -0.058365   -0.023935
-0.0024977   -0.025234   -0.016464    0.031607    -0.19868   -0.039526   -0.024909
-0.0076946   -0.029457   -0.013541     0.01829    -0.17205   -0.028482   -0.022311
-0.0067202   -0.028807   -0.008669   0.0072465    -0.15256   -0.027833   -0.021986
-0.0015233   -0.020362  -0.0015233  0.00042559    -0.13989   -0.034004   -0.031406
0.0088706  -0.0093186   0.0062721   0.0020496    -0.13307   -0.043099   -0.047646
0.025111  0.00075039    0.014392     0.01017     -0.1269   -0.045372   -0.062587
0.039078   0.0056225    0.019914    0.019914    -0.12657   -0.040825   -0.066485
0.046223    0.008221    0.025761    0.029009    -0.12982   -0.030756   -0.059339
0.046223     0.01017    0.032257    0.033556     -0.1308   -0.021661   -0.044073
0.039078    0.013418    0.034206    0.031282     -0.1256   -0.018413   -0.027833
0.029983     0.01764    0.031932    0.019264    -0.11326   -0.024585   -0.018738
0.024137    0.025761    0.029333  0.00010078    -0.10514   -0.038876   -0.017439
0.021538    0.042326    0.030633   -0.016789    -0.11586   -0.058365   -0.019712
0.019264    0.063113     0.03453   -0.027508    -0.14964   -0.080451   -0.020362
0.0095202    0.078055    0.036804    -0.03238     -0.2042    -0.10579   -0.019388
-0.0044465    0.082277    0.035505   -0.034329    -0.27436    -0.13469   -0.020037
-0.017764    0.075131    0.029333   -0.038876    -0.34614    -0.16782   -0.024585
-0.022636    0.059541     0.01829   -0.045697    -0.40461    -0.19901   -0.030431
-0.018413    0.041676   0.0059473   -0.052843    -0.43806    -0.21947   -0.038227
-0.011592    0.022188  -0.0018481   -0.059014    -0.45041    -0.22402    -0.04927
-0.011592   0.0072465  -0.0076946   -0.062262    -0.45073    -0.21005   -0.059014
-0.019712  -0.0018481   -0.010943   -0.062587    -0.43677    -0.18407   -0.068434
-0.031406  -0.0018481   -0.019388    -0.05739    -0.39681    -0.14769   -0.071357
-0.039201   0.0046481   -0.028482   -0.045697    -0.32601    -0.10286   -0.064861
-0.038551    0.014392   -0.033354   -0.027508    -0.22921   -0.055441   -0.046347
-0.03238    0.023162   -0.030431  -0.0054209    -0.12495  -0.0093186   -0.020037
-0.028482    0.028359   -0.021661    0.017316   -0.026209    0.036804   0.0065969
-0.033354    0.022837   -0.011267    0.031607    0.066362    0.078704    0.027385
-0.04115    0.010819  -0.0024977     0.03583     0.14919     0.11801    0.038428
-0.046022  -0.0050961   0.0020496    0.032582     0.21025     0.14691    0.042326
-0.046996   -0.017439   0.0039985    0.027385     0.23364     0.16121    0.040377
-0.046022   -0.025559   0.0023744    0.022837     0.20928     0.15763    0.036479
-0.042774   -0.025234  0.00075039    0.020239     0.13522     0.14074    0.031932
-0.037252   -0.018088   0.0010752    0.022512    0.022512     0.11833    0.026085
-0.027183   -0.010943    0.003024    0.029333    -0.11131    0.093645    0.020564
-0.015815  -0.0099683   0.0052977    0.033881    -0.24708    0.072208    0.014068
-0.0063954   -0.013541   0.0059473    0.032582    -0.35102    0.050446    0.009845
-0.0011985   -0.019712   0.0036737    0.026085    -0.37538    0.021538    0.010819
0.00010078   -0.021661  -0.0031473    0.017316    -0.28573   -0.012567    0.013418
-0.0015233   -0.021337   -0.011267   0.0065969   -0.084999   -0.041475    0.013418
-0.0037969   -0.021661   -0.015815  -0.0031473     0.18362   -0.054142   0.0075714
-0.0041217   -0.022636   -0.013541  -0.0093186     0.44606    -0.04862  -0.0011985
0.00010078   -0.025884  -0.0057458  -0.0083442     0.63607    -0.03238  -0.0073698
0.0049729    -0.03303   0.0046481  0.00042559     0.71922   -0.008669  -0.0083442
0.009845   -0.039526    0.014068    0.014392     0.70039    0.014392  -0.0063954
0.014392   -0.043099    0.023812    0.029333     0.62016    0.033556  -0.0021729
0.016666   -0.042774    0.031282    0.039727     0.52726     0.04395   0.0023744
0.013093   -0.039851    0.033556    0.047198     0.45093    0.045574   0.0049729
0.0017248   -0.035303    0.031932     0.05207     0.40319    0.038428   0.0023744
-0.013866   -0.029782    0.026735    0.051745     0.37883    0.026735  -0.0015233
-0.027833    -0.02426    0.017316    0.045899     0.36908    0.016341  -0.0041217
-0.033354   -0.018088   0.0072465    0.036804     0.36129    0.016991  -0.0034721
-0.026209  -0.0099683  -0.0015233    0.027385     0.35024    0.028359  -0.0021729
-0.008669  -0.0011985  -0.0080194    0.019264     0.34375    0.047198    0.003024
0.013093   0.0046481   -0.012892    0.013093     0.35219    0.063438    0.011144
0.032906   0.0072465    -0.01549     0.01017     0.37883    0.067011    0.017316
0.04395   0.0078962   -0.013541    0.012443     0.41456    0.056617    0.016341
0.047198   0.0078962  -0.0054209    0.016666     0.44151    0.040702    0.011469
0.047198   0.0085458   0.0072465    0.021213     0.43632    0.024461   0.0075714
0.050771    0.011144    0.018615    0.023487      0.3811   0.0059473   0.0065969
0.055968    0.013418    0.021213    0.020239     0.28008   -0.012242   0.0091954
0.056292    0.016016    0.015367    0.015042     0.16121   -0.026209     0.01017
0.050771    0.017965   0.0039985     0.01017     0.06019    -0.03303   0.0085458
0.038103    0.019589  -0.0057458   0.0085458   0.0020496   -0.029132   0.0049729
0.025761    0.016991   -0.011267   0.0075714  -0.0083442   -0.012567   0.0033489
0.015692    0.013093   -0.013541   0.0095202    0.012443    0.012443   0.0026992
0.0085458    0.010819   -0.016464    0.013743    0.039402    0.038428   0.0039985
0.0052977    0.012768   -0.020362    0.019914    0.054993    0.062789   0.0069217
0.0078962    0.016666   -0.021012    0.028359    0.054668    0.082927    0.013093
0.015042    0.018615   -0.020037    0.042001     0.03583    0.095594    0.016991
0.023162    0.016666   -0.015165     0.05272   0.0010752     0.10177    0.014717
0.02706    0.010495  -0.0080194    0.053694   -0.042774    0.096569   0.0078962
0.022837  0.00075039 -0.00022403    0.044924   -0.084999    0.084876   0.0056225
0.013743  -0.0083442   0.0056225    0.031607     -0.1178    0.070259    0.008221
0.0065969   -0.011592   0.0078962    0.020239    -0.14379    0.054668    0.011794
0.0033489   -0.007045  0.00042559    0.016341    -0.16295    0.045899    0.016341
0.0039985   0.0033489   -0.012567    0.016666    -0.17789    0.046873    0.021538
0.0059473    0.014392   -0.024585     0.01764    -0.18926    0.054668    0.024786
0.011144    0.020888   -0.032705     0.01829    -0.19966    0.066037    0.026085
0.015042    0.020239   -0.034654    0.021538    -0.20908    0.075781    0.023487
0.017316    0.014068   -0.036602    0.027709    -0.22012    0.082602    0.020239
0.016341   0.0059473   -0.039526     0.03518    -0.23474    0.086824    0.014392
0.013743 -0.00022403   -0.042449    0.041027    -0.25292    0.092021   0.0088706
0.0078962  -0.0024977   -0.044723    0.042975    -0.27209    0.095269   0.0049729
-0.0015233  -0.0011985   -0.044073    0.038103    -0.28118    0.094295   0.0033489
-0.012242   0.0020496   -0.038551    0.029658    -0.27241    0.087474   0.0049729
-0.020687   0.0059473    -0.03303    0.020239    -0.24708    0.075456    0.009845
-0.026533   0.0078962   -0.032705    0.008221    -0.21167    0.062789    0.015367
-0.030756   0.0036737   -0.035953  -0.0034721    -0.17724    0.048822    0.016991
-0.038227  -0.0028225   -0.038551   -0.013216    -0.15613     0.03583    0.013093
-0.047971  -0.0083442   -0.036278   -0.020362    -0.15256    0.025761   0.0062721
-0.054792  -0.0093186   -0.029132   -0.027508    -0.15711     0.01894 -0.00022403
-0.055116  -0.0067202   -0.021012   -0.032705    -0.16263    0.015692  -0.0024977
-0.046671  -0.0034721   -0.011917   -0.032055    -0.16555    0.016016  -0.0011985
-0.029782  -0.0011985  -0.0047713   -0.023285    -0.16945    0.020888 -0.00054884
-0.0054209 -0.00022403  0.00075039   -0.011917    -0.18277    0.027709  -0.0015233
0.023487   0.0020496   0.0036737 -0.00087364    -0.20128    0.039727  -0.0015233
0.049147   0.0065969   0.0075714   0.0085458    -0.21102    0.054668 -0.00022403
0.065062    0.011144    0.010495    0.012119    -0.19283    0.065062   0.0033489
0.071234    0.012443    0.013743    0.008221    -0.13697    0.067011    0.008221
0.068635   0.0091954    0.018615 -0.00054884   -0.037252    0.062464    0.013418
0.059541   0.0056225    0.022188  -0.0060706    0.097218    0.058891    0.014068
0.046223   0.0049729    0.022837   -0.007045     0.24695    0.055968    0.012443
0.034855    0.011469     0.01829  -0.0031473       0.385    0.052395    0.015367
0.027709    0.021863    0.015692   0.0069217     0.48926    0.047198    0.027709
0.017965    0.030308    0.014068    0.020239     0.54188    0.041027    0.045249
0.0072465    0.033556    0.015367    0.032582     0.52986    0.032906    0.061165
-0.0041217    0.030308    0.019264     0.03583     0.45613     0.02641    0.070584
-0.013866    0.022512    0.023812     0.02641      0.3379    0.022188    0.073182
-0.018738    0.011794    0.026735     0.01017     0.20343    0.016666    0.072208
-0.017764   0.0020496    0.026085  -0.0041217    0.070909   0.0069217    0.068635
-0.011592   0.0017248    0.023487   -0.011917   -0.046996  -0.0076946    0.065387
-0.0021729   0.0095202    0.022188   -0.012892    -0.14249   -0.020362    0.062789
0.0088706     0.01764    0.025436  -0.0073698    -0.21395   -0.028482    0.062789
0.021538    0.020888    0.031932   0.0033489    -0.26592   -0.034004    0.071234
0.032582    0.019589    0.036479    0.015692    -0.30749   -0.039526    0.080003
0.040377    0.016016    0.037129    0.025436    -0.34257    -0.04992    0.082277
0.045899    0.013093    0.034855    0.031932    -0.37375   -0.063886    0.078379
0.05142    0.011469    0.033881    0.033231    -0.39584   -0.079802    0.067336
0.058566    0.012443     0.03518    0.031607    -0.40071   -0.091495    0.054344
0.06084    0.015042    0.039078    0.029658    -0.38577    -0.09994    0.045249
0.059865    0.020564    0.045249    0.029333    -0.35394    -0.10579    0.046548
0.059865    0.028034    0.050121    0.025436    -0.30814    -0.11456    0.053369
0.063763    0.032582     0.05142    0.017965     -0.2487    -0.12463    0.059541
0.066037    0.034206    0.049472   0.0075714    -0.17205    -0.13145     0.06019
0.06084    0.033556    0.045249  -0.0024977   -0.080127    -0.13372     0.05207
0.049796    0.033231    0.039402  -0.0096434    0.027709    -0.13015    0.040052
0.037778    0.032582    0.030957   -0.013541     0.15211    -0.11813    0.033231
0.030308    0.030633    0.016016   -0.011267     0.28658   -0.097341    0.031282
0.025761    0.025111  -0.0047713  -0.0050961     0.41163   -0.069083    0.032582
0.023487    0.013093   -0.028482   0.0010752     0.50258   -0.042774    0.034206
0.022837  -0.0015233    -0.04927   0.0059473     0.53831   -0.024909    0.032582
0.022837   -0.012242   -0.059339   0.0052977     0.51362   -0.013541    0.026735
0.025111   -0.015165   -0.057065   0.0020496     0.44346   -0.010293    0.017316
0.023487   -0.012242   -0.045697  0.00075039     0.35414   -0.012892   0.0010752
0.017965  -0.0050961   -0.031406 -0.00022403     0.26969   -0.018413   -0.021337
0.011794  0.00010078   -0.017764  -0.0021729     0.21285   -0.027183     -0.0405
0.0075714   0.0036737  -0.0099683  -0.0024977     0.18784   -0.035953   -0.046996
0.0036737   0.0043233   -0.012242  -0.0015233     0.18557   -0.042449   -0.040175
0.00075039  0.00042559   -0.019712 -0.00087364     0.19141    -0.04862   -0.026209
0.00075039  -0.0021729   -0.028482  0.00010078     0.19076   -0.061613   -0.013216
0.0039985 -0.00022403   -0.034329   0.0049729     0.18427   -0.080451  -0.0057458
0.0059473   0.0023744    -0.03238    0.010819     0.17615    -0.10644   -0.007045
0.00010078   0.0056225   -0.020687    0.014068     0.17127    -0.13145    -0.01549
-0.011917   0.0056225  -0.0028225    0.011794       0.169    -0.15029   -0.025884
-0.025559   0.0036737    0.013743   0.0078962     0.16185    -0.16003   -0.036602
-0.040825   0.0017248    0.024137   0.0052977     0.14334    -0.16198   -0.046022
-0.055441   0.0010752    0.024461   0.0023744     0.11183    -0.15711   -0.051544
-0.06681  -0.0021729    0.016991   0.0023744    0.070584    -0.15061   -0.052518
-0.072331  -0.0063954   0.0072465   0.0049729    0.022188    -0.14476   -0.047971
-0.069733   -0.015815   0.0020496   0.0069217    -0.03238    -0.14346   -0.037252
-0.059664   -0.023935   0.0046481   0.0062721   -0.092794    -0.14899    -0.02426
-0.049595   -0.027508     0.01017   0.0026992    -0.16847    -0.16393   -0.015165
-0.045697   -0.023935    0.015042  -0.0076946    -0.27599    -0.18634   -0.017114
-0.048945   -0.018088    0.015042   -0.024585    -0.42312      -0.212   -0.029782
-0.057715   -0.011917   0.0069217   -0.042124     -0.5943    -0.23506   -0.046996
-0.06616  -0.0076946   -0.011592   -0.055116    -0.75832    -0.25195   -0.061937
-0.072981  -0.0073698   -0.038551   -0.058365    -0.88338    -0.26267   -0.072331
-0.077203   -0.013541   -0.066485   -0.053817    -0.94541    -0.26722   -0.081426
-0.075904   -0.023935   -0.085324   -0.044073    -0.93632    -0.26234   -0.087597
-0.068434   -0.034329   -0.087272   -0.030756    -0.86551    -0.24286   -0.086948
-0.056416   -0.042124   -0.072006   -0.013866    -0.75118    -0.20778   -0.076554
-0.044398   -0.043423   -0.048945   0.0062721    -0.61801    -0.16458   -0.060638
-0.034004   -0.039526   -0.027183    0.024461    -0.48776    -0.12105   -0.046022
-0.02426   -0.029782   -0.012567    0.037454    -0.37798   -0.084674   -0.034329
-0.01549   -0.020037  -0.0093186    0.041351     -0.2958   -0.056741   -0.027833
-0.0047713   -0.014191   -0.012242    0.037454    -0.23474   -0.034329   -0.028807
0.0039985   -0.017439   -0.017764    0.029658    -0.18569   -0.014191   -0.032705
0.0065969   -0.025884   -0.019063    0.020888    -0.14411    0.003024   -0.035303
0.0036737   -0.032055   -0.012567    0.015367    -0.10481    0.016666   -0.034654
-0.0011985   -0.031081  -0.0031473    0.015692   -0.064861    0.029009   -0.031406
-0.0076946   -0.022961   0.0033489    0.021213    -0.03173    0.042651   -0.020687
-0.013866   -0.010293   0.0026992    0.021213   -0.015815    0.059541  -0.0037969
-0.019712   0.0043233  -0.0011985    0.015042   -0.016789    0.077405    0.014068
-0.021012     0.01829   -0.008669   0.0069217   -0.024909    0.096244    0.024786
-0.017764    0.029333   -0.013216   0.0017248   -0.028157     0.11508    0.024786
-0.010618    0.034206   -0.013541   0.0017248   -0.016789       0.131    0.016341
-0.0024977    0.037454  -0.0050961   0.0075714    0.011144     0.14237   0.0062721
0.0043233    0.039727    0.008221    0.017965    0.050121     0.14756  -0.0015233
0.0059473    0.038753    0.019589    0.029009    0.091047     0.14691  -0.0031473
0.0023744    0.031607    0.026735    0.035505     0.12353     0.14204  0.00042559
-0.0076946    0.018615     0.02706    0.038428     0.14302     0.13295   0.0056225
-0.017764   0.0065969    0.024786    0.040702     0.15114     0.12678     0.01017
-0.023285 -0.00022403    0.020564      0.0433     0.15341      0.1219    0.016016
-0.023285  -0.0028225    0.017316    0.046223     0.15568     0.11411     0.02641
-0.018413   0.0020496    0.013093    0.047523     0.16088     0.10306    0.037778
-0.0067202    0.012119   0.0075714    0.049796     0.17127    0.088124    0.043625
0.0078962    0.022837   0.0023744    0.051745     0.18362    0.067011    0.039727
0.017965    0.031932 -0.00022403     0.05142     0.19369    0.039727    0.027385
0.017965    0.037454   0.0023744    0.048822     0.20116    0.014717    0.015367
0.011469    0.036804    0.008221    0.042975     0.20863  0.00042559   0.0072465
0.003024    0.029009    0.014068    0.035505     0.21675   0.0043233   0.0059473
-0.0044465     0.01829    0.019264    0.026085     0.22649    0.019264   0.0062721
-0.010943   0.0085458    0.019914    0.017965     0.23494    0.038103   0.0052977
-0.01549  0.00075039    0.017316    0.011794     0.23429    0.056942  0.00075039
-0.019712  -0.0018481    0.010819   0.0085458     0.22357    0.070584  -0.0054209
-0.021337 -0.00022403   0.0062721   0.0049729     0.20505    0.078055  -0.0089938
-0.021337   0.0065969   0.0023744 -0.00022403     0.18654    0.081952   -0.007045
-0.019063    0.015042  0.00075039  -0.0067202     0.18037    0.082277   0.0017248
-0.014516    0.022512   0.0036737   -0.010618     0.20018    0.081303    0.013743
-0.0034721    0.025436    0.011144  -0.0089938     0.25248     0.07708    0.021213
0.011144    0.024137    0.017965  -0.0034721      0.3353    0.069934    0.020239
0.024461    0.020239    0.018615 -0.00054884      0.4282     0.06084   0.0095202
0.027709    0.014392    0.011794  -0.0028225     0.49836     0.05142  -0.0047713
0.020564   0.0072465   0.0010752   -0.012242       0.512    0.047523    -0.01549
0.012443    0.003024  -0.0089938   -0.023935     0.45061    0.047523   -0.017764
0.0078962   0.0039985   -0.016464   -0.033354     0.32491    0.051745   -0.016789
0.010495    0.008221   -0.020037   -0.037252      0.1729    0.057917   -0.016464
0.019589    0.011144   -0.019063   -0.036927    0.037778    0.065712   -0.016464
0.030633    0.011144    -0.01484   -0.037252   -0.052193    0.073507    -0.01614
0.037778   0.0069217   -0.011267    -0.04115   -0.085973    0.076431    -0.01484
0.039078   0.0020496  -0.0093186    -0.04862    -0.06616    0.073832  -0.0096434
0.035505  -0.0021729  -0.0089938   -0.054142   -0.011917    0.069934  -0.0028225
0.029983  -0.0050961  -0.0096434   -0.055441    0.047523    0.070909   0.0033489
0.024786  -0.0076946  -0.0089938   -0.051219    0.083251    0.081627   0.0088706
0.019914   -0.007045  -0.0034721   -0.036927    0.081952    0.097543    0.011794
0.015042  -0.0031473   0.0062721   -0.015815    0.047847     0.11183    0.012768
0.011469   0.0033489    0.015367  0.00010078  -0.0054209     0.11736    0.010495
0.0075714   0.0088706     0.01829   0.0049729   -0.063561     0.11281     0.01017
0.0049729    0.011469    0.012443      0.0014    -0.11748    0.096569    0.011794
0.0056225    0.012119   0.0023744  -0.0054209    -0.16588    0.073832    0.011469
0.0069217    0.013743  -0.0054209   -0.011917      -0.212     0.05142   0.0072465
0.0049729    0.014717  -0.0076946   -0.019063    -0.25715    0.029658  0.00010078
-0.00022403    0.013093  -0.0080194   -0.026533     -0.2945     0.01017  -0.0083442
-0.0063954    0.010495  -0.0080194   -0.034004    -0.31236  -0.0018481   -0.017764
-0.0096434   0.0091954  -0.0063954   -0.036278    -0.29905  -0.0054209   -0.027508
-0.008669    0.012768  -0.0021729   -0.027833    -0.24838  -0.0089938   -0.033354
-0.0047713    0.021538   0.0059473   -0.007045     -0.1636   -0.015165   -0.032055
-0.0047713    0.029333    0.013093    0.016666   -0.056091   -0.022311    -0.02361
-0.0083442    0.029983    0.014717    0.032906     0.05142   -0.027833   -0.012567
-0.011267    0.025436   0.0062721    0.039402     0.13944    -0.03238  -0.0031473
-0.010293    0.017965   -0.010293     0.03583     0.19499   -0.037902      0.0014
-0.0057458    0.012768    -0.02361    0.025436     0.21902   -0.052193   0.0036737
-0.00087364    0.010819   -0.026533    0.014717     0.22129   -0.075255  0.00075039
-0.00022403    0.013418   -0.021337   0.0078962      0.2122    -0.10384  -0.0028225
-0.0024977     0.01894    -0.01484   0.0062721     0.19758    -0.13242  -0.0011985
-0.0031473    0.025111  -0.0099683    0.012119      0.1664    -0.15418   0.0052977
0.00075039    0.031607  -0.0021729    0.027385     0.10729    -0.16555    0.014717
0.0072465    0.038428   0.0069217    0.046223    0.016991     -0.1675    0.023162
0.012443     0.04395    0.015042    0.058241   -0.089871     -0.1623    0.029658
0.01764    0.045899    0.019589     0.06019    -0.18114    -0.15029    0.029658
0.021538    0.045574    0.021863    0.055968    -0.23409     -0.1295    0.026735
0.022837    0.041351    0.020888    0.048822    -0.25065    -0.10546    0.019589
0.022837    0.039078    0.017316    0.043625    -0.24188   -0.085324    0.011144
0.022188    0.039402    0.008221    0.041351    -0.22661   -0.068434   0.0026992
0.022512    0.038753  -0.0044465    0.039402    -0.21622   -0.051219  -0.0015233
0.026085    0.035505   -0.016789    0.037454     -0.2133   -0.031406 -0.00022403
0.031932    0.028359   -0.022961    0.038103    -0.21102   -0.010943   0.0072465
0.034206    0.019914   -0.021661    0.038428    -0.20225   0.0075714     0.01764
0.028684    0.012768   -0.015815     0.03518    -0.18504    0.018615    0.023162
0.01764   0.0075714  -0.0073698    0.025111    -0.16165    0.021863    0.020564
0.0056225   0.0056225  0.00042559    0.015042    -0.13242    0.020564   0.0078962
-0.0028225   0.0059473   0.0062721    0.012119    -0.09994    0.019914  -0.0067202
-0.0073698   0.0056225    0.009845    0.018615   -0.056741    0.026735    -0.01549
-0.007045   0.0049729    0.008221    0.028359  -0.0054209    0.037454   -0.017114
-0.0015233   0.0043233 -0.00054884    0.036154    0.047523    0.047523    -0.01549
0.0072465  0.00042559   -0.011917    0.038753     0.09462    0.055968   -0.013216
0.012119  -0.0054209   -0.019388    0.037129       0.131    0.067011  -0.0089938
0.0075714   -0.011592   -0.021012     0.03453     0.15438    0.084551  -0.0037969
-0.0021729   -0.015165   -0.020037    0.033231      0.1677     0.10794   0.0017248
-0.012242   -0.015815   -0.017439     0.03518      0.1651     0.12807    0.003024
-0.020362   -0.012567   -0.012892     0.03583     0.14561     0.13782 -0.00022403
-0.026209  -0.0047713   -0.007045    0.032582     0.11151      0.1362   -0.008669
-0.030756   0.0039985  0.00075039    0.025436    0.071883     0.12872   -0.019712
-0.034654    0.009845   0.0091954    0.014068    0.036804     0.11768   -0.028157
-0.036927     0.01017    0.012768  0.00075039    0.014717     0.10631    -0.03173
-0.03238   0.0078962    0.008221   -0.011592    0.010495    0.093321   -0.029782
-0.020362   0.0036737  -0.0028225   -0.021012    0.023162    0.082602   -0.024909
-0.0073698  -0.0018481   -0.017764   -0.026209    0.045574    0.072858   -0.021337
0.0014  -0.0057458   -0.027183   -0.025234    0.069285    0.063763   -0.019388
0.0052977  -0.0083442   -0.024585   -0.019712    0.085525    0.057592   -0.016464
0.0052977   -0.012242   -0.013216    -0.01484    0.089748    0.055643   -0.010943
0.0010752   -0.016464   0.0043233   -0.014191    0.082602    0.056292  -0.0034721
-0.0037969   -0.022311    0.022837   -0.015165    0.073507    0.054993   0.0010752
-0.008669   -0.026209    0.036479   -0.013541    0.066362    0.051096   0.0010752
-0.0076946   -0.027508    0.044924  -0.0093186    0.063763    0.041676      0.0014
0.0014   -0.024585    0.046873  -0.0024977    0.064088    0.028684   0.0049729
0.014068   -0.021012    0.040377   0.0088706    0.067661    0.012443   0.0043233
0.021213   -0.018738    0.029658    0.021213    0.075781   -0.007045 -0.00054884
0.021538   -0.018738    0.015042    0.031607    0.087149   -0.025559  -0.0083442
0.017316   -0.018088 -0.00022403     0.03583     0.09462   -0.040825    -0.01614
0.0091954   -0.012892   -0.010618    0.032257    0.078379   -0.053492   -0.015165
-0.0028225  -0.0031473  -0.0089938    0.022188    0.015692    -0.06616  -0.0034721
-0.021012   0.0056225  -0.0011985    0.011469    -0.09994   -0.082725    0.015042
-0.038227    0.012443   0.0052977   0.0010752    -0.24675    -0.10091    0.028684
-0.049595    0.016991   0.0043233  -0.0054209    -0.38642    -0.11553    0.034206
-0.052843     0.01829  -0.0050961  -0.0057458    -0.48126    -0.11813    0.030308
-0.048296     0.01894   -0.015815      0.0014     -0.5118    -0.10838    0.022512
-0.040175    0.019589   -0.019063    0.012119    -0.48581   -0.092469    0.017965
-0.033354    0.020888   -0.012242    0.022512    -0.43254   -0.071032    0.021863
-0.026209    0.023487  0.00075039    0.026085    -0.38512   -0.048945    0.033881
-0.014191     0.02641    0.015367    0.024137    -0.36238   -0.034004    0.046548
0.0036737    0.027709    0.023162    0.019589    -0.35881   -0.026533    0.057917
0.026735     0.02641    0.024461    0.015692    -0.34679   -0.028157    0.065712
0.047198    0.022512    0.024137    0.011144    -0.29158   -0.038227    0.065387
0.061814    0.018615    0.024786  0.00010078    -0.17497   -0.053168    0.055318
0.06961     0.01764     0.02641   -0.012242  -0.0063954   -0.071357    0.043625
0.069934    0.015367     0.02641   -0.018088     0.18102   -0.086298    0.034206
0.066037    0.014717    0.019914   -0.014516     0.33855   -0.097017    0.028034
0.058566    0.017316   0.0078962  -0.0050961     0.42917    -0.10449     0.02706
0.046548    0.026085  -0.0011985   0.0049729     0.44639    -0.10774    0.027385
0.035505    0.037454  -0.0034721    0.013418     0.40806    -0.11033    0.026735
0.027385    0.045249  -0.0021729    0.019264     0.34505    -0.11423    0.026735
0.022512    0.047523  -0.0024977     0.02641     0.28236    -0.11715    0.031932
0.023162      0.0433  -0.0076946    0.030633     0.22357    -0.11715    0.043625
0.029009    0.034855   -0.016464    0.028684     0.16283    -0.11163    0.056292
0.03453    0.024461   -0.027833    0.021538    0.086175    -0.10124    0.063113
0.038753    0.015042   -0.040175    0.015042   0.0010752   -0.087272    0.063113
0.0433   0.0075714   -0.046671    0.013093   -0.075579   -0.072656     0.06084
0.044924   0.0039985   -0.045047    0.013093    -0.13404   -0.056416    0.059216
0.044924   0.0052977   -0.034004    0.015042    -0.17789   -0.039851    0.056942
0.040702   0.0091954   -0.017764    0.016016    -0.20972   -0.025884     0.05207
0.028359    0.011794 -0.00087364    0.015692    -0.23084   -0.014516    0.048497
0.010495    0.011469   0.0091954    0.012768    -0.23214  -0.0073698    0.048172
-0.0073698   0.0065969    0.010819    0.008221      -0.212  -0.0018481     0.05207
-0.020037  -0.0011985   0.0085458  0.00075039    -0.17627   0.0020496    0.055643
-0.025234   -0.010293   0.0033489  -0.0060706    -0.13145     0.01017    0.054019
-0.023935   -0.015815  0.00042559  -0.0076946   -0.086948    0.021538    0.045249
-0.018088   -0.014516  0.00075039  -0.0031473   -0.052193    0.033231    0.031607
-0.008669   -0.008669   0.0036737   0.0075714   -0.029782    0.045899    0.020888
0.0069217  0.00042559   0.0085458    0.016991   -0.017439    0.060515    0.016341
0.028684   0.0072465    0.013743    0.016341  -0.0054209    0.078704    0.023162
0.050771    0.014392    0.016341   0.0095202    0.011144     0.10112    0.031282
0.066037    0.023812    0.016666   0.0046481    0.028359     0.12743     0.03518
0.076755    0.033556    0.016666   0.0075714    0.042001     0.15373     0.03453
0.080653    0.042975    0.018615    0.019264    0.053044     0.17777    0.034206
0.07773    0.051096    0.025111    0.030633    0.056942     0.19628    0.037778
0.070259    0.054993    0.030957    0.039078    0.047847     0.20733    0.044924
0.06019     0.05272    0.032257    0.044275    0.021213     0.20765    0.048822
0.045899    0.042001    0.029009    0.048822   -0.016789     0.19369      0.0433
0.02706     0.02706     0.01894    0.049472   -0.048945     0.16608    0.028684
0.0033489    0.012119   0.0078962    0.042001   -0.059339     0.13002    0.010495
-0.021661  -0.0011985 -0.00022403    0.028359   -0.042124    0.093321   -0.008669
-0.040175   -0.011592  -0.0054209    0.013743  -0.0057458     0.06084   -0.026533
-0.04992   -0.018088  -0.0063954  0.00075039    0.039727    0.032257   -0.041799
-0.051868   -0.019712  -0.0037969  -0.0093186    0.084551   0.0059473   -0.056091
-0.046996   -0.016464  -0.0015233   -0.013541     0.11671   -0.019063   -0.068434
-0.037252   -0.011592  -0.0037969  -0.0093186      0.1323     -0.0405   -0.071357
-0.021012  -0.0080194  -0.0067202  0.00042559     0.12483   -0.059664   -0.061937
-0.00054884   -0.007045  -0.0076946   0.0075714     0.10306   -0.073631   -0.046996
0.019264   -0.007045  -0.0054209   0.0059473    0.081627   -0.083375   -0.034978
0.031282  -0.0031473 -0.00087364  -0.0015233    0.082277   -0.089871   -0.029782
0.031932   0.0039985      0.0014  -0.0076946     0.11736   -0.094743   -0.030431
0.020564    0.011469   0.0036737   -0.010293     0.18816   -0.098965   -0.035303
0.0017248    0.014717     0.01017  -0.0080194     0.28853    -0.10124   -0.036927
-0.020037    0.011469    0.018615 -0.00087364     0.39214    -0.10221   -0.035303
-0.036278   0.0049729    0.024137   0.0072465     0.45451    -0.10091   -0.037252
-0.048296  -0.0015233    0.024461    0.010819     0.42462    -0.10319   -0.044723
-0.055441  -0.0057458    0.021213   0.0069217     0.28171    -0.11456   -0.050244
-0.062262   -0.011267     0.01829 -0.00022403    0.064088    -0.13534    -0.04992
-0.068109   -0.017114    0.019589  -0.0041217    -0.15451    -0.16003   -0.042774
-0.069733   -0.020362    0.024137  -0.0015233    -0.30554    -0.17984   -0.034329
-0.06551   -0.020037    0.022837 -0.00022403    -0.35394    -0.18569   -0.027508
-0.057715   -0.018088    0.009845  -0.0037969    -0.30489    -0.17757   -0.025884
-0.050244   -0.015165   -0.011267   -0.012242    -0.19186    -0.16068   -0.026209
-0.045697  -0.0096434   -0.032705   -0.020037   -0.062587    -0.14184   -0.028807
-0.045372 -0.00087364   -0.042774   -0.030431    0.031282     -0.1217   -0.030431
-0.042124   0.0088706   -0.039526   -0.038876    0.059541    -0.10351    -0.03303
-0.033354    0.015367   -0.026533   -0.037252    0.020239   -0.089546   -0.034004
-0.021986    0.016991   -0.012242   -0.029782   -0.064536   -0.077528   -0.030756
-0.012567    0.016341  -0.0044465   -0.020037    -0.15808   -0.065186   -0.021986
-0.011592    0.011794  -0.0044465   -0.013541    -0.22889   -0.053492   -0.011917
-0.01549    0.009845  -0.0037969  -0.0073698    -0.26202   -0.046347  -0.0057458
-0.024585    0.010819 -0.00022403  -0.0018481    -0.26299   -0.046671  -0.0034721
-0.031081   0.0095202  0.00042559   0.0020496    -0.25487   -0.051544  0.00010078
-0.028807   0.0062721  -0.0028225   0.0043233    -0.25682   -0.057065   0.0095202
-0.015815  0.00042559  -0.0073698    0.003024    -0.28183   -0.057065    0.021213
0.0036737  -0.0041217   -0.010618  -0.0031473    -0.33055    -0.04992    0.029333
0.025111  -0.0073698   -0.014191   -0.012242    -0.38415   -0.034978    0.030633
0.042651   -0.012567   -0.019388   -0.026533    -0.42117    -0.01549    0.029658
0.054019   -0.020362   -0.025884   -0.038876     -0.4215   0.0023744    0.028034
0.058891   -0.029457   -0.035303   -0.043423      -0.377    0.014392     0.02641
0.056292   -0.034654   -0.046022   -0.038227    -0.28963    0.021213    0.022837
0.049147   -0.028482    -0.05739   -0.025234    -0.17822    0.023487    0.015042
0.040377    -0.01484   -0.063561   -0.010293   -0.063561    0.022837   0.0059473
0.031607  -0.0024977   -0.061288   0.0049729    0.032906     0.01894   0.0017248
0.023487   0.0059473   -0.054467    0.016666     0.10144    0.011794   0.0056225
0.020888   0.0095202   -0.047971    0.022188     0.14139   0.0010752    0.016341
0.028034   0.0072465     -0.0405    0.023162     0.15828  -0.0080194    0.030633
0.041027 -0.00022403   -0.034978    0.022837     0.16315  -0.0099683    0.044599
0.051096  -0.0076946   -0.030756    0.024137      0.1638  -0.0018481     0.05207
0.054019   -0.010618   -0.030756    0.026735     0.16835    0.015042    0.053694
0.049147  -0.0093186   -0.035953    0.028034     0.17842    0.034206    0.052395
0.037778  -0.0089938   -0.043423    0.029009     0.19369    0.053369    0.054668
0.021538  -0.0096434   -0.044398    0.032582     0.20993     0.06961    0.058891
0.0095202  -0.0089938   -0.033679    0.040377     0.22065      0.0865    0.057917
0.0052977  -0.0047713   -0.018413    0.052395     0.22909     0.10274    0.050446
0.0065969      0.0014  -0.0057458    0.063763     0.24046     0.11183    0.039727
0.0085458   0.0075714  0.00010078    0.066686     0.25735     0.11151    0.030957
0.0059473    0.011469   0.0017248    0.062464     0.28268     0.10177    0.026085
-0.00054884    0.012443   0.0033489     0.05142     0.31127    0.081952    0.025436
-0.0060706   0.0065969   0.0075714    0.037778     0.33628    0.055643     0.02641
-0.008669  -0.0047713    0.011144    0.025436     0.34992    0.030308    0.025436
-0.0099683   -0.016464    0.011794    0.014392     0.34505   0.0095202    0.019264
-0.010293   -0.027508   0.0056225   0.0078962     0.32134   -0.008669   0.0036737
-0.0076946   -0.034004  -0.0037969   0.0026992     0.28268   -0.027833   -0.017114
-0.0031473   -0.037577   -0.010618      0.0014     0.23266   -0.045697   -0.034654
0.00010078   -0.036602   -0.008669   0.0017248     0.17874   -0.059014   -0.043748
-0.0021729    -0.03238  -0.0015233   0.0046481      0.1297   -0.068434   -0.045697
-0.0096434   -0.025884   0.0065969   0.0075714    0.087799   -0.076229   -0.040825
-0.019712   -0.018413    0.011469   0.0091954    0.050446   -0.084024   -0.034004
-0.029457  -0.0089938    0.011794    0.010495    0.016666   -0.091495   -0.027833
-0.038227  0.00010078   0.0078962    0.012119   -0.010293   -0.097017   -0.024585
-0.042774   0.0043233   0.0020496    0.016016   -0.029457   -0.096692   -0.021986
-0.042124      0.0014 -0.00087364    0.020564   -0.045372    -0.09117   -0.020687
-0.04115  -0.0076946   0.0010752    0.023162   -0.061613   -0.080451   -0.022311
-0.04115   -0.017764   0.0039985    0.024137   -0.080451   -0.064211   -0.028807
-0.036602   -0.028807   0.0043233    0.023487    -0.10449   -0.046671   -0.039526
-0.028157   -0.038227   0.0039985    0.021863    -0.13697   -0.034654   -0.052518
-0.021661   -0.046022   0.0033489    0.019589    -0.17919   -0.035953   -0.064861
-0.021986   -0.051219   0.0046481    0.017965    -0.22337   -0.046347   -0.073955
-0.029457   -0.050894   0.0088706     0.01764    -0.26169   -0.052193   -0.073306
-0.036602    -0.04862    0.014068    0.016016    -0.28313   -0.044723   -0.061937
-0.038876   -0.046022    0.017316     0.01017    -0.27728   -0.027183   -0.045697
-0.03238   -0.042124    0.015367  0.00075039    -0.24578  -0.0096434    -0.03173
-0.021337   -0.034329   0.0065969  -0.0076946    -0.19673   0.0023744   -0.022311
-0.0041217    -0.02426   -0.007045   -0.011917    -0.14379   0.0033489   -0.014516
0.016016   -0.013541   -0.019063   -0.012242   -0.097666  -0.0050961  -0.0076946
0.03583  -0.0044465   -0.022311   -0.007045   -0.061937   -0.020362  -0.0028225
0.052395 -0.00054884   -0.019712  -0.0021729   -0.032055   -0.034654   0.0033489
0.062789   0.0017248  -0.0096434   0.0023744  -0.0050961   -0.041475   0.0085458
0.064413    0.009845   0.0036737   0.0088706    0.016016   -0.040175    0.013743
0.058241    0.026735    0.016991    0.013418     0.02641   -0.029782    0.016666
0.047847    0.046223     0.02641    0.015692    0.026735   -0.013866    0.016666
0.032906     0.06084    0.027709    0.013743    0.019589   0.0023744    0.014068
0.012768    0.067011    0.021863   0.0059473   0.0095202    0.013418    0.012443
-0.0028225    0.066362    0.011144  -0.0041217 -0.00054884     0.01829    0.014392
-0.0099683    0.061489  -0.0018481   -0.010618  -0.0067202     0.01829    0.020888
-0.0083442    0.058241   -0.012242   -0.010618  -0.0034721    0.019589    0.029009
-0.0024977    0.054668   -0.017764   -0.007045   0.0095202    0.025111    0.037129
0.0059473    0.047847   -0.019063  -0.0018481    0.029009    0.033556    0.042326
0.011144    0.039078    -0.01549   0.0026992    0.044924    0.041676    0.047523
0.013093    0.032257   -0.008669   0.0052977    0.053369     0.05142     0.05272
0.012443    0.027385  -0.0011985   0.0062721    0.054019    0.062139    0.053694
0.0065969     0.02641   0.0026992   0.0059473    0.048172    0.074806    0.050446
-0.0054209    0.027385   0.0043233   0.0069217    0.032906    0.085525    0.043625
-0.014516    0.029983   0.0059473   0.0091954   0.0026992    0.092671    0.033231
-0.017114    0.031282   0.0075714    0.013093   -0.046347     0.09462    0.020239
-0.012242    0.029983   0.0095202    0.019264    -0.11098    0.089748   0.0072465
-0.0063954    0.028034    0.013093    0.027709    -0.17465     0.07773  -0.0044465
-0.0076946    0.025761    0.014392    0.036154    -0.22337    0.060515   -0.012242
-0.017114    0.023487    0.010495    0.038428     -0.2513    0.040377   -0.016789
-0.027508    0.019589 -0.00054884    0.031607    -0.26559    0.020239    -0.01614
-0.03303    0.015042   -0.013541    0.014717    -0.27079  0.00075039   -0.010943
-0.030106    0.012119   -0.021012  -0.0057458    -0.26722   -0.017764  -0.0060706
-0.020362    0.011794   -0.023285   -0.021661    -0.25682   -0.030756  -0.0031473
-0.0093186    0.014392   -0.022636   -0.030431    -0.23928   -0.038876  -0.0050961
-0.0021729    0.019589   -0.019712    -0.03173    -0.21655   -0.044398  -0.0099683
-0.0028225    0.022837   -0.014516   -0.024585    -0.19154   -0.053168   -0.018413
-0.011592    0.020888   -0.011267   -0.010943    -0.16458   -0.065835   -0.029782
-0.026858    0.011469  -0.0089938   0.0033489    -0.12852   -0.072656   -0.045047
-0.043423  0.00010078  -0.0057458    0.012119   -0.080127   -0.070058   -0.055766
-0.054142   -0.007045   0.0023744    0.013743   -0.019063    -0.05804   -0.059339
-0.055116  -0.0089938    0.013743    0.011794    0.047198   -0.037252   -0.059014
-0.045047  -0.0067202    0.024137   0.0088706     0.10956   -0.011267    -0.05739
-0.030106 -0.00087364    0.032582   0.0091954     0.16185    0.015367   -0.055116
-0.015815   0.0088706    0.031282    0.013418     0.20538    0.036804   -0.053492
-0.0018481    0.019914    0.021863    0.020239     0.24273     0.05142    -0.04992
0.011469    0.025111    0.014717    0.027385     0.27976     0.06019   -0.045697
0.023162    0.025436    0.014068    0.031282     0.31841    0.067011   -0.039526
0.029333    0.025111    0.015042    0.031282     0.35869    0.074157   -0.032705
0.028684    0.024461    0.012443    0.027385     0.39734    0.084876   -0.026533
0.021863    0.024461   0.0059473    0.019589     0.43015    0.096893   -0.021012
0.014392    0.024461   0.0017248    0.015042     0.45158     0.10501   -0.016464
0.013418    0.025111   0.0039985    0.014392      0.4623     0.10631   -0.011267
0.01764    0.025111    0.014392    0.015042       0.461    0.096569  -0.0057458
0.020888    0.021213    0.027385    0.014392     0.44054    0.075131   0.0010752
0.016991    0.014717    0.035505   0.0065969     0.38142    0.048497   0.0056225
0.0072465   0.0085458    0.037454   -0.011267     0.26125    0.022837   0.0095202
-0.00054884    0.003024    0.032582   -0.033354    0.079679  -0.0037969    0.015367
0.0014  0.00042559    0.021538    -0.04992     -0.1243   -0.028157    0.022512
0.014392 -0.00087364   0.0049729   -0.056416    -0.29612   -0.049595    0.029009
0.034206  0.00075039  -0.0083442   -0.054792    -0.39616   -0.063561    0.036479
0.051745   0.0056225   -0.012892   -0.047321      -0.415   -0.061288    0.046223
0.06084    0.014717   -0.010618   -0.037577    -0.37798   -0.042449    0.059865
0.054344    0.022512  -0.0037969   -0.024585    -0.32503   -0.012567    0.081303
0.031607    0.031282   0.0062721  -0.0060706      -0.288    0.021538     0.10696
-0.0018481    0.037129    0.019264    0.013418    -0.28768    0.050121     0.13165
-0.034004    0.041027    0.033231    0.029658    -0.32925    0.065712     0.14951
-0.050569    0.042326      0.0433    0.037129    -0.40169    0.063438     0.15373
-0.04992    0.041351    0.044924     0.03453    -0.48484    0.045249     0.14529
-0.034329    0.036479    0.036154    0.027709    -0.55077     0.01829     0.12678
-0.017439    0.030957    0.022837    0.023812    -0.57318   -0.012567     0.10306
-0.0067202    0.024461   0.0049729    0.024137    -0.53258   -0.046022    0.076755
-0.007045     0.01764   -0.012242     0.02641    -0.41988   -0.080776    0.048822
-0.011592    0.010495    -0.02361    0.030308    -0.24643    -0.11521    0.023162
-0.011592   0.0026992   -0.027833    0.033881   -0.046022    -0.15126   0.0023744
-0.007045  -0.0057458   -0.024909    0.032582     0.13522    -0.18439   -0.013216
-0.0021729  -0.0099683   -0.019063    0.021863     0.25702    -0.21232   -0.026533
0.00042559   -0.011917   -0.012242   0.0059473     0.30087    -0.23116   -0.042124
-0.0031473  -0.0099683  -0.0047713  -0.0076946     0.27716    -0.24026   -0.063561
-0.015815  -0.0099683  0.00010078   -0.013866     0.21252    -0.23896   -0.082725
-0.037252   -0.015815  0.00010078   -0.011917     0.14074    -0.22954   -0.092794
-0.061937   -0.026209  -0.0024977  -0.0050961    0.084876     -0.2068   -0.090196
-0.079802   -0.039526  -0.0073698   0.0052977    0.058566    -0.16555   -0.073306
-0.085973   -0.049595  -0.0096434    0.014392    0.063438    -0.11196   -0.047321
-0.080451   -0.052843  -0.0076946     0.01894    0.090397   -0.056091   -0.018738
-0.068758   -0.044723  -0.0028225     0.01894     0.12288  -0.0054209   0.0062721
-0.047971   -0.027833  -0.0011985    0.020888     0.14691    0.038753    0.021538
-0.018738   -0.011917    0.003024    0.021538     0.15179    0.075781    0.026085
0.014392  -0.0015233   0.0072465    0.017965     0.13295     0.10696     0.01894
0.044599    0.003024   0.0091954    0.014717    0.096244     0.12645    0.010819
0.061165   0.0065969     0.01017    0.016341    0.054668      0.1349   0.0033489
0.064413   0.0088706   0.0091954    0.022512    0.017965     0.13067  -0.0015233
0.059216   0.0085458   0.0085458    0.028684  -0.0076946     0.11508  -0.0057458
0.050446   0.0069217    0.008221    0.030633   -0.018413    0.088448   -0.011267
0.039727   0.0065969   0.0085458    0.025111  -0.0096434    0.055318    -0.01614
0.028034   0.0095202   0.0085458    0.016666    0.020564    0.020564    -0.01549
0.015367    0.012443   0.0095202   0.0088706     0.06831   -0.010943   -0.008669
0.0062721    0.013093    0.011144   0.0046481      0.1258   -0.036278  0.00010078
0.0046481   0.0078962   0.0091954   0.0072465     0.18167   -0.053168   0.0072465
0.010495      0.0014   0.0059473    0.012768     0.22909   -0.061613   0.0075714
0.01894  -0.0028225   0.0036737     0.01894     0.26612   -0.060638 -0.00022403
0.02641  -0.0054209   0.0039985    0.024461     0.29015   -0.052518   -0.010293
0.029983  -0.0054209   0.0052977    0.028034     0.29535   -0.042774   -0.018088
0.028684  -0.0031473   0.0023744    0.026085     0.27326   -0.037577   -0.019063
0.027385  -0.0028225  -0.0073698    0.024786     0.20765   -0.036927   -0.014191
0.028684  -0.0054209   -0.018088     0.02641    0.083901   -0.041799  -0.0096434
0.031282   -0.010293   -0.027833     0.02641    -0.10449   -0.054142   -0.011592
0.029983   -0.016789   -0.032055    0.022188     -0.3416    -0.07428   -0.021337
0.026085   -0.019063   -0.028482    0.016666    -0.58553   -0.098316   -0.035953
0.020888   -0.018738   -0.020687     0.01017    -0.79275    -0.12138   -0.046022
0.014068   -0.017114   -0.015165   0.0026992    -0.92398    -0.13599   -0.047321
0.0075714    -0.01484   -0.013541 -0.00022403    -0.95288    -0.13664   -0.042774
0.0043233   -0.013216   -0.015165      0.0014    -0.88338    -0.12138   -0.037252
0.0049729   -0.011592    -0.01484   0.0039985    -0.74014   -0.093119   -0.035953
0.0075714   -0.011592   -0.013216   0.0069217    -0.55662   -0.062262   -0.040175
0.0072465   -0.013216   -0.011267    0.008221    -0.35621   -0.033679   -0.045372
0.0043233   -0.017114   -0.010943    0.008221    -0.15353  -0.0063954   -0.050569
-0.0018481   -0.022961    -0.01484   0.0095202    0.033231    0.024461   -0.052518
-0.0073698   -0.027833   -0.017114    0.012768     0.17939    0.054993   -0.046022
-0.010293   -0.029457   -0.013216    0.019589     0.27099    0.077405   -0.035303
-0.012242   -0.032705  -0.0057458    0.027385     0.30802    0.088448   -0.025234
-0.016789    -0.03303   0.0023744    0.031607     0.29795    0.090072   -0.019388
-0.02361   -0.031081   0.0085458    0.025436     0.24988    0.087149   -0.021012
-0.029782   -0.024585    0.011794     0.01017      0.1729     0.08585   -0.025559
-0.027508   -0.017114   0.0095202  -0.0063954    0.080978      0.0852   -0.027833
-0.01614  -0.0096434   0.0039985   -0.014191  -0.0063954    0.089098   -0.022961
0.00042559  0.00010078  -0.0034721   -0.011917    -0.06681    0.096893  -0.0099683
0.016991   0.0065969   -0.010618  -0.0044465   -0.085648     0.10794   0.0056225
0.026735    0.009845   -0.015815   0.0017248   -0.055766     0.12093    0.019914
0.02641   0.0075714   -0.017764   0.0059473    0.012119      0.1336    0.031282
0.01764   0.0049729    -0.01484   0.0085458    0.098517     0.14302    0.041027
0.003024   0.0026992  -0.0099683    0.011469     0.18524     0.14854    0.049147
-0.0096434  0.00042559  -0.0050961    0.016341     0.25962     0.15016    0.057267
-0.019388  0.00010078  -0.0041217    0.021863     0.30867     0.15146    0.063113
-0.025559   0.0026992  -0.0080194    0.029009     0.33303     0.15211    0.064737
-0.027833    0.008221   -0.015165     0.03518     0.34115     0.15179    0.059865
-0.025884    0.015042   -0.021012    0.036804      0.3457     0.14756    0.051745
-0.022961    0.019914   -0.024909    0.030957     0.35706     0.13977    0.047847
-0.017439    0.022837   -0.031406    0.016016     0.38435       0.131    0.053694
-0.010618    0.024786     -0.0405 -0.00054884     0.42332     0.12223    0.067011
-0.0021729    0.028034    -0.04862   -0.011917     0.45938     0.11086    0.078704
0.0039985    0.031932   -0.051219    -0.01484     0.48471    0.092671    0.083251
0.0065969     0.03518   -0.043099   -0.010618     0.50128     0.06831     0.07708
0.0049729    0.034206   -0.027508  -0.0021729     0.51882    0.039078    0.060515
0.003024    0.028034   -0.010618   0.0072465     0.53798   0.0069217    0.038428
0.0056225    0.022512    0.003024    0.015042     0.55422   -0.021012    0.016991
0.009845    0.020564   0.0088706    0.017965      0.5565   -0.042449      0.0014
0.01764    0.023812    0.010819    0.015367     0.52791   -0.055441  -0.0080194
0.024137    0.030633    0.013093    0.011144     0.45775   -0.062262  -0.0096434
0.029333    0.034855    0.014717   0.0095202      0.3314   -0.060638  -0.0047713
0.031282    0.031932    0.016991    0.011794      0.1323   -0.053492   0.0036737
0.03453    0.024786    0.016016    0.014068    -0.12982   -0.044723    0.013093
0.038753    0.017316    0.013743    0.012119    -0.40428   -0.035953    0.019589
0.044599    0.011469    0.012119   0.0043233     -0.6297   -0.030106    0.021863
0.047198   0.0075714   0.0088706  -0.0073698    -0.76774   -0.030431     0.01829
0.046223   0.0065969   0.0046481   -0.017764    -0.81809   -0.035303    0.011469
0.039402    0.010819   0.0010752   -0.022961    -0.80477   -0.042774    0.003024
0.029983    0.020564  0.00042559   -0.022311    -0.75443   -0.047321  -0.0028225
0.019914    0.030633   0.0020496   -0.017439    -0.69239   -0.046996  -0.0047713
0.01017    0.039078   0.0095202  -0.0093186    -0.63392   -0.044398  -0.0041217
0.0039985    0.044275    0.022512  0.00042559    -0.58325   -0.039851  -0.0044465
0.0062721    0.047198    0.038428   0.0078962    -0.53875   -0.034654  -0.0037969
0.015367    0.046548    0.049472    0.014392     -0.4988   -0.034004 -0.00054884
0.024461    0.044599    0.049147    0.017316    -0.45983   -0.037252   0.0033489
0.026085    0.044275    0.041027    0.014392    -0.42215   -0.036927   0.0065969
0.021863    0.046873    0.031932   0.0072465    -0.37927   -0.031081   0.0078962
0.015042    0.051096    0.024786 -0.00087364     -0.3286   -0.023285    0.015042
0.010819    0.054993    0.023487  -0.0034721    -0.26527   -0.016464    0.029983
0.0075714    0.057267    0.024786  -0.0034721    -0.19803   -0.011267    0.046223
0.0052977    0.056292    0.022512 -0.00087364    -0.13567  -0.0067202    0.056942
0.0049729    0.055643    0.012443  0.00075039   -0.075904  -0.0021729    0.057267
0.0062721    0.058891  -0.0018481  -0.0018481   -0.014516  0.00042559    0.051096
0.012443    0.065387   -0.016789  -0.0093186    0.048497  0.00010078    0.042651
0.022188     0.06961   -0.025234   -0.020362     0.10696  -0.0054209     0.03583
0.030633    0.063438   -0.025234   -0.031406     0.15698    -0.01549    0.033231
0.032257    0.046548   -0.020037   -0.039526     0.19531   -0.029132    0.031932
0.023812    0.026085   -0.015815   -0.046347     0.21285   -0.046671    0.029009
0.011144    0.008221   -0.015815   -0.051544     0.21512    -0.06616    0.023812
-0.0041217  -0.0047713   -0.017764    -0.04927     0.21707    -0.08305    0.016666
-0.016789   -0.010943   -0.017114   -0.040175     0.22584   -0.097341   0.0091954
-0.024909   -0.011592   -0.013541   -0.029457     0.23818    -0.10838 -0.00054884
-0.027833  -0.0080194  -0.0093186   -0.022636     0.24955    -0.11293    -0.01549
-0.023935  -0.0037969  -0.0089938   -0.018413     0.25507    -0.11066   -0.035628
-0.013216  -0.0011985   -0.014516   -0.014516      0.2515    -0.10384   -0.055116
0.00075039  -0.0037969   -0.022636   -0.010618     0.24078   -0.097341   -0.065186
0.012443  -0.0076946   -0.025559  -0.0057458     0.22941   -0.092794   -0.062587
0.019589   -0.010293   -0.019388   0.0020496     0.21707   -0.086623   -0.051219
0.019264  -0.0093186  -0.0080194    0.013743      0.2057    -0.07493   -0.035303
0.014392  -0.0050961   0.0026992    0.020239     0.19596   -0.059989   -0.021012
0.0075714  0.00075039    0.011794    0.022188     0.19141   -0.046671   -0.014191
0.00075039    0.008221    0.014717    0.022837     0.18946   -0.038551   -0.014191
-0.0034721    0.013743    0.011144    0.025436     0.18816   -0.036278   -0.017114
-0.0057458    0.013093   0.0010752    0.025761     0.18102   -0.039851   -0.019712
-0.0089938   0.0072465  -0.0083442    0.022512     0.16933   -0.044398   -0.019712
-0.013866  0.00075039   -0.013216    0.016016     0.15503   -0.045047   -0.017439
-0.021661  -0.0044465   -0.015815   0.0075714     0.14464   -0.043748   -0.015815
-0.028807  -0.0083442   -0.018088   0.0046481     0.14074   -0.043423   -0.020362
-0.034004   -0.011267   -0.020687    0.008221     0.13425   -0.044723   -0.027833
-0.036927   -0.012242   -0.022636    0.016666     0.11703   -0.048296   -0.031081
-0.034004   -0.011267   -0.021012    0.026735    0.091047   -0.052843   -0.027833
-0.026533  -0.0083442   -0.016464    0.028684    0.055643   -0.055766   -0.022636
-0.020687  -0.0015233   -0.008669    0.022512    0.020888   -0.057065   -0.022311
-0.022636    0.003024  -0.0028225    0.014392  -0.0044465   -0.058689   -0.025884
-0.03303    0.003024   0.0023744   0.0069217   -0.012567   -0.060313    -0.03173
-0.046347  -0.0015233   0.0039985    0.003024   -0.007045   -0.062587   -0.034978
-0.051868  -0.0057458   0.0039985      0.0014   0.0039985   -0.063237   -0.028157
-0.045697  -0.0044465   0.0033489      0.0014    0.013743   -0.062262   -0.010293
-0.03173   0.0023744   0.0039985   0.0017248    0.016016   -0.057715    0.014717
-0.017764    0.011469   0.0039985   0.0039985    0.008221   -0.047646    0.039402
-0.0099683    0.017316  0.00075039   0.0095202   -0.007045   -0.038227    0.054344
-0.0099683     0.01894  -0.0047713    0.017965   -0.019712   -0.032055    0.054019
-0.011917    0.017316   -0.010943    0.029333   -0.021012   -0.031081    0.042975
-0.010293    0.011794  -0.0083442    0.041027   -0.014516   -0.032055    0.026735
-0.0047713   0.0065969  0.00075039    0.047523   -0.007045   -0.029457    0.013743
-0.00054884   0.0033489   0.0091954    0.048497  -0.0073698   -0.023285    0.008221
0.0026992  0.00042559    0.011144    0.046223    -0.01614   -0.015815   0.0075714
0.0062721  -0.0024977     0.01017    0.042326   -0.025234  -0.0083442    0.009845
0.008221  -0.0047713   0.0078962    0.036154   -0.030431  -0.0015233    0.011144
0.0072465  -0.0041217  0.00075039    0.029658   -0.029782   0.0052977   0.0091954
0.0059473   0.0046481   -0.011917    0.023812   -0.021661    0.012443   0.0072465
0.0023744    0.016666   -0.023935    0.021538  -0.0080194    0.019914    0.012119
-0.0067202    0.026735   -0.027508    0.023487     0.01017    0.026735    0.026735
-0.019388     0.02641   -0.020037    0.026085    0.031282    0.029983    0.044275
-0.03173    0.016341  -0.0031473    0.028684    0.048497    0.034855    0.056617
-0.035953   0.0033489    0.014717    0.029333    0.057267    0.042975    0.064413
-0.034004  -0.0063954    0.026085    0.030957    0.059865    0.049147    0.067011
-0.025234   -0.010293     0.02641    0.033556    0.058566    0.050121    0.067011
-0.0093186  -0.0076946    0.015692    0.039078    0.055318    0.046873    0.063113
0.0095202  -0.0011985 -0.00087364    0.048172    0.050771    0.038753    0.056617
0.024786   0.0049729   -0.013216    0.057917    0.050121    0.026735    0.049472
0.033881    0.010495   -0.016789     0.06084    0.054019    0.011469    0.041027
0.033231    0.011469   -0.011917     0.05272     0.06084  -0.0044465    0.029333
0.025436   0.0088706  -0.0047713    0.037129    0.065712   -0.016464    0.016016
0.014068   0.0036737  -0.0011985    0.019914    0.063438   -0.022636   0.0039985
0.003024  -0.0083442  -0.0024977   0.0078962    0.042651   -0.022961  -0.0057458
-0.0063954   -0.024585  -0.0080194   0.0033489   0.0033489   -0.019388   -0.016464
-0.0083442   -0.040175   -0.013216   0.0033489   -0.050569   -0.014516   -0.030106
-0.0021729   -0.046671   -0.019063   0.0049729    -0.10221   -0.012567   -0.045372
0.0075714   -0.043748    -0.02361   0.0059473    -0.13534   -0.017764   -0.060313
0.012768   -0.034004   -0.025234   0.0069217    -0.14639   -0.024585   -0.070058
0.011794   -0.019063   -0.024909    0.008221    -0.14411   -0.029132   -0.070382
0.0056225  -0.0034721    -0.02426    0.009845    -0.14249   -0.026858   -0.064861
-0.0028225    0.008221   -0.026209   0.0095202    -0.15158   -0.018088   -0.058365
-0.0080194    0.011469   -0.028157   0.0059473    -0.17042  -0.0076946   -0.054467
-0.011592    0.008221   -0.026533   0.0020496    -0.18926  -0.0011985    -0.04862
-0.0099683  0.00042559   -0.023285  -0.0011985    -0.19933   0.0020496   -0.039201
-0.008669  -0.0063954   -0.019388  -0.0024977    -0.19901   0.0046481   -0.029782
-0.0089938   -0.010618   -0.012892  -0.0028225    -0.19186   0.0059473   -0.023285
-0.010618   -0.014516  -0.0037969  -0.0044465    -0.18471   0.0052977   -0.023935
-0.0093186   -0.018738   0.0062721  -0.0057458    -0.17887   0.0020496   -0.030756
-0.0031473   -0.021012    0.012119  -0.0041217    -0.17594  -0.0021729     -0.0405
0.0052977   -0.019388    0.012768   0.0036737    -0.17919  -0.0096434   -0.046022
0.009845   -0.015815    0.014392    0.014392    -0.19283   -0.017764   -0.045372
0.0072465  -0.0096434    0.018615    0.025436    -0.21655   -0.020037   -0.041475
0.00075039  -0.0037969    0.025111    0.029658    -0.24123   -0.014516   -0.035953
-0.0047713 -0.00022403    0.029658    0.024786     -0.2539  -0.0037969   -0.033679
-0.0076946  -0.0011985    0.033556    0.014068    -0.24643   0.0095202   -0.031081
-0.008669  -0.0044465    0.038753   0.0010752    -0.22142    0.021538   -0.028807
-0.010293  -0.0067202    0.042651   -0.011917    -0.18926    0.033231    -0.02426
-0.012242  -0.0067202    0.042975   -0.020687    -0.16068    0.040052   -0.017764
-0.01484  -0.0018481    0.036804   -0.022636    -0.14119    0.042001   -0.013216
-0.015165   0.0056225    0.023487   -0.018088    -0.13015    0.040377   -0.008669
-0.01549    0.012119   0.0078962  -0.0099683     -0.1217    0.038428  -0.0021729
-0.01549    0.016666  -0.0073698 -0.00087364    -0.10838    0.039078     0.01017
-0.016789     0.01829   -0.020362   0.0046481   -0.096042    0.040052    0.023487
-0.017114    0.014068   -0.026858   0.0036737   -0.094093    0.037778    0.031932
-0.019063   0.0059473   -0.024585 -0.00022403    -0.10514    0.032906    0.030957
-0.023285  -0.0015233    -0.01484  -0.0041217     -0.1178    0.023487     0.02706
-0.027833  -0.0037969  -0.0015233   -0.010943    -0.12657    0.013418    0.025111
-0.027183  -0.0011985   0.0091954   -0.017114    -0.12885   0.0065969    0.026085
-0.018738   0.0026992     0.01894   -0.022636    -0.12365   0.0062721    0.028034
-0.0076946   0.0059473    0.025761   -0.022636    -0.11131    0.013418    0.030633
0.0036737   0.0065969    0.032257   -0.016789   -0.093119     0.02706    0.033556
0.01829   0.0043233    0.037454   -0.007045   -0.067784    0.045899    0.037778
0.036154 -0.00087364    0.038103   0.0059473   -0.037577    0.070584      0.0433
0.054019  -0.0054209    0.032906    0.016991  -0.0034721    0.094945    0.050446
0.067986  -0.0057458    0.023812    0.020564    0.029009     0.11313    0.055643
0.074806  -0.0034721    0.012768    0.016341    0.056292     0.11995    0.054993
0.070584  -0.0037969   0.0039985    0.010495    0.078379     0.11443    0.046873
0.055643   -0.008669   -0.007045   0.0049729    0.093645     0.10501    0.037129
0.036154   -0.018413   -0.020687   0.0046481     0.10436    0.096569    0.031932
0.022188   -0.026533   -0.032705   0.0095202     0.11378     0.09462    0.032906
0.023487   -0.026533   -0.035953    0.018615      0.1323    0.099167    0.040702
0.038103   -0.013866   -0.028482    0.029983     0.16998     0.11086    0.051096
0.059865   0.0065969   -0.010293    0.039727     0.22617     0.12223    0.061814
0.076755    0.029983    0.010819    0.044275     0.28528     0.12807    0.071883
0.083901    0.049472    0.026085    0.040052     0.32848      0.1258    0.079029
0.078704    0.061814    0.031282    0.033231     0.34667     0.11768    0.084226
0.066037    0.063113    0.028684    0.027385     0.33725     0.10794    0.083576
0.053369    0.058566    0.023162    0.024137     0.31127    0.097218    0.078055
0.044275    0.051096    0.020239     0.02641     0.27424    0.083901    0.067661
0.039078    0.042651     0.01894    0.030957     0.23429     0.06831    0.057267
0.033556    0.035505     0.01829    0.035505     0.19596    0.054344     0.05207
0.028034    0.030633    0.016991    0.037129     0.16153    0.042975     0.05207
0.027385    0.028034    0.015042    0.032582     0.13165    0.033556    0.054993
0.031932    0.029983    0.012443    0.020888     0.10664    0.022188    0.058241
0.036479    0.034206    0.011794   0.0072465    0.082602   0.0043233    0.054668
0.041027    0.037454    0.012443  -0.0011985    0.058241   -0.022636    0.044599
0.044599    0.038753    0.013093  -0.0011985    0.036804   -0.054142    0.031607
0.049472    0.036154    0.016016   0.0043233    0.023812   -0.079152    0.015692
0.052395    0.034855     0.01829   0.0091954    0.025436   -0.092469   0.0017248
0.053694    0.033231    0.016341   0.0069217    0.032257   -0.097666  -0.0089938
0.056292    0.027709    0.009845   0.0023744    0.033231    -0.10124    -0.01614
0.061814    0.016016   0.0020496  -0.0028225    0.023487    -0.10481   -0.020687
0.071558  0.00075039  -0.0041217  -0.0050961   0.0046481    -0.11228   -0.021337
0.079354   -0.012892   -0.008669  -0.0050961   -0.018088    -0.12008   -0.017439
0.079679   -0.019063   -0.011592  -0.0050961   -0.035303    -0.11943   -0.011917
0.074806   -0.017114   -0.013541  -0.0037969   -0.038551    -0.10774   -0.010293
0.067336  -0.0089938   -0.013541  -0.0021729   -0.030431   -0.089871   -0.015815
0.060515  0.00010078  -0.0067202   0.0010752   -0.010618   -0.073306   -0.026858
0.050771    0.008221   0.0046481   0.0065969    0.016341   -0.061288   -0.038227
0.031607    0.014068     0.01764    0.013093    0.048497   -0.052843   -0.045697
0.003024     0.01894    0.025436     0.01829    0.082277   -0.044723   -0.044723
-0.029132    0.020239    0.025111    0.019914     0.10924   -0.031081   -0.036278
-0.055116    0.015042    0.012119     0.01764     0.11898   -0.013866   -0.025884
-0.068109   0.0065969   -0.007045    0.011794     0.10371 -0.00087364   -0.018413
-0.065835 -0.00054884    -0.02361   0.0059473    0.064413   0.0056225   -0.020362
-0.059014  -0.0057458   -0.031081   0.0023744   0.0039985      0.0014   -0.031081
-0.053817  -0.0067202    -0.03303  -0.0015233   -0.062587  -0.0099683   -0.039851
-0.056741  -0.0067202   -0.031081  -0.0041217    -0.11163   -0.018088   -0.043423
-0.067134  -0.0057458   -0.025234   -0.007045      -0.123   -0.018088   -0.037577
-0.077853   -0.007045   -0.019388  -0.0093186    -0.10156   -0.012242   -0.028482
-0.085324   -0.010618    -0.01484   -0.013541   -0.064536  -0.0073698   -0.020687
-0.088896   -0.012892   -0.014516   -0.019388   -0.028807  -0.0080194   -0.013866
-0.088572   -0.010293   -0.021012   -0.022311  -0.0011985   -0.012892  -0.0073698
-0.0824  -0.0044465   -0.026858   -0.018738    0.015692   -0.020037  -0.0015233
-0.06681   0.0010752   -0.030431   -0.010618    0.013093   -0.026858   0.0020496
-0.046347   0.0023744   -0.030106  -0.0034721   -0.034654   -0.034329   0.0039985
-0.022961  0.00042559   -0.027183   0.0017248    -0.15223   -0.045047   0.0049729
-0.0093186  -0.0044465   -0.023935    0.003024    -0.32958   -0.064536   0.0026992
-0.0047713  -0.0089938   -0.022636  -0.0024977    -0.51245   -0.093769  -0.0050961
-0.010943  -0.0096434   -0.022311  -0.0099683    -0.63912    -0.12852   -0.016789
-0.019712  -0.0060706   -0.022961   -0.019063      -0.669    -0.15938   -0.026858
-0.023285  -0.0018481   -0.025559   -0.028807    -0.60696    -0.17692   -0.032055
-0.02361   0.0010752   -0.027508   -0.034329    -0.49556    -0.17887   -0.030756
-0.026533   0.0033489   -0.030106   -0.034004    -0.39551    -0.17172   -0.025884
-0.034329   0.0033489   -0.034654   -0.028807    -0.35004     -0.1701   -0.020687
-0.046347    0.003024   -0.036927   -0.021661    -0.37018    -0.18374   -0.021337
-0.059014      0.0014   -0.036927    -0.01484    -0.43287      -0.212   -0.029782
-0.067459  -0.0021729   -0.034004  -0.0096434    -0.49101    -0.24318   -0.046347
-0.069408  -0.0044465   -0.027183  -0.0054209    -0.50433    -0.26884   -0.064536
-0.062262   -0.007045   -0.018413  -0.0034721     -0.4556     -0.2854   -0.076554
-0.046996  -0.0093186   -0.010943  -0.0028225    -0.34842    -0.28995   -0.075904
-0.029132  -0.0083442  -0.0067202  0.00010078     -0.2016    -0.27826   -0.063237
-0.01484  -0.0024977  -0.0050961   0.0072465   -0.044723    -0.25065   -0.042774
-0.0073698   0.0065969  -0.0021729    0.016991    0.091372     -0.2133   -0.021661
-0.0018481    0.014392   0.0026992    0.029009     0.19076    -0.17465  -0.0050961
0.0052977     0.01894   0.0088706    0.041027     0.25183    -0.14184   0.0033489
0.014392    0.020888    0.010819    0.050446     0.28171    -0.11683   0.0036737
0.02641    0.020888   0.0088706     0.05272     0.28853    -0.10156  -0.0015233
0.034855    0.017965   0.0052977    0.047523     0.28203   -0.092469   -0.007045
0.035505    0.012119   0.0020496    0.038103     0.26904   -0.086623  -0.0076946
0.027385   0.0039985  -0.0028225    0.028684     0.25702   -0.078503  -0.0021729
0.011794  -0.0063954   -0.010943     0.01894     0.24533   -0.062262   0.0059473
-0.007045   -0.017439   -0.016789    0.011469     0.23559   -0.034004    0.013743
-0.021337   -0.026209   -0.017114   0.0065969     0.22292   0.0017248     0.01894
-0.020362   -0.027183   -0.013541   0.0059473     0.20376    0.038103    0.023162
-0.0034721   -0.022636   -0.011267   0.0065969     0.17355    0.067336    0.028359
0.020564   -0.013866   -0.011592   0.0085458      0.1323    0.084226    0.030633
0.041351   -0.007045   -0.012242    0.009845    0.083576    0.094295    0.030633
0.05272  -0.0021729   -0.011267    0.010819    0.022512     0.10534    0.027385
0.05272   0.0020496  -0.0073698    0.011794   -0.054142     0.11833    0.021863
0.046223   0.0043233  -0.0021729   0.0091954    -0.14964     0.12905    0.015042
0.038428   0.0017248   0.0026992   0.0010752     -0.2552      0.1349     0.01017
0.029333  -0.0028225   0.0052977  -0.0050961    -0.36368     0.13522    0.011144
0.020888  -0.0044465   0.0046481  -0.0037969    -0.45625     0.13197    0.019914
0.016991 -0.00054884  0.00042559  0.00042559    -0.50173     0.12483    0.029983
0.017965    0.008221  -0.0044465   0.0017248    -0.47672     0.11476    0.036154
0.021863    0.019914  -0.0089938  -0.0041217    -0.37375     0.10339    0.031932
0.022837    0.029009   -0.011267   -0.013541    -0.19803    0.092996    0.020888
0.017965    0.033881   -0.012892   -0.021337     0.03583    0.087149   0.0078962
0.0065969    0.033556    -0.01614   -0.023935     0.29243     0.09397      0.0014
-0.008669     0.02706   -0.017764   -0.020037     0.52044     0.11313   0.0075714
-0.021337     0.01764   -0.013216  -0.0096434     0.68707     0.14009     0.02641
-0.026533    0.009845  -0.0018481   0.0033489     0.78159     0.16835     0.05272
-0.027183   0.0069217    0.013093    0.016666     0.80952     0.19109    0.077405
-0.027183   0.0078962    0.024786    0.029009     0.79003     0.20376    0.088773
-0.027508    0.012119    0.033881    0.036804     0.74034     0.20278    0.082277
-0.026533    0.016666    0.037454    0.040377     0.67343     0.19336    0.065062
-0.023935    0.018615     0.03518    0.036804     0.60522     0.17907    0.046873
-0.021337     0.01829    0.030308    0.030633     0.54643      0.1638    0.032906
-0.018738    0.016991     0.02706    0.023812      0.5003     0.14367    0.028684
-0.017114     0.01764    0.027385    0.021863     0.46717     0.11995    0.031282
-0.015815     0.01764    0.028034    0.024137     0.43892     0.10242    0.032582
-0.012242    0.018615    0.025761    0.025111     0.40546    0.092671    0.025761
-0.0063954    0.022512     0.01829    0.024137     0.35966    0.088124    0.010495
-0.00087364    0.029009   0.0091954    0.023162     0.29145    0.083576  -0.0093186
0.0014    0.032906   0.0043233    0.023487     0.19011     0.07708    -0.02361
0.00042559    0.033881   0.0072465    0.021863    0.048497    0.073832   -0.028482
-0.0031473    0.031932    0.015692    0.016016     -0.1269    0.072533   -0.023285
-0.0096434    0.028359    0.022188   0.0078962    -0.30165    0.070584   -0.015165
-0.01614    0.024137    0.025111  0.00075039    -0.43287     0.06896   -0.008669
-0.018088    0.019589    0.026085  -0.0047713    -0.49166    0.071883  -0.0024977
-0.013216    0.016666    0.022837   -0.008669    -0.47444    0.076431   0.0020496
-0.0028225    0.015367    0.016341   -0.011267    -0.39941    0.076431   0.0043233
0.0039985    0.016016     0.01017   -0.011267     -0.2971    0.069285   0.0052977
