-0.00054884     0.24306     0.13165     0.13327     0.87448    0.033231    0.059216
0.019914     0.31419     0.31841     0.14691      0.6783   -0.022961    0.039727
0.039078     0.34862     0.44509      0.1323     0.40903    -0.10644    0.016016
0.054344     0.34017     0.46685    0.093645     0.10989    -0.20745   -0.012242
0.064737      0.2986     0.39019    0.044275    -0.15646    -0.30522   -0.045047
0.070259     0.23786     0.25637  -0.0050961     -0.3377    -0.37213   -0.076229
0.064413     0.17192     0.11995    -0.04992    -0.41598    -0.39324    -0.10189
0.050121     0.11151     0.03518   -0.088896    -0.40299    -0.36466    -0.11293
0.032906    0.059865    0.040377    -0.12105    -0.32081    -0.29872    -0.10806
0.019914    0.014717      0.1284    -0.13892    -0.19381    -0.21427   -0.085324
0.013418   -0.028482     0.23461    -0.13599   -0.054467    -0.13145   -0.047971
0.013743   -0.075904     0.28561    -0.11196    0.067011   -0.063237  -0.0063954
0.016341    -0.13242     0.25962   -0.072656     0.15276   -0.015165    0.030957
0.016341    -0.19641     0.18167    -0.03303     0.18264    0.017965    0.053694
0.011144    -0.26787    0.088773  -0.0018481     0.13002    0.037778    0.062464
0.0043233    -0.34549    0.022512    0.019589   -0.022636    0.046873    0.061165
-0.00022403     -0.4202    0.018615    0.031607    -0.24708     0.04395    0.054668
-0.0021729    -0.48061    0.092671    0.035505    -0.47444    0.030308    0.046873
-0.00054884    -0.50855     0.23071    0.031607    -0.62288    0.012768    0.041027
0.0049729    -0.49556      0.3837    0.023487    -0.63977   0.0023744    0.039727
0.0095202    -0.43904     0.46977    0.012768     -0.5394   0.0046481    0.042326
0.011794    -0.35264     0.41618  0.00010078     -0.3796    0.018615    0.045574
0.013743    -0.25715      0.2161    -0.01614    -0.23636    0.038753    0.047523
0.019589     -0.1701   -0.063886   -0.038227    -0.16328    0.059216    0.045249
0.021863    -0.09994    -0.31951    -0.05804    -0.17205    0.076106    0.041676
0.01764   -0.048945    -0.46795   -0.064211    -0.23798    0.091696    0.039727
0.0091954   -0.013541    -0.48581    -0.04862    -0.31951     0.10989    0.039727
0.0049729   0.0088706    -0.40331   -0.018088    -0.38122     0.12678    0.039727
0.0020496    0.020888    -0.27761    0.015692    -0.39746     0.14074    0.036154
-0.0041217    0.031607    -0.15516    0.046548    -0.36141     0.14919    0.030957
-0.017764    0.046873   -0.061613    0.067336    -0.28151     0.15601    0.024461
-0.034004    0.070909  -0.0018481     0.07773    -0.17075     0.16673    0.022837
-0.048945    0.095919     0.03453    0.082602   -0.036278     0.18784    0.025436
-0.056741     0.11573    0.061489      0.0852     0.11931     0.21512    0.029009
-0.059989      0.1284    0.086175    0.083251     0.29275     0.23916    0.028359
-0.056091     0.13425     0.10501    0.073507     0.47952     0.25215    0.025436
-0.045697     0.13457     0.11118     0.06084      0.6809     0.25605     0.01894
-0.036278     0.13295     0.10014    0.051745     0.89365     0.25215   0.0085458
-0.028807     0.12515    0.074157     0.05272      1.1064     0.24241  -0.0021729
-0.026533     0.11248    0.040052    0.064737      1.2769     0.23039   -0.011917
-0.028157     0.10047   0.0049729    0.080978       1.337     0.22162   -0.021012
-0.031406    0.088773   -0.027508    0.089748      1.2256     0.21285   -0.029782
-0.035628    0.078379   -0.054792    0.088448     0.94756     0.20018   -0.038227
-0.038227    0.069934   -0.068109    0.081627     0.58346     0.18362   -0.046996
-0.036602    0.065062    -0.06616    0.072858     0.24046     0.16445   -0.055116
-0.034004    0.061489   -0.054792    0.056617   0.0036737     0.14042   -0.063237
-0.034978     0.06084   -0.044073    0.028034     -0.0824     0.10761   -0.072006
-0.043423    0.059541   -0.040175   -0.014191   -0.031406    0.065712   -0.084349
-0.058689     0.05207   -0.044723   -0.065835    0.091696    0.019589   -0.096042
-0.075904    0.040377   -0.052843     -0.1191      0.2109   -0.018738    -0.10514
-0.087597    0.029983   -0.053817     -0.1623     0.28008   -0.046022    -0.11066
-0.085973    0.028359   -0.037902    -0.18439     0.29243   -0.062587    -0.10871
-0.071357    0.036804  -0.0060706    -0.18212     0.26255   -0.071357    -0.10124
-0.047321    0.054993    0.024461    -0.15678     0.21415   -0.073631   -0.085648
-0.025559    0.075781    0.033556    -0.10903     0.15081   -0.067459    -0.06551
-0.0096434    0.092346    0.022837   -0.046347    0.067336   -0.053492   -0.044073
0.0020496    0.099492   0.0085458    0.020888   -0.040175   -0.035628   -0.025884
0.008221    0.094945    0.008221    0.081627    -0.16425   -0.019712   -0.011592
0.010819    0.084876    0.023487     0.12353    -0.28378   -0.010618      0.0014
0.010819    0.074482     0.05272     0.14139    -0.36823  -0.0076946    0.011794
0.010495    0.067986    0.087474     0.14139    -0.39129  -0.0060706    0.022188
0.0078962    0.066037     0.11313     0.13035    -0.35199   0.0020496    0.032257
0.0043233    0.067986      0.1258     0.11671    -0.27046     0.01829    0.042001
-0.00022403    0.072208     0.13067     0.10664    -0.17237    0.042326     0.05272
-0.0060706    0.076106     0.13522     0.10436    -0.07428    0.073507    0.064737
-0.0096434    0.075781     0.14009     0.10859    0.018615     0.11054    0.078704
-0.0080194     0.06896      0.1271     0.11768     0.10177     0.14756    0.090072
0.00010078    0.057592    0.056617     0.12872     0.16088     0.17127    0.092021
0.016991    0.045249    -0.14054     0.13944     0.18589     0.16933    0.084226
0.038428     0.03583    -0.52154     0.14269      0.1716     0.13684     0.06831
0.058566    0.028359     -1.0295       0.131     0.12288     0.07708    0.046223
0.069285    0.021538     -1.4648     0.10371    0.055643   0.0026992    0.021538
0.066037    0.012768     -1.5859    0.071234  -0.0060706   -0.060638  0.00042559
0.052395  0.00010078     -1.2686    0.039727   -0.052193   -0.092469   -0.012892
0.03583   -0.012567     -0.5826    0.014717   -0.087922   -0.088247   -0.017439
0.021538   -0.020687     0.24825  -0.0089938     -0.1334   -0.065186   -0.016464
0.013093   -0.021337     0.94886   -0.033679    -0.21167   -0.049595   -0.012892
0.0088706   -0.011592      1.3734   -0.057065    -0.32243    -0.05739  -0.0083442
0.0088706   0.0072465      1.5231   -0.067134    -0.43612   -0.084999  -0.0060706
0.014068    0.030957      1.4789   -0.060963    -0.51147    -0.11618  -0.0057458
0.023162    0.055318      1.3386   -0.041799    -0.51537    -0.13664   -0.007045
0.03583    0.076755      1.1801   -0.015815    -0.43904    -0.13989  -0.0096434
0.050446    0.088448      1.0561   0.0072465    -0.29775    -0.12625  -0.0089938
0.064413    0.092021     0.98232    0.021213    -0.12008   -0.097991  -0.0031473
0.076106    0.087149     0.94432    0.028359     0.06019   -0.064536    0.011144
0.083576    0.075456     0.91216    0.034206      0.2135   -0.034329    0.027709
0.083251    0.058566     0.85954     0.04395     0.30769    -0.01484    0.040702
0.075456    0.039078     0.77282    0.055643     0.30574  -0.0083442    0.051096
0.064413    0.022512     0.65264    0.061814      0.1742   -0.017114     0.06019
0.051745    0.011794     0.50777    0.060515   -0.096692   -0.039851    0.062139
0.038103   0.0046481     0.35024    0.052395    -0.47282    -0.07428     0.05142
0.022837  -0.0015233     0.19011    0.041676    -0.87071    -0.10936    0.033231
0.008221  -0.0080194    0.033556    0.032582     -1.1786    -0.13892    0.015367
-0.0047713   -0.013866    -0.11033     0.02641     -1.3092    -0.15548   0.0026992
-0.010293   -0.019388    -0.23116    0.023812      -1.242    -0.15386  -0.0011985
-0.0089938   -0.028157    -0.33737     0.01829     -1.0198    -0.13599   0.0020496
-0.008669   -0.047321    -0.48646    0.003024     -0.7213    -0.10774   0.0062721
-0.013541   -0.078178    -0.73721   -0.026858    -0.43189   -0.075255    0.008221
-0.021337    -0.11358     -1.1299   -0.063561    -0.20908   -0.046022   0.0091954
-0.031406    -0.14152      -1.671   -0.098965   -0.070058    -0.02361    0.011144
-0.038227    -0.14866     -2.2515     -0.1217   0.0010752  -0.0067202    0.015692
-0.034978     -0.1269     -2.6796    -0.12333    0.028359   0.0091954    0.020239
-0.020362   -0.075904     -2.7929    -0.10774    0.023487    0.019264    0.025111
0.003024   -0.012892     -2.5441     -0.0824  -0.0015233    0.016991    0.029009
0.028359    0.040702     -2.0105   -0.057065   -0.026209 -0.00054884    0.031607
0.05142    0.070259     -1.3524     -0.0405   -0.033354   -0.025884    0.029658
0.063763    0.070584    -0.73169   -0.033354   -0.013541   -0.047971    0.025436
0.062464    0.049147    -0.25585   -0.030106    0.025436   -0.060638    0.020564
0.050771    0.024461    0.040052   -0.025234    0.072208   -0.060638     0.01764
0.03453   0.0069217     0.18459   -0.020037     0.11768   -0.051219     0.01829
0.017965  -0.0024977     0.23656    -0.01549     0.16121   -0.039201    0.021213
0.003024  -0.0063954      0.2502  -0.0083442     0.21058   -0.026858    0.020239
-0.010618  -0.0093186      0.2619   0.0033489     0.27099   -0.015815    0.016666
-0.022961   -0.014516     0.28496    0.020564     0.34472  -0.0044465    0.014392
-0.032055   -0.020037     0.32198    0.038103     0.42657   0.0065969    0.011469
-0.034654   -0.021661     0.36843    0.050771     0.51167    0.013093   0.0078962
-0.032055   -0.018738     0.41683     0.06084     0.58898   0.0095202   0.0023744
-0.026533   -0.011917     0.45256     0.06896     0.66433  -0.0073698  -0.0024977
-0.015165  -0.0021729     0.45061    0.080003     0.73936   -0.028807  -0.0041217
0.0014    0.008221     0.39214    0.092671     0.80822   -0.046996  0.00010078
0.019589    0.015692     0.27944    0.098517     0.83388   -0.056741    0.010495
0.036479    0.020239     0.13977    0.095269     0.75983   -0.052193    0.024461
0.051745    0.019914    0.015042    0.083251     0.55617   -0.035303    0.039402
0.063763     0.01894   -0.056416    0.073832     0.26157   -0.010293    0.052395
0.071558     0.01764   -0.056741    0.073832   -0.036602    0.011469    0.060515
0.074806    0.018615  0.00010078     0.08585    -0.24545    0.023162    0.061489
0.075456    0.023162    0.081627     0.10144    -0.31204    0.022188    0.055643
0.075456    0.033231     0.15568     0.11118    -0.25162     0.01017    0.043625
0.071883    0.044275     0.21155     0.10859    -0.12592   -0.010943    0.023812
0.063438    0.053369     0.25507    0.095269  0.00010078   -0.035303 -0.00087364
0.045574    0.057917     0.29373    0.076755    0.089098   -0.053492   -0.020362
0.021213    0.056942     0.32946    0.060515     0.12093   -0.059664   -0.029132
-0.0015233    0.046873     0.36518    0.044599    0.095594    -0.05739   -0.030431
-0.018088    0.030633     0.40871    0.020888     0.03583   -0.053168   -0.027183
-0.024909    0.015367      0.4649  -0.0050961   -0.020362   -0.047971   -0.022636
-0.022311    0.009845     0.54091   -0.027183   -0.044073   -0.036927   -0.018413
-0.01484    0.015692     0.63607   -0.038876   -0.030756   -0.014191   -0.013866
-0.0044465    0.033231     0.74001   -0.039201    0.011794    0.019914  -0.0067202
0.0052977    0.057267     0.83843   -0.029132    0.082927    0.058566   0.0049729
0.011144    0.079354      0.9349   -0.011267     0.18167    0.089423    0.020888
0.012443    0.092021      1.0551    0.014068     0.30347     0.10436    0.034855
0.013093    0.095919       1.198    0.045249     0.42657     0.10047    0.042975
0.016341    0.091696      1.3136    0.081627     0.51622    0.086175    0.041351
0.018615    0.084551      1.3331     0.11573     0.52564    0.067336    0.026085
0.014068    0.078704      1.2149     0.13457     0.41423    0.035505  -0.0063954
0.00010078    0.073507     0.98167     0.12418     0.18654    -0.03238   -0.056416
-0.023285    0.064088     0.69584    0.079354   -0.081101    -0.13567    -0.11553
-0.04992    0.046873     0.43372   0.0033489    -0.27469     -0.2435    -0.16588
-0.06616    0.023812     0.24208   -0.088572    -0.31918    -0.31042    -0.19316
-0.065835  -0.0018481     0.12353    -0.17854    -0.22077    -0.30749    -0.18796
-0.050894   -0.025884    0.049472    -0.24773   -0.048296    -0.23733    -0.15613
-0.030756    -0.04862   -0.010293    -0.28476     0.12255    -0.13664    -0.11033
-0.015815   -0.067784   -0.065835    -0.28898     0.25085   -0.041475   -0.067134
-0.0093186    -0.08305    -0.11488    -0.26787     0.32946    0.033231   -0.038227
-0.013216   -0.095068    -0.14996    -0.23279     0.34667     0.08585   -0.022636
-0.023935    -0.10384    -0.16133    -0.19771     0.28885     0.12288   -0.017114
-0.034978    -0.10644    -0.14281    -0.17302     0.16056     0.14691   -0.017439
-0.036602    -0.10351    -0.10124    -0.15905  -0.0041217      0.1625   -0.017439
-0.024585   -0.092469   -0.077203    -0.14574     -0.1623     0.17095   -0.010943
-0.0037969   -0.074605    -0.14574    -0.12235    -0.27079     0.17387  0.00075039
0.016991   -0.047971    -0.34614   -0.086298     -0.2945      0.1703    0.012768
0.029983  -0.0083442    -0.62483    -0.04927    -0.19576     0.15926    0.022512
0.036154    0.045899    -0.86291   -0.018088    0.036479     0.14432    0.029658
0.035505     0.10891    -0.95386   0.0039985     0.35219      0.1284    0.036479
0.029009      0.1677    -0.85999    0.016341     0.65784     0.11086    0.042651
0.016991      0.2083    -0.62775    0.017316      0.8498    0.083901    0.041351
-0.00054884     0.22389    -0.34614   0.0046481     0.85499    0.041351    0.027385
-0.020362     0.21317    -0.10774   -0.019712     0.65914   -0.017114  -0.0011985
-0.038227     0.18589     0.03453   -0.050569     0.32653   -0.078503   -0.033679
-0.047971     0.15568    0.075456   -0.075579   -0.027183      -0.123   -0.059014
-0.046996      0.1297    0.042001   -0.082076    -0.31399    -0.13275   -0.070382
-0.042449     0.11118   -0.030756   -0.065835    -0.50173    -0.11488    -0.06616
-0.0405    0.096569    -0.10189   -0.033679    -0.60404     -0.0824   -0.050244
-0.041799    0.084551    -0.10903  0.00042559    -0.65893   -0.051219   -0.027833
-0.039201    0.073832  -0.0083442    0.024786    -0.69206   -0.030106  -0.0083442
-0.029782    0.063113     0.17225    0.033556     -0.7174   -0.022961   0.0026992
-0.021012    0.046873     0.36129    0.026085    -0.73396   -0.030756    0.003024
-0.01614    0.016666     0.48634   0.0085458    -0.73624   -0.050244  -0.0021729
-0.016789   -0.036927     0.50518   -0.008669    -0.72032   -0.072331   -0.008669
-0.022636     -0.1178     0.41813   -0.012892     -0.6716    -0.09117   -0.008669
-0.034004    -0.23051     0.25378  -0.0015233    -0.55857    -0.10091  -0.0018481
-0.049595    -0.38025    0.042001    0.020888    -0.36271   -0.096367    0.012443
-0.061288    -0.55727     -0.2029    0.051745   -0.092794   -0.082076    0.029333
-0.062587    -0.71707    -0.46372    0.087474     0.20376   -0.063237    0.046223
-0.048296     -0.8038    -0.70083     0.12288     0.45223    -0.04992    0.059865
-0.025234    -0.78041    -0.85934     0.14594     0.59158   -0.049595    0.067011
-0.0028225    -0.65634    -0.89897     0.14854     0.60717   -0.060313    0.067011
0.0075714    -0.47444     -0.8051      0.1284     0.53116    -0.07428     0.06084
0.0062721    -0.28605    -0.60047    0.096244     0.41845   -0.080127     0.05207
-0.00054884    -0.12982    -0.35004    0.068635     0.32134   -0.071357    0.048172
-0.0060706    -0.02361    -0.13567    0.054993     0.26579   -0.052843    0.052395
-0.011917     0.03518   -0.014191    0.058241     0.25443   -0.032055    0.062789
-0.015815    0.059541   0.0078962    0.072533     0.26872   -0.012567    0.075781
-0.01549    0.066037   -0.037902    0.087799     0.29275   0.0091954    0.084551
-0.0067202    0.066686    -0.10416    0.097218     0.32491    0.032582    0.088448
0.009845    0.069934    -0.15418    0.096893     0.37038     0.05272    0.089423
0.027709    0.077405    -0.17237    0.091047     0.43469    0.061814    0.090722
0.036804     0.08585    -0.16458    0.087149     0.51037    0.054993    0.088124
0.032582     0.09462    -0.14704    0.088773     0.57631    0.027709    0.076431
0.01894     0.10079     -0.1334    0.089748     0.60002   -0.010618    0.058566
0.00042559     0.10404    -0.13145    0.087474      0.5539   -0.048296    0.041027
-0.01484     0.10436    -0.13762      0.0852     0.43145   -0.073306    0.030957
-0.020687     0.10501    -0.14834     0.08585     0.23689   -0.077853    0.028684
-0.011917     0.10566    -0.15581    0.093645   -0.015165   -0.060963    0.031607
0.011794     0.10729    -0.15646     0.10956    -0.31009   -0.021986    0.038103
0.044599     0.11313    -0.15223      0.1297     -0.6336    0.033231    0.046223
0.076431      0.1232    -0.14444     0.14984    -0.96198    0.091696    0.058566
0.098517     0.13587    -0.13177     0.16543     -1.2546     0.13944     0.07708
0.10891     0.14789    -0.11163     0.17355     -1.4739     0.17062    0.098842
0.11411     0.15601   -0.089871      0.1742     -1.6116     0.17874     0.11508
0.11671     0.15601   -0.071682     0.15958     -1.6808     0.16023     0.11736
0.11573     0.14659   -0.063561     0.12418     -1.6951     0.11768     0.10371
0.10664     0.13457   -0.062262    0.076106     -1.6493     0.06084    0.078379
0.088448      0.1258   -0.063561    0.026735     -1.5145   0.0088706    0.043625
0.067011     0.12743   -0.061613   -0.007045     -1.2634   -0.016464     0.01017
0.050121      0.1349   -0.055116   -0.017764    -0.89604  -0.0063954  -0.0099683
0.043625     0.14139   -0.048945  -0.0063954    -0.45528    0.026085   -0.014191
0.042975     0.13944   -0.044398    0.021538    -0.02426    0.061165  -0.0093186
0.049147     0.12872   -0.042774    0.059541     0.30185    0.082927  -0.0011985
0.054993     0.11411   -0.042124    0.093321     0.45905    0.086175   0.0062721
0.055643     0.10274   -0.040175     0.11281     0.44346    0.073832    0.012119
0.05142     0.10177   -0.036927     0.11248     0.30932    0.052395    0.019589
0.046548     0.11313   -0.035628    0.096569     0.14302    0.029983    0.026085
0.042975       0.131   -0.042449     0.06831    0.021213   0.0046481    0.021863
0.042001     0.14496   -0.056091     0.03453   -0.040175   -0.029782   0.0039985
0.040702     0.14886   -0.078178  -0.0018481   -0.077528   -0.078827   -0.021661
0.035505     0.13814    -0.10481   -0.038551    -0.14184    -0.13567   -0.045372
0.021538     0.11898    -0.12722   -0.075904     -0.2474    -0.18894   -0.060313
0.0023744    0.096569    -0.13145    -0.11261    -0.35719    -0.21979   -0.064536
-0.01614    0.078704    -0.11683    -0.14022    -0.40786    -0.21655   -0.059989
-0.029782    0.069934     -0.0837    -0.14996    -0.35589    -0.17919   -0.048945
-0.036278    0.073182   -0.031406    -0.13957    -0.21622    -0.12008   -0.033354
-0.035953    0.082277    0.037129    -0.11943   -0.046022   -0.062262   -0.020362
-0.031081    0.087799     0.10956    -0.10091    0.088773   -0.029782   -0.021661
-0.024585    0.084226     0.18134   -0.090196     0.14626   -0.030106   -0.036927
-0.019063    0.070259     0.25832   -0.089871     0.12743   -0.047971   -0.060638
-0.016464    0.047523     0.34017   -0.094418    0.069934   -0.064211   -0.077203
-0.019063    0.016666     0.39604    -0.10156    0.028034   -0.068109   -0.078827
-0.030106   -0.015165     0.38695    -0.10871    0.036479   -0.059014    -0.06616
-0.047321     -0.0405     0.30412    -0.11813    0.099167   -0.030756   -0.044398
-0.062912   -0.051219     0.18134      -0.123     0.18297    0.017316   -0.021986
-0.07428   -0.047321    0.065712    -0.11943     0.23526    0.076755 -0.00054884
-0.077528    -0.03238   -0.013866    -0.10579     0.22324     0.13782    0.019264
-0.069733   -0.011267   -0.047646   -0.081101      0.1651     0.18524    0.033231
-0.056416    0.011469   -0.047646   -0.053817     0.10859     0.20538    0.039402
-0.044398    0.027385   -0.032705   -0.029457    0.092996     0.19499    0.032582
-0.035303    0.031607   -0.018413   -0.014191      0.1336     0.16153    0.013743
-0.031406    0.028684   -0.012892   -0.007045     0.22227     0.11995  -0.0096434
-0.03173    0.020888   -0.013541  -0.0050961     0.34147    0.087474   -0.027183
-0.038551    0.011794   -0.022961  -0.0034721     0.46198    0.069285   -0.036602
-0.048945   0.0039985   -0.038227  0.00010078     0.55422    0.061814   -0.039851
-0.053492  -0.0011985   -0.053168   0.0039985      0.5997    0.054668   -0.039526
-0.04927  -0.0021729   -0.062912   0.0065969      0.5854    0.040052   -0.037252
-0.0405  -0.0021729   -0.069408   0.0085458     0.52142    0.013093   -0.032705
-0.027833      0.0014   -0.073306   0.0085458     0.43632   -0.019063    -0.02361
-0.016789   0.0095202   -0.076879    0.010819     0.36324   -0.045047   -0.010293
-0.010293    0.016341   -0.076229    0.017965     0.32296   -0.056091  0.00075039
-0.010293    0.021213   -0.069408    0.031282     0.31776    -0.04927   0.0075714
-0.01549    0.024137   -0.055441      0.0433      0.3327   -0.030756    0.011144
-0.020037    0.024137   -0.040825    0.050446     0.35057   -0.007045    0.016666
-0.019063    0.020564   -0.027833    0.050771     0.35771    0.016666    0.023812
-0.008669    0.014717   -0.017764    0.046548     0.34992    0.032906    0.032582
0.013093     0.01017  -0.0076946    0.045574     0.33011    0.036804    0.038753
0.039727    0.009845   0.0049729    0.053369     0.30022    0.028034    0.042326
0.062789    0.015042    0.025761    0.070584     0.25995    0.016341    0.042001
0.076755    0.023487    0.058241    0.090722     0.20213    0.012119    0.042326
0.081952    0.028034     0.10859     0.10209     0.11151    0.017316    0.042975
0.080978    0.028359      0.1768    0.095594   -0.012567    0.024786    0.042326
0.073182    0.024461     0.24566    0.072533    -0.14704    0.032906    0.041027
0.061489    0.019264      0.2973    0.047847    -0.25065    0.042651    0.035505
0.048497     0.01764     0.32393    0.035505    -0.29223    0.053369    0.026735
0.036804    0.022837     0.32621    0.035505    -0.26592    0.066686     0.01764
0.030633    0.032582     0.31159     0.04395    -0.19608    0.083251    0.012119
0.033556    0.046873      0.2908    0.052395    -0.12657    0.096244     0.01017
0.042326    0.059216     0.27294    0.056617   -0.093444     0.10144   0.0069217
0.051096    0.067661     0.26872    0.057917    -0.10384     0.10047  0.00010078
0.055318    0.069934     0.28203    0.058241    -0.13632    0.095594  -0.0021729
0.054344    0.067336     0.30477    0.058891    -0.15905    0.087799  0.00075039
0.049796    0.063763     0.32134    0.063438    -0.14314    0.076106   0.0039985
0.042651    0.059865     0.31419    0.071558   -0.076229    0.058891   0.0072465
0.034855    0.056942     0.28138    0.079679    0.026735    0.039727    0.008221
0.02706    0.050771     0.23396    0.086824      0.1232    0.023162   0.0095202
0.01764    0.041027     0.18264    0.097218      0.1677   0.0072465   0.0095202
0.011144    0.026735     0.13782     0.11638      0.1362  -0.0067202   0.0052977
0.0078962   0.0095202     0.10891     0.14269    0.046873   -0.019712  -0.0015233
0.0069217  -0.0093186    0.098193      0.1729    -0.05804   -0.030431  -0.0050961
0.0033489   -0.026858    0.097868     0.19336    -0.15483   -0.037902  -0.0024977
-0.0034721    -0.04115    0.093645     0.18394    -0.23961   -0.047321   0.0020496
-0.011592   -0.051868    0.074806     0.13457     -0.2945   -0.068758   0.0017248
-0.017439   -0.060638    0.042326     0.05272    -0.27501   -0.094743  -0.0063954
-0.021661   -0.063886    0.008221   -0.039201    -0.14639    -0.11521   -0.017439
-0.025234   -0.060638   -0.020362    -0.11651    0.079679    -0.11975   -0.021986
-0.029132   -0.053817   -0.040825    -0.16003     0.33368    -0.11261   -0.020687
-0.033354   -0.047971   -0.055441    -0.17205     0.53343    -0.10351    -0.01614
-0.039526   -0.044398   -0.067134     -0.1636      0.6338   -0.096692   -0.013216
-0.047321   -0.046347   -0.077853    -0.14574     0.63965   -0.092145    -0.01614
-0.05739   -0.054142   -0.092469    -0.12495     0.59287   -0.087272   -0.022636
-0.064536   -0.065186    -0.10709    -0.10221     0.53896   -0.079152   -0.027833
-0.069408   -0.075904    -0.11748   -0.081751      0.5107   -0.063237   -0.026533
-0.069083   -0.083375     -0.1204   -0.064211     0.51849    -0.03303   -0.020687
-0.062912   -0.085648    -0.11488   -0.050894     0.55325     0.01017   -0.010293
-0.051868   -0.081751    -0.10286   -0.034329     0.59222    0.055318   0.0039985
-0.036927    -0.07428   -0.089221   -0.013541     0.61041    0.090722    0.018615
-0.021012    -0.06551   -0.076554    0.011144     0.58898     0.10664    0.030957
-0.0083442   -0.055116    -0.06616    0.029333     0.52012    0.096244    0.036804
0.0014    -0.04115    -0.06616    0.035505     0.40351    0.054019    0.031607
0.009845   -0.025884   -0.082725    0.023162      0.2476   -0.019712    0.015042
0.017965   -0.011267    -0.11813   -0.011267    0.068635    -0.11196  -0.0089938
0.023812  0.00010078    -0.17107   -0.062262    -0.11066    -0.20031   -0.032055
0.025436   0.0062721    -0.23246    -0.11586    -0.24935    -0.25617   -0.047646
0.021538    0.011144    -0.28898    -0.15418    -0.30262     -0.2591   -0.050569
0.014717    0.015042    -0.32958    -0.15905    -0.25747    -0.21135   -0.042449
0.011794    0.020564    -0.34322    -0.12852    -0.14931     -0.1321   -0.024909
0.016016    0.028684    -0.33023   -0.073955   -0.038551   -0.050244  -0.0080194
0.023162    0.037129    -0.29515   -0.010618     0.02641    0.012443   0.0043233
0.028034    0.044275    -0.24578    0.047198    0.024137    0.048822    0.013743
0.02706    0.047198    -0.18374    0.089748   -0.039201    0.061165    0.023812
0.021213    0.042975    -0.11261     0.11313    -0.14249    0.054344    0.032582
0.017316    0.031932   -0.035953     0.11898     -0.2526    0.036154    0.036154
0.016666    0.016991    0.044924     0.11054    -0.33153    0.014068    0.033231
0.022512  -0.0034721     0.13522    0.090722    -0.35296  -0.0018481    0.026735
0.029333   -0.031406     0.23591    0.063438    -0.30879  -0.0041217    0.020888
0.032582   -0.067459      0.3366    0.034855    -0.20778   0.0072465    0.017316
0.032257    -0.10579     0.43112   0.0085458   -0.090196    0.026735    0.015367
0.028359    -0.13794     0.51102  -0.0076946   -0.032705    0.046223    0.017965
0.022837    -0.15516     0.55487  -0.0047713    -0.11358     0.06019    0.021538
0.016991    -0.15386     0.53896    0.013093     -0.3416    0.066037    0.021538
0.013093    -0.13632     0.44898    0.039078    -0.66023    0.065712    0.018615
0.016016    -0.11001     0.29827    0.064088    -0.98764    0.054668    0.017965
0.024461   -0.079477     0.12158    0.077405     -1.2277    0.029983    0.015692
0.03583   -0.051544   -0.035303    0.075131     -1.3124  -0.0050961    0.011469
0.044924   -0.029457    -0.13697    0.065712     -1.2429     -0.0405     0.01017
0.047523   -0.013216    -0.17302    0.058241     -1.0789    -0.06551    0.010819
0.044924   0.0026992    -0.15321    0.055643    -0.89409   -0.077853   0.0078962
0.041676    0.018615   -0.091495    0.055318    -0.74761   -0.078178      0.0014
0.041027     0.03453  -0.0028225    0.050446    -0.64269   -0.065835  -0.0044465
0.041027    0.047847    0.094295    0.037778    -0.53843   -0.042449  -0.0031473
0.041027    0.057917     0.18719    0.019589    -0.40039   -0.017439  0.00042559
0.039727    0.062139     0.26287  -0.0028225     -0.2172  -0.0015233  0.00042559
0.03518    0.057592     0.31094   -0.023935    0.022188  -0.0024977  -0.0054209
0.024786    0.045574     0.32231   -0.043099      0.3012   -0.019388   -0.017439
0.010819    0.031607     0.29795   -0.058689     0.57079   -0.046671   -0.030756
-0.0041217    0.019914     0.23266    -0.06681     0.78646    -0.06681   -0.034978
-0.018738    0.012768     0.10794   -0.067784     0.92743   -0.063886   -0.028157
-0.025559    0.012119   -0.091495   -0.061613     0.98946   -0.036927    -0.01484
-0.020037    0.021538     -0.3312   -0.051868     0.98069      0.0014      0.0014
-0.0057458    0.044275    -0.53843   -0.038876     0.92028    0.039078    0.013093
0.0072465    0.078055    -0.64464    -0.02426     0.83356    0.065387    0.016991
0.0088706     0.11768     -0.6258  -0.0089938     0.75138    0.072858    0.013418
-0.0024977     0.15016    -0.50887   0.0062721     0.69292    0.059541   0.0049729
-0.017764      0.1677    -0.35296    0.017965     0.65102    0.027709  -0.0050961
-0.029132     0.16478    -0.23181    0.021213     0.60587   -0.011267   -0.013216
-0.033354     0.14594    -0.20875    0.015692     0.53603   -0.046022   -0.017764
-0.029132     0.11768    -0.30002  -0.0034721     0.43274   -0.068109   -0.017114
-0.021337    0.089748    -0.46405   -0.035303     0.30834   -0.072981   -0.014516
-0.013216     0.06896    -0.61996   -0.072981     0.18297   -0.065186   -0.013541
-0.0083442    0.063113    -0.70343    -0.10611    0.074157   -0.047321   -0.013216
-0.0037969    0.067011    -0.69694    -0.12722   -0.008669   -0.023285   -0.010293
-0.0018481    0.075456    -0.62808    -0.13372   -0.053817   0.0049729  -0.0015233
-0.0018481    0.076431    -0.53973     -0.1282   -0.062587    0.028359    0.014717
-0.0054209    0.061165    -0.46178    -0.10968   -0.043099    0.040377    0.031607
-0.011267    0.031282    -0.40721   -0.080451 -0.00087364    0.046548    0.040377
-0.019063  -0.0080194    -0.36693   -0.036602    0.073832    0.059865    0.041676
-0.026209   -0.055441    -0.33965    0.019914     0.20116    0.096893    0.042001
-0.028482    -0.11293    -0.32536    0.083251     0.38662     0.16185    0.047847
-0.023935    -0.18082    -0.32503     0.14334     0.60619     0.24208    0.064737
-0.016464    -0.25195    -0.32795     0.19401     0.80367     0.31971    0.088124
-0.010293    -0.31529    -0.31009     0.23169     0.90956     0.37071     0.10696
-0.0096434    -0.35394    -0.23409     0.26125     0.86864     0.37136     0.10761
-0.012892    -0.35751   -0.082725     0.27944     0.64354     0.30055    0.080978
-0.018088    -0.32308     0.12645     0.27554     0.22259     0.15698    0.028034
-0.020362     -0.2552     0.33628     0.23754    -0.34517   -0.040175   -0.039526
-0.01614    -0.16458     0.49316     0.16965    -0.93567    -0.25033    -0.10514
-0.0054209   -0.060313     0.57371    0.088124     -1.4008    -0.41923    -0.14931
0.012119    0.047847     0.59905    0.011794     -1.6405    -0.50855    -0.15646
0.029333     0.14269     0.61301   -0.053817     -1.6493    -0.50497     -0.1308
0.038428     0.20733     0.63607    -0.11326     -1.4956    -0.42637   -0.088247
0.031607     0.23039     0.65491     -0.1714     -1.2754    -0.31301   -0.050569
0.012443     0.21382     0.65004    -0.22207     -1.0773    -0.20323    -0.02426
-0.012567      0.1716     0.62146    -0.25715    -0.95321    -0.12625   -0.011592
-0.035953     0.11931     0.61594    -0.27274    -0.91293   -0.088896  -0.0073698
-0.050894    0.072858     0.67862    -0.26559    -0.92852   -0.081751  -0.0080194
-0.052843    0.038753     0.80238    -0.23831    -0.94671   -0.087922  -0.0096434
-0.042774    0.017965     0.94334    -0.19154    -0.92755   -0.087597  -0.0067202
-0.023935   0.0078962      1.0421    -0.13242    -0.85219   -0.071357  -0.0021729
-0.0047713   0.0020496      1.0184   -0.070707    -0.73591   -0.045047   0.0023744
0.010819  -0.0028225     0.80432   -0.021012    -0.61963   -0.022636   0.0088706
0.021538  -0.0047713      0.4178   0.0056225    -0.54135   -0.016789    0.020239
0.027385  -0.0024977   -0.018088    0.013418      -0.504   -0.029782    0.033556
0.02641   0.0085458    -0.33348    0.016991    -0.47574   -0.052843    0.037778
0.019589    0.026735    -0.41695    0.032906    -0.42117   -0.073631    0.033231
0.011794    0.047523    -0.26981    0.064737    -0.32016   -0.081751    0.029009
0.0085458    0.063113   0.0075714     0.11054    -0.18017   -0.075904    0.030633
0.0088706    0.070584     0.28398     0.16056   -0.030431    -0.05804    0.041027
0.012768    0.072858     0.45548     0.20765     0.09397   -0.030431    0.058566
0.019914    0.076431     0.47724     0.24436     0.17777    0.003024    0.078379
0.028684    0.082927     0.35836     0.26644     0.22682    0.040702    0.096893
0.039727    0.091047     0.14659     0.27099     0.24598    0.076106     0.11183
0.055968    0.095269   -0.090845     0.26319     0.23104     0.10242     0.12158
0.073182     0.09462    -0.28573     0.24663     0.17842     0.11411     0.12288
0.0865    0.089423    -0.39551        0.22    0.099492     0.10761     0.11768
0.092021    0.079679    -0.41176     0.18232    0.024137    0.084551     0.10859
0.087149    0.067661    -0.36011     0.13197   -0.017439    0.045249    0.096244
0.071234    0.058891    -0.28248    0.071558   -0.007045  -0.0021729     0.07708
0.045899    0.059865    -0.21687   0.0062721    0.059541   -0.044073    0.054668
0.01764     0.07773    -0.18049   -0.054142      0.1638   -0.059339    0.030633
-0.0096434     0.10566    -0.17107    -0.10416     0.26807   -0.039201    0.009845
-0.028482      0.1362    -0.17335    -0.13827     0.33043    0.011469  0.00010078
-0.036278     0.15796    -0.17335    -0.15386     0.32101    0.076106      0.0014
-0.035628     0.16283    -0.16945    -0.15516     0.24793     0.13717   0.0091954
-0.033354     0.14561    -0.16815    -0.14444     0.15763     0.18004     0.01764
-0.03238     0.10924     -0.1753    -0.13177     0.10631     0.20116    0.023487
-0.034004    0.064088    -0.18991    -0.11683     0.11573     0.20538    0.029009
-0.03173    0.024137    -0.20648   -0.094093     0.16608     0.19823    0.031932
-0.022636  -0.0024977     -0.2159   -0.062262     0.22162     0.18102    0.029009
-0.0083442   -0.013866    -0.21525   -0.027508     0.24143     0.15016    0.020239
0.0014   -0.015815    -0.20453  -0.0015233     0.19401     0.10404   0.0065969
0.0020496   -0.011267    -0.19186   0.0095202      0.0852    0.048822  -0.0096434
-0.0073698   -0.010293    -0.18407    0.003024   -0.029132  -0.0047713   -0.031406
-0.02361   -0.016464    -0.18342   -0.012242   -0.066485   -0.049595   -0.054467
-0.042449   -0.028482    -0.18374   -0.034329    0.027709   -0.084674   -0.076554
-0.057715   -0.039526    -0.18179   -0.051544      0.2463    -0.11196   -0.092469
-0.06616   -0.044723      -0.174   -0.056741     0.52596     -0.1308   -0.098641
-0.068758   -0.040175    -0.16165   -0.046347     0.77607    -0.13762   -0.095068
-0.064861   -0.030106    -0.14541   -0.023935      0.9284     -0.1308   -0.084999
-0.053492   -0.019388     -0.1217   0.0017248     0.96121    -0.10741   -0.069733
-0.039201   -0.007045   -0.073631    0.028034     0.89917   -0.072656   -0.046671
-0.022636   0.0065969    0.014392    0.050446     0.79101   -0.032705   -0.018413
-0.0047713    0.021863     0.13847    0.070259     0.67927   0.0072465   0.0088706
0.015367    0.036804     0.27196    0.093645     0.58346    0.044275    0.029009
0.031932    0.049796       0.385     0.11606       0.512    0.075456    0.042975
0.042651    0.058891     0.45483      0.1362     0.46587    0.096893    0.055643
0.044924    0.062464     0.47367     0.15081     0.43924     0.10924    0.069285
0.042326    0.061814     0.44086     0.15601     0.43567     0.11378    0.081952
0.037778    0.059216     0.36843     0.14984      0.4571     0.10989    0.089748
0.032906     0.05142     0.26872      0.1349     0.49608    0.098517    0.089748
0.02706    0.035505     0.15406     0.11833     0.53506      0.0852    0.084876
0.021863    0.013743    0.033231     0.10696     0.56527     0.07773    0.079354
0.019589  -0.0057458   -0.084349     0.10664      0.5919    0.081952    0.075781
0.01894   -0.018738    -0.19478     0.11833     0.61431    0.099167    0.079029
0.015367   -0.024909     -0.2945     0.13847     0.62958      0.1219    0.083901
0.011144   -0.022961    -0.37603     0.16088     0.63218     0.14659    0.084876
0.011794    -0.01614    -0.43482     0.17615     0.61009     0.16705    0.078379
0.013093   -0.010618    -0.47964      0.1755     0.54415     0.17874    0.064088
0.013418   -0.014516      -0.542     0.15211     0.42592     0.17647    0.045574
0.0095202   -0.029132    -0.64269     0.10794     0.27196     0.15568    0.028684
0.0014    -0.04927    -0.74923     0.05142     0.11411     0.11541    0.016016
-0.007045   -0.065186    -0.79178   -0.007045   -0.014516    0.058566    0.009845
-0.01484   -0.071357    -0.72195   -0.060638   -0.089871  -0.0067202   0.0046481
-0.017439   -0.067134    -0.54623    -0.10319    -0.11261   -0.066485  -0.0011985
-0.014516   -0.055116    -0.31301    -0.12527    -0.10384    -0.10644  -0.0083442
-0.0083442   -0.037902   -0.090196    -0.12463   -0.099615     -0.1204    -0.01549
0.00042559   -0.017114     0.06961    -0.10936    -0.12235    -0.11066   -0.022961
0.0091954      0.0014     0.14886    -0.08305     -0.1675   -0.086623   -0.028482
0.012443    0.012443     0.15893    -0.04927    -0.21232   -0.058365   -0.032705
0.010819    0.014068     0.12807   -0.013541    -0.23863   -0.034004   -0.035303
0.0069217    0.008221    0.086175     0.01764     -0.2461   -0.024909   -0.037577
0.0062721  -0.0021729    0.055643    0.035505     -0.2474   -0.028157   -0.038551
0.0065969   -0.010618    0.044599    0.039078    -0.26851   -0.037252   -0.036602
0.0036737   -0.016789    0.048172     0.03518    -0.32471   -0.043748   -0.026533
-0.0047713   -0.017439    0.059216    0.029658    -0.41305   -0.045697   -0.011592
-0.015165    -0.01614    0.073507    0.020564    -0.50627   -0.045372   0.0023744
-0.021337    -0.01549    0.092671   0.0036737    -0.57611   -0.043748    0.012443
-0.020037   -0.018088     0.12743    -0.01484    -0.61411    -0.04115    0.014392
-0.012892   -0.023285     0.18004   -0.027833    -0.62808   -0.037902   0.0088706
-0.0060706   -0.025234     0.24241   -0.032055    -0.63652   -0.037577  -0.0034721
-0.0028225   -0.024585     0.30574   -0.031406    -0.65796   -0.041475   -0.020037
-0.0028225   -0.029457     0.36421   -0.031081    -0.69044   -0.044723   -0.034978
-0.0067202   -0.044723     0.39604   -0.038551    -0.72389   -0.046996   -0.042124
-0.0067202   -0.067784     0.36551   -0.050569    -0.74306   -0.046347   -0.038227
-0.00087364   -0.092145     0.26449   -0.066485    -0.74014   -0.043423   -0.030756
0.011469    -0.11196     0.12807   -0.083375    -0.71545   -0.039851   -0.024909
0.025111    -0.12333   0.0078962   -0.097341    -0.67452   -0.038876   -0.020037
0.03453    -0.12463   -0.060963    -0.10221    -0.61866   -0.041475   -0.017764
0.037129    -0.11293   -0.070382   -0.094743    -0.53096   -0.045372   -0.019063
0.036154   -0.086948   -0.035953   -0.075579    -0.39227   -0.047321   -0.023935
0.037129   -0.053817     0.01764   -0.050244    -0.19998   -0.047971   -0.027833
0.040377   -0.021986    0.066362    -0.02426    0.024461   -0.046347   -0.028482
0.045899   0.0036737    0.095594      0.0014     0.24338   -0.044723   -0.025234
0.050771    0.017965     0.10242    0.025761     0.41228   -0.041475   -0.019063
0.05272    0.018615    0.091047    0.043625     0.50193   -0.033679   -0.013216
0.048497    0.012443    0.071234     0.05142      0.5029   -0.020037  -0.0060706
0.038103    0.003024     0.05272    0.054993     0.42917 -0.00087364   0.0039985
0.022837  -0.0067202    0.042651    0.057592     0.31322    0.019264    0.016016
0.0049729   -0.013541    0.039727    0.057267     0.18979     0.03518    0.022837
-0.0093186   -0.018413    0.039078    0.052395    0.085525    0.045249    0.021863
-0.011267   -0.017764    0.036479    0.042651    0.012119    0.046548    0.016666
-0.0015233   -0.011267     0.03453    0.032582   -0.027183    0.041351    0.012119
0.018615  0.00075039    0.035505    0.029333   -0.039526    0.033231    0.013093
0.0433    0.015042    0.036804     0.03453   -0.041799    0.025111    0.021538
0.063438    0.029333    0.038753    0.043625   -0.046022     0.01894    0.031282
0.072208     0.04395    0.041027    0.050446   -0.059339    0.013093    0.037129
0.067661    0.057592    0.043625    0.055643   -0.073631   0.0088706    0.039727
0.057592    0.066686    0.048172    0.062139   -0.068434    0.011794    0.041351
0.045899    0.071883    0.055968    0.072533   -0.034978    0.022512      0.0433
0.033231    0.072533    0.066037    0.083901    0.014717    0.037129    0.040052
0.019589    0.068635    0.076106    0.088773     0.06831    0.051096    0.030957
0.0069217    0.060515    0.084226    0.080653     0.12125    0.053369    0.020888
-0.0024977    0.050771    0.088448    0.059541     0.17192    0.039727    0.012768
-0.0076946    0.038753    0.084876    0.030957     0.20733    0.010819   0.0046481
-0.011917    0.025761     0.06961  -0.0011985     0.20278   -0.026209  -0.0083442
-0.014516    0.014068    0.039078   -0.030756     0.14886   -0.060313   -0.021986
-0.014516   0.0056225  -0.0037969   -0.045047    0.046223   -0.074605   -0.030756
-0.0089938   0.0033489   -0.052193   -0.034329   -0.097017   -0.062912    -0.03173
-0.00022403   0.0085458   -0.093444  -0.0021729    -0.26657    -0.03173   -0.023935
0.009845     0.01894    -0.11715    0.034855    -0.43871   0.0026992   -0.011592
0.022837    0.027709     -0.1217    0.055643    -0.58065    0.022837   0.0010752
0.03518    0.032582    -0.11261    0.051096    -0.65504    0.016016    0.010495
0.045574     0.03518   -0.097666    0.027385    -0.63977    -0.01614    0.011469
0.047847    0.036479   -0.081426  -0.0060706    -0.55662   -0.062587  0.00010078
0.036154     0.03583   -0.064536    -0.04115    -0.46925    -0.11293   -0.018413
0.010819    0.033231   -0.046671   -0.073955    -0.44586     -0.1597   -0.036927
-0.020687    0.027385   -0.026858    -0.10254    -0.51439    -0.20031   -0.049595
-0.046347    0.021538  -0.0034721    -0.12138    -0.64529    -0.22532   -0.053168
-0.059989     0.01764    0.028684    -0.12203    -0.77586    -0.22629   -0.047646
-0.06551    0.016666    0.066362    -0.10709     -0.8457    -0.20355   -0.033354
-0.068109    0.015692     0.10599   -0.085648    -0.82329    -0.16523   -0.019063
-0.070382    0.016991     0.14626    -0.07428     -0.7135    -0.12235  -0.0076946
-0.072331    0.014068     0.19369    -0.07493    -0.54135   -0.076879   0.0033489
-0.070707   0.0085458     0.24793   -0.077203     -0.3312   -0.029132     0.01829
-0.06551   0.0046481     0.29568   -0.070382   -0.095393    0.025436    0.035505
-0.053817   0.0026992     0.32231   -0.046671     0.15731    0.088448    0.054668
-0.037902   0.0072465     0.32198   -0.011267     0.41358     0.15081    0.069934
-0.022636    0.014717      0.2986    0.023162     0.65069     0.19986    0.078055
-0.0089938    0.024137      0.2606    0.045249     0.83291     0.22422    0.076755
0.00075039    0.029009     0.21577    0.050121     0.92418     0.21252    0.061489
0.0049729    0.029983     0.16933    0.038428     0.90859     0.16413    0.031607
0.0023744    0.029658      0.1245    0.009845     0.80335    0.083576  -0.0073698
-0.0054209    0.026085    0.083251    -0.02426     0.63802  -0.0096434   -0.047971
-0.011267    0.021213    0.047847   -0.052193     0.44736   -0.090521   -0.079152
-0.0096434    0.015367    0.021538   -0.059664     0.26709    -0.13989   -0.093444
-0.0018481    0.011469    0.008221   -0.046022     0.13392    -0.15646   -0.094093
0.0059473    0.012443   0.0069217   -0.022961    0.083576    -0.14704   -0.085324
0.0062721    0.016991    0.015367  -0.0047713     0.15016    -0.12755   -0.074605
-0.00087364    0.022188    0.028684  -0.0037969      0.3379    -0.11391   -0.068758
-0.012892    0.027709    0.053044    -0.01549     0.59807    -0.11196   -0.070058
-0.021337    0.031282     0.10047   -0.036278     0.85045    -0.11521   -0.076554
-0.022636    0.032582     0.16543   -0.059989      1.0242    -0.11163   -0.079802
-0.019388    0.028359     0.23754   -0.081426      1.0814   -0.090845   -0.073306
-0.01484     0.01829     0.30315   -0.095068      1.0245   -0.053817   -0.056741
-0.012567   0.0075714     0.35414   -0.095717      0.8826   -0.012242   -0.038551
-0.01549   0.0020496     0.38922   -0.084349     0.69811    0.018615   -0.023935
-0.02426   0.0052977     0.41261   -0.067459     0.49316    0.033231   -0.015815
-0.03303    0.016666     0.43145    -0.04927     0.26482    0.030308   -0.012242
-0.035303    0.034206     0.44963   -0.031406    0.035505    0.014717   -0.011267
-0.026533    0.048822     0.46555   -0.012567    -0.13404  -0.0073698   -0.010943
-0.0083442    0.061489     0.47627    0.011144    -0.18634   -0.025884   -0.010293
0.016341    0.067986     0.47432    0.039402    -0.11748   -0.035303  -0.0093186
0.036804    0.066362     0.45418    0.067986    0.016016   -0.034329   -0.011267
0.044599    0.058566     0.40416    0.089423     0.13944   -0.025559   -0.016464
0.042651    0.047198     0.29308    0.096244     0.21447   -0.011592   -0.020687
0.037778    0.037778    0.046223    0.090722     0.23883   0.0052977    -0.01614
0.034206    0.030633    -0.43417    0.077405     0.22454    0.021863  -0.0018481
0.031932    0.025436     -1.1179    0.059541     0.18946     0.03583     0.01894
0.032906    0.021213     -1.8237    0.037778     0.14302    0.041351    0.037778
0.03518    0.017316     -2.3232    0.013418    0.088448    0.034206    0.046223
0.038753    0.015042     -2.4662  -0.0089938    0.031932    0.020564      0.0433
0.038753    0.013418     -2.2362   -0.024585   -0.018088     0.01017     0.03518
0.032906    0.013418     -1.7477    -0.03173   -0.054467   0.0075714    0.029983
0.022837    0.015692     -1.1725   -0.033354   -0.079802    0.013418    0.028684
0.011794     0.01829    -0.66738   -0.029132    -0.11228    0.022512    0.029983
0.0033489     0.01829    -0.32471   -0.019712     -0.1727    0.029658    0.031282
-0.0028225    0.013743    -0.15548  -0.0034721    -0.26429    0.029983    0.031282
-0.0096434   0.0052977    -0.11163    0.015692     -0.3731    0.024786    0.029658
-0.013866  -0.0080194    -0.12592    0.033881    -0.47834    0.019264    0.024137
-0.012567   -0.020362    -0.14476    0.047847    -0.56734     0.01829     0.01894
-0.007045   -0.028482    -0.13567    0.057917    -0.64042    0.024786    0.016341
0.0010752   -0.029782   -0.092794    0.065712    -0.70408    0.034855    0.017965
0.011469   -0.026209   -0.030106    0.072533     -0.7567    0.042326    0.025111
0.01894   -0.018413    0.034206    0.078704    -0.79275    0.039078    0.036154
0.022512  -0.0076946    0.088448    0.081627    -0.80217    0.029333    0.046223
0.025436   0.0010752     0.13035    0.083576    -0.78106    0.020564    0.053369
0.028684   0.0059473     0.16153    0.089098    -0.72682    0.017965    0.056942
0.032906    0.008221     0.18589    0.099167    -0.64757    0.022188     0.06084
0.039078    0.012768     0.20863     0.11313    -0.54882    0.029983    0.066362
0.044924    0.018615     0.23656      0.1258    -0.43709    0.039078    0.074806
0.047847    0.025761     0.27391      0.1336    -0.31659    0.044275    0.081952
0.046873    0.030957     0.32621     0.13132    -0.19219    0.039727    0.087149
0.042001    0.033556     0.38597     0.11671   -0.068109    0.027385     0.08585
0.032257    0.033231     0.44216    0.095594    0.042975    0.013418    0.077405
0.021863    0.030308     0.48276    0.078379      0.1258      0.0014    0.064737
0.01829    0.028034     0.50095    0.075456     0.16835  -0.0073698    0.051745
0.022837    0.028034     0.50128    0.086175      0.1664   -0.011917    0.040377
0.030957    0.031932     0.49381     0.10436     0.12613   -0.012567    0.034206
0.033881    0.039078     0.48796      0.1206    0.054019   -0.013866    0.030308
0.029983    0.047847     0.49446     0.12483   -0.027833   -0.016464    0.026085
0.022188    0.053044     0.52077     0.11508   -0.090845   -0.020687    0.018615
0.013743    0.053369     0.56624    0.097218    -0.10968   -0.023285    0.008221
0.008221    0.054019     0.62763    0.078055   -0.078503   -0.017764  0.00010078
0.0078962    0.058241     0.69714    0.064737  -0.0096434  -0.0011985      0.0014
0.009845    0.065712     0.76632    0.063438    0.077405    0.024461    0.011469
0.015692    0.073832     0.82674    0.071558      0.1664    0.050446    0.025761
0.020564    0.080653     0.85954    0.082602     0.24371    0.070909    0.038103
0.024786    0.083576     0.83388    0.089098     0.30542    0.082927    0.044599
0.028684    0.080978     0.69974     0.08585     0.35317    0.092021    0.044924
0.031932    0.070909     0.41423    0.072208     0.38467     0.10242    0.042975
0.03583    0.051096   0.0091954    0.047523     0.39442     0.10826    0.037778
0.037129    0.024461     -0.4163     0.01894     0.37818     0.10209    0.026085
0.032257  -0.0024977    -0.75573  -0.0060706      0.3379    0.080653   0.0095202
0.020564   -0.020037    -0.94346   -0.021012     0.28366    0.050771  -0.0093186
0.0020496   -0.026533    -0.96718   -0.021661     0.22129    0.022188   -0.023935
-0.018088    -0.02361    -0.85999   -0.011917     0.15471   0.0023744   -0.029782
-0.034329   -0.016789     -0.6703   0.0033489    0.082602  -0.0093186   -0.027833
-0.044723   -0.010618    -0.47899    0.016666   0.0023744    -0.01549   -0.016464
-0.04927  -0.0050961    -0.42052    0.020888   -0.078178   -0.019063 -0.00054884
-0.050894  -0.0037969    -0.58553    0.013418    -0.14216   -0.020037    0.014068
-0.053492   -0.012242    -0.90189   -0.010943    -0.17594   -0.022636    0.020564
-0.061288    -0.03303     -1.1604   -0.049595    -0.18082   -0.029457    0.015042
-0.072331   -0.064536     -1.1699   -0.095068    -0.16782   -0.044723  -0.0015233
-0.082076   -0.095717    -0.86454    -0.13632    -0.14541   -0.064861   -0.019063
-0.084024    -0.11456    -0.33835    -0.16263    -0.11033   -0.081751   -0.032055
-0.076554    -0.11521     0.23883    -0.16328   -0.059014   -0.083375   -0.037252
-0.061937    -0.10124     0.71728    -0.13437   0.0095202   -0.062912   -0.033679
-0.047971   -0.079477      1.0281   -0.081101    0.086175   -0.021337   -0.019388
-0.038227   -0.063561      1.1756   -0.019388     0.15114    0.027709   0.0023744
-0.027833   -0.058365      1.2068    0.033231     0.18914    0.067336    0.026735
-0.013541   -0.059664      1.1788    0.065712     0.18687    0.081303    0.046873
0.0010752   -0.061288      1.1233     0.07773     0.13327    0.066362    0.056292
0.016666    -0.05739      1.0385    0.083576    0.036804    0.031282    0.055968
0.029658   -0.039201     0.91443    0.097543   -0.069733  -0.0093186     0.05207
0.041351  -0.0099683     0.74488     0.12223    -0.14801   -0.042774    0.054019
0.054019    0.022512     0.53343     0.14951    -0.17757   -0.065835    0.061814
0.066362    0.046223     0.28073      0.1677    -0.17042   -0.081101     0.06831
0.072858    0.058891  0.00075039       0.169    -0.15093   -0.087272     0.06961
0.06896    0.062139    -0.25617     0.14951    -0.12722   -0.080127    0.067011
0.053044    0.055968    -0.43092     0.10729   -0.088896    -0.05739    0.063113
0.028034    0.043625    -0.48484    0.046873   -0.028482    -0.02426    0.055318
0.0039985    0.029333    -0.42605   -0.022311    0.042651    0.013093    0.042975
-0.012567     0.01894    -0.30262   -0.083375    0.095594    0.048822    0.029009
-0.018413    0.015042     -0.1753    -0.12138    0.097218    0.075781    0.016991
-0.015165    0.014717   -0.088572    -0.13404    0.038103    0.084226   0.0088706
-0.0083442    0.013743   -0.059014    -0.12885   -0.058365    0.071234   0.0059473
-0.0015233    0.011469   -0.077853    -0.11358    -0.14834    0.043625   0.0065969
0.0039985   0.0085458     -0.1217   -0.095393    -0.19056    0.016341    0.008221
0.0062721   0.0072465    -0.16425   -0.075579    -0.17594 -0.00054884   0.0088706
0.0072465   0.0088706    -0.19154   -0.055116     -0.1282  -0.0057458   0.0062721
0.0052977    0.013743    -0.20193   -0.036927     -0.0824  -0.0015233  0.00042559
-0.0018481    0.019264     -0.2029   -0.024585   -0.062912      0.0014   -0.012242
-0.015165    0.023162    -0.20648   -0.023285   -0.069733  -0.0015233   -0.030431
-0.029132    0.022188    -0.22207   -0.035628   -0.089221  -0.0089938   -0.047971
-0.038227    0.014392     -0.2448   -0.053168    -0.10156   -0.017114   -0.059339
-0.038551      0.0014     -0.2539    -0.06551   -0.089221   -0.019712   -0.059664
-0.03173  -0.0080194    -0.23376   -0.069083   -0.042124   -0.012892   -0.046671
-0.018738  -0.0067202    -0.18374    -0.06551    0.036804   0.0023744   -0.024909
-0.0050961    0.008221    -0.11098   -0.057715     0.13587    0.022512  0.00075039
0.0078962    0.037129   -0.024585   -0.045372     0.23754     0.04395    0.021538
0.016991    0.071883    0.059541   -0.025559     0.33043    0.061489    0.030633
0.022512     0.10469     0.11476  -0.0018481     0.40611    0.067661    0.027709
0.022837     0.13197     0.11866    0.025436     0.45613    0.062464    0.015367
0.019589     0.14886    0.066037     0.05272     0.47984    0.052395   0.0023744
0.016016     0.15406   -0.021986    0.074806     0.48829    0.040702  -0.0037969
0.012119     0.14659    -0.10838      0.0852      0.5016    0.023487  -0.0024977
0.0075714     0.13165    -0.15158    0.083251     0.53408 -0.00022403   0.0010752
0.0078962     0.11411    -0.13177    0.073507     0.58735    -0.03173   0.0039985
0.016666    0.095594   -0.072981     0.06084     0.62763    -0.06616   0.0023744
0.031282     0.07708   -0.030106    0.049472     0.58216    -0.10189  -0.0073698
0.049472    0.059216   -0.047321    0.036804     0.38727    -0.13502   -0.018088
0.067661    0.041676    -0.12268    0.025436    0.044275    -0.15841   -0.017114
0.084876    0.020564    -0.22207    0.020888    -0.36628     -0.1636  -0.0018481
0.097543  -0.0054209    -0.30652    0.025111    -0.72422    -0.15191    0.021213
0.10371   -0.039851    -0.32763    0.037129    -0.92917    -0.13404    0.041676
0.097543   -0.079802    -0.24253    0.050771    -0.95776    -0.12105    0.048497
0.076431    -0.11651   -0.058365    0.064088    -0.86843     -0.1178    0.034206
0.04395    -0.14964     0.16348    0.075781    -0.74208    -0.12203  0.00010078
0.0095202    -0.18374     0.33725    0.087149    -0.62743    -0.12138   -0.038551
-0.017439    -0.22791     0.39961    0.096569    -0.53128    -0.11033   -0.063237
-0.035303    -0.27988      0.3457    0.099167    -0.42929   -0.088247   -0.068434
-0.038876    -0.31789     0.22194    0.090072      -0.301   -0.059014   -0.054792
-0.029457    -0.31594    0.090072    0.071883     -0.1623   -0.028157    -0.03238
-0.014191    -0.26787  -0.0034721    0.048497   -0.059339  -0.0031473  -0.0099683
-0.0024977    -0.18634   -0.017764    0.025111   -0.046022    0.013093   0.0069217
0.00075039   -0.094743    0.075131  -0.0018481    -0.14801    0.023487     0.01017
-0.0044465   -0.020362     0.28496   -0.033679    -0.34225    0.028034  0.00075039
-0.01484    0.020564      0.5841   -0.073631    -0.54623    0.023812    -0.01484
-0.027508    0.027385      0.8826     -0.1178    -0.65341     0.01017   -0.027833
-0.040825   0.0088706      1.0609    -0.15905    -0.60794   -0.010618   -0.036602
-0.050244   -0.020362      1.0401    -0.18796    -0.41858   -0.034978   -0.043423
-0.056091   -0.044073     0.83128    -0.19868    -0.13437   -0.058365   -0.052193
-0.056416    -0.04862     0.51395    -0.19186     0.16705   -0.080127   -0.063237
-0.050894   -0.031081     0.18492    -0.17042     0.41033   -0.094743   -0.070382
-0.039851 -0.00087364   -0.084674    -0.14346      0.5461   -0.097991   -0.067134
-0.023285     0.03453    -0.26916    -0.11293     0.56527   -0.084999   -0.052193
-0.0037969    0.065712    -0.38317   -0.077853     0.48082   -0.056741   -0.031406
0.015692     0.08585    -0.45236   -0.039851     0.31776   -0.023285  -0.0093186
0.029983    0.091372    -0.49913   -0.007045    0.095269   0.0017248   0.0078962
0.036154    0.085525    -0.52901    0.015367     -0.1636   0.0078962    0.014717
0.035505    0.075131     -0.5394     0.02706    -0.39941  -0.0057458    0.011469
0.033231    0.061165    -0.53193    0.031607    -0.54525   -0.030106   0.0056225
0.029009    0.042001    -0.52771    0.031932    -0.57221   -0.050569      0.0014
0.019589    0.020888    -0.54395    0.023162    -0.46957   -0.059014  -0.0050961
0.0065969   0.0017248    -0.57448   0.0010752    -0.24708   -0.053492   -0.010293
-0.007045  -0.0089938     -0.5969   -0.035628    0.036154   -0.036278   -0.017114
-0.015815  -0.0076946      -0.593   -0.073955     0.29438   -0.016464    -0.02426
-0.019063   0.0026992    -0.55175    -0.10026     0.46425   0.0017248   -0.029132
-0.020037     0.01829    -0.47834    -0.10611     0.52986    0.016341   -0.027508
-0.021337    0.033231    -0.39454   -0.095393     0.52402    0.029983   -0.020037
-0.022636    0.040377    -0.32828   -0.073955     0.50875    0.045249  -0.0076946
-0.019388    0.038428    -0.28865    -0.04862     0.53116     0.06961   0.0065969
-0.010943    0.027385    -0.26787   -0.019712     0.59515     0.10826    0.019914
0.003024    0.013093    -0.25065    0.014068      0.6757     0.15666    0.029333
0.016991 -0.00087364    -0.22824    0.054019     0.75008     0.20473    0.034855
0.022512   -0.011267    -0.19641    0.090397     0.81862     0.24403    0.039078
0.019914   -0.013541    -0.15353     0.11086     0.88033     0.26872    0.039402
0.011794  -0.0083442    -0.10059     0.10761     0.92418     0.27424    0.033881
0.0078962   0.0023744   -0.043423    0.087474     0.92158     0.25313    0.022512
0.012443    0.017965    0.015042    0.061489     0.84947     0.20473    0.011144
0.02641    0.038103    0.072208    0.039402     0.71793     0.14009   0.0023744
0.038428    0.057917     0.12645    0.027385     0.56072    0.080328  -0.0031473
0.035505    0.071883      0.1729    0.029009     0.42755      0.0433   -0.010618
0.014068    0.072208     0.20376    0.034855     0.33855    0.030633   -0.021337
-0.01484    0.059541      0.2148    0.036154     0.27359    0.032582   -0.037902
-0.042449    0.040377     0.20895    0.029658     0.19661    0.032906   -0.053817
-0.062262    0.022512     0.19044    0.012768     0.10079    0.024137   -0.062912
-0.072331    0.012119     0.16348  -0.0054209    0.015692   0.0046481   -0.061937
-0.069733   0.0091954     0.13392   -0.019063   -0.016464   -0.023935   -0.055441
-0.055766    0.012768     0.10566   -0.027833    0.022188   -0.052843    -0.04992
-0.037902    0.019589      0.0865   -0.032055      0.1206   -0.068434   -0.043748
-0.022311     0.02706    0.076755   -0.031406     0.24176   -0.056416   -0.034329
-0.011592    0.035505    0.079029   -0.022961     0.33758   -0.022636   -0.021661
-0.0028225    0.046548    0.087149  -0.0057458     0.37136    0.018615  -0.0054209
0.0072465    0.059541    0.096569    0.016016     0.32296    0.049796    0.011469
0.019589    0.071234     0.10274    0.042651     0.18719    0.064088    0.030633
0.032906    0.078055     0.10599    0.070259   -0.016789    0.060515    0.049472
0.044924    0.079029     0.10794    0.091696    -0.25195    0.041351    0.061814
0.052395    0.075131     0.10729     0.10729     -0.4699    0.011469    0.062464
0.050121     0.06831     0.10274     0.11703    -0.63132   -0.021986    0.054019
0.039078    0.059216    0.094945     0.11768       -0.72   -0.054467    0.044599
0.020239    0.050121      0.0852     0.10794     -0.7528     -0.0837    0.038428
0.0026992    0.040702    0.066362    0.091047    -0.76222    -0.10741     0.03583
-0.0093186    0.032906    0.031607    0.072208    -0.76742    -0.12073    0.033556
-0.012567    0.030633    -0.01614    0.058891     -0.7567    -0.11975    0.029983
-0.011267    0.037129    -0.06616    0.058241    -0.70895    -0.10449    0.028359
-0.0099683    0.051096    -0.10254    0.067661    -0.61443   -0.078827    0.029658
-0.0080194     0.06896    -0.11586    0.078704    -0.47607   -0.051219    0.034206
-0.0031473    0.083901    -0.10871    0.082927    -0.31171    -0.03303    0.040702
0.0026992    0.092996   -0.088572     0.07773    -0.13827   -0.021661    0.047847
0.010495    0.094295   -0.063561    0.068635    0.027385   -0.011917    0.053694
0.018615    0.089748   -0.039526     0.06084     0.16478  -0.0021729    0.056942
0.025436    0.084226    -0.02361    0.052395     0.23948   0.0026992    0.058891
0.032582    0.079679   -0.019712    0.041676     0.20311  -0.0054209    0.059216
0.033881    0.074806   -0.030431    0.028684    0.022188   -0.028482    0.054344
0.029333    0.066686   -0.054142    0.022837    -0.28053   -0.053168    0.047523
0.020239    0.054993   -0.087272    0.030633    -0.62191   -0.064861    0.042001
0.012443      0.0433    -0.12235    0.052395    -0.88987   -0.058689    0.038428
0.0095202    0.032257    -0.15353    0.079679    -0.99966   -0.039526    0.036154
0.012119    0.024461    -0.17724    0.099492    -0.92917   -0.019063    0.032582
0.01829    0.020564    -0.18212     0.10826    -0.72487  -0.0044465    0.023487
0.027385    0.016991    -0.12527     0.10144    -0.47542  -0.0047713    0.011144
0.033556   0.0091954    0.058241    0.084226    -0.26689   -0.018413 -0.00087364
0.034206  -0.0063954     0.37395     0.06019    -0.15808   -0.039201  -0.0076946
0.028684   -0.025559     0.72767    0.031282    -0.14899   -0.059989  -0.0050961
0.019589   -0.044723     0.99109   0.0043233    -0.17562   -0.072331   0.0039985
0.014717   -0.060638      1.0843   -0.014191    -0.16198   -0.073306     0.01764
0.013418   -0.072331      1.0077   -0.022311   -0.076554   -0.063886    0.029333
0.012119   -0.082076     0.81082   -0.018738    0.054019   -0.050569    0.039078
0.011144     -0.0837     0.56267  -0.0076946      0.1677   -0.035953    0.045899
0.011469   -0.079802     0.32588     0.01017      0.2057   -0.028482    0.047847
0.013093   -0.070707     0.14139    0.030308     0.13977   -0.028807    0.046223
0.016016   -0.057065     0.02641    0.054993   -0.015165   -0.030431    0.042975
0.017316   -0.041475   -0.026858    0.084226    -0.20843   -0.024585    0.039078
0.017316   -0.028482   -0.038551     0.11703    -0.37862  -0.0099683     0.03583
0.01894   -0.022961   -0.031406     0.14432     -0.4988   0.0085458    0.039078
0.022188   -0.023285   -0.022311     0.15438    -0.57091    0.023162    0.042001
0.02641   -0.026209   -0.025884     0.14237    -0.61216    0.025761    0.041351
0.029009   -0.026209   -0.048296     0.11054     -0.6388    0.012119     0.03583
0.032582   -0.019063   -0.084999    0.063763    -0.65958   -0.010293     0.02706
0.038428 -0.00054884    -0.12138    0.008221    -0.67647   -0.031406    0.015042
0.042326    0.029983    -0.14152   -0.048945    -0.68589   -0.046022   0.0020496
0.042326    0.067011    -0.13437   -0.098641    -0.67972   -0.052843  -0.0063954
0.036804     0.10079    -0.11001    -0.13145    -0.63652   -0.052193  -0.0099683
0.031607     0.12223     -0.0837    -0.14216    -0.53193   -0.040825   -0.007045
0.030308     0.12743   -0.070382    -0.12852    -0.35102   -0.015815  0.00010078
0.034855     0.11508   -0.076229   -0.094743   -0.090845    0.022837   0.0091954
0.046223     0.09397   -0.097341   -0.046671     0.22714     0.06961    0.019264
0.057917    0.070909    -0.13015   0.0052977     0.56039     0.11183    0.029983
0.062789    0.049796    -0.16977    0.042975     0.85662     0.13067    0.033231
0.054019    0.031607    -0.21232    0.051745      1.0713     0.11151    0.024786
0.030957    0.013418    -0.25487    0.027709      1.1818    0.056292   0.0033489
0.00042559  -0.0047713     -0.2945    -0.01614      1.1938   -0.013541   -0.023285
-0.030756   -0.023935    -0.33283    -0.06551      1.1317   -0.069083   -0.044723
-0.057065   -0.043099    -0.36856    -0.10838      1.0281   -0.091495   -0.054142
-0.076879   -0.053492    -0.38382    -0.14184     0.91281   -0.087922   -0.052843
-0.089221   -0.053168    -0.32406    -0.16328      0.8014   -0.069733    -0.04862
-0.094418   -0.046022    -0.15581    -0.17335     0.70266   -0.047321   -0.045697
-0.092469   -0.035953      0.0852    -0.17075     0.60814   -0.028157   -0.045047
-0.083375   -0.026533     0.33173    -0.15808     0.50225   -0.018088   -0.046022
-0.071682   -0.021986     0.52531    -0.14152     0.38305   -0.016789   -0.047321
-0.061613   -0.021337      0.6325    -0.12333     0.26969   -0.021661   -0.044723
-0.052193   -0.019388     0.65102    -0.10124     0.18362   -0.025234   -0.039851
-0.039851   -0.014516     0.60067   -0.073631       0.131   -0.020037   -0.029457
-0.024585  -0.0073698      0.5081     -0.0405    0.099492  -0.0044465   -0.018088
-0.0089938 -0.00022403     0.40091  -0.0034721    0.072208    0.014392  -0.0063954
0.003024   0.0065969     0.29535    0.032582    0.038103     0.03453   0.0069217
0.008221    0.012443     0.19531    0.060515   -0.010618     0.05207    0.020888
0.0049729     0.01764     0.10469    0.074482    -0.08305    0.065062    0.032582
-0.0015233    0.019264    0.019589    0.076431    -0.16815    0.075781    0.041351
-0.0037969    0.018615   -0.070707    0.071234    -0.23571      0.0865    0.046873
-0.0015233    0.016016    -0.17237    0.064088    -0.25585     0.10014    0.054344
0.0010752    0.014717    -0.27436    0.061814    -0.21947     0.11118    0.061814
0.0039985    0.015042    -0.34549    0.065062    -0.13989     0.11671    0.065387
0.0052977    0.016341    -0.36206    0.073832   -0.051868     0.11216    0.062464
0.0065969    0.016666    -0.32016     0.08585    0.019264     0.09397    0.056617
0.011794    0.013093    -0.23896     0.10274    0.070584    0.064413     0.05272
0.019914   0.0046481    -0.14996     0.12288     0.10891    0.033556    0.048497
0.024137  -0.0073698   -0.077853     0.13457     0.12905    0.011144    0.040052
0.021538   -0.016464   -0.033679      0.1284     0.11833  -0.0024977    0.025111
0.014717   -0.021661  -0.0093186     0.10209     0.07708   -0.012242   0.0085458
0.0095202   -0.019388  -0.0034721    0.065062    0.023162   -0.025234  -0.0018481
0.009845   -0.011267   -0.047321    0.029333   -0.020687   -0.040175  -0.0063954
0.019264  -0.0015233    -0.20031   0.0039985   -0.039201   -0.048945  -0.0054209
0.031932   0.0039985     -0.4673  -0.0083442   -0.027183   -0.041799  0.00010078
0.044275   0.0023744    -0.76255   -0.011267    0.013093   -0.016464    0.012119
0.056942  -0.0018481    -0.96295   -0.010293    0.069285    0.018615    0.028359
0.067661  -0.0063954    -0.98277  -0.0054209      0.1245    0.053694    0.044599
0.075131  -0.0073698    -0.81192   0.0046481     0.16413    0.081952    0.060515
0.07708  -0.0018481    -0.51667     0.01764     0.17712    0.098842    0.075131
0.075781   0.0091954    -0.20128    0.028684     0.15568     0.10794    0.082277
0.071234    0.022837    0.042001    0.031932    0.097218     0.11248     0.07773
0.065062     0.03583     0.17647    0.025436   0.0091954     0.11313    0.064088
0.054344    0.042001     0.22097    0.013743   -0.090196     0.10112    0.044275
0.041027    0.041351     0.22065   0.0039985    -0.17465     0.06961    0.022512
0.029983    0.035505     0.22194  -0.0031473    -0.22109    0.021863   0.0052977
0.021863    0.030957     0.24501   -0.007045    -0.21395   -0.028482  -0.0054209
0.013418    0.030308     0.28203  -0.0044465    -0.14964   -0.067784  -0.0089938
0.0046481    0.037454     0.31354   0.0039985   -0.040825   -0.085324  -0.0093186
0.0020496    0.049472     0.32913    0.017965    0.084551   -0.079152  -0.0089938
0.0069217    0.061814     0.32198    0.036479     0.19141   -0.054467  -0.0080194
0.014068    0.071558     0.30152    0.057267     0.23948   -0.027833  -0.0021729
0.017316     0.07773     0.28041    0.076106      0.2083   -0.012567   0.0069217
0.01017    0.078055     0.26417    0.091696     0.10566   -0.017114   0.0069217
-0.0060706    0.073832     0.25085    0.098193   -0.042774   -0.035628  -0.0037969
-0.024909    0.063438     0.22844    0.089423    -0.20225   -0.060638   -0.021661
-0.043099    0.048497     0.19076    0.062139    -0.33867   -0.083375   -0.038551
-0.057715    0.028684     0.13587    0.017316    -0.42702    -0.10156   -0.050569
-0.069733   0.0085458    0.063763   -0.039851    -0.46437    -0.10871   -0.059014
-0.074605  -0.0080194   -0.013541   -0.096042     -0.4686    -0.10351   -0.061288
-0.072981   -0.020362   -0.078827    -0.13599    -0.47932    -0.09182   -0.054467
-0.062262   -0.028482    -0.11845    -0.14801    -0.52576   -0.080127    -0.04115
-0.041799   -0.030756     -0.1282    -0.12755    -0.59852   -0.068758   -0.021661
-0.017764   -0.027833    -0.11943     -0.0824    -0.66413   -0.056416 -0.00054884
0.0039985   -0.022636    -0.10254   -0.031406    -0.69044   -0.046347     0.01894
0.017965   -0.015815   -0.089221   0.0065969    -0.65114   -0.042124    0.029009
0.021213  -0.0080194   -0.083375    0.024461     -0.5433   -0.053168    0.025761
0.014717  -0.0034721     -0.0837    0.024461    -0.37083   -0.075904    0.013743
0.0059473   0.0010752   -0.084024    0.013743    -0.15093   -0.098641 -0.00087364
-0.00022403   0.0072465   -0.081101   0.0010752    0.087149    -0.10644   -0.010943
0.00010078    0.012443   -0.072981  -0.0076946     0.30185   -0.094093    -0.01549
0.0072465    0.010819   -0.061288  -0.0099683     0.45905   -0.067134   -0.018738
0.014392  -0.0015233   -0.050569  -0.0073698     0.54935   -0.037577   -0.023285
0.010495   -0.023285   -0.044398  -0.0011985     0.58053   -0.020687    -0.03238
-0.0047713   -0.044723   -0.040175   0.0095202     0.55877   -0.025559   -0.046347
-0.022961    -0.05804   -0.034654    0.024461     0.49283   -0.050244   -0.065186
-0.036927   -0.062262   -0.027833    0.039402     0.39539   -0.079802   -0.081426
-0.043748   -0.056416   -0.018088     0.05142     0.28236    -0.10026   -0.086298
-0.044723   -0.043748  -0.0076946    0.059216     0.16413    -0.10416   -0.077203
-0.043423   -0.029782  0.00010078    0.055968    0.037778   -0.097341   -0.058365
-0.039851   -0.015815  -0.0034721    0.035505   -0.098965   -0.090521   -0.038227
-0.035628  -0.0057458    -0.02426  -0.0018481    -0.22661   -0.088896   -0.021661
-0.026209  -0.0021729   -0.062912   -0.046671    -0.31431    -0.09182   -0.013216
-0.012242  -0.0044465    -0.10871   -0.092794    -0.35199    -0.10026   -0.011592
0.00010078   -0.008669    -0.15158     -0.1321     -0.3442    -0.10741   -0.010943
0.0072465   -0.013866    -0.18471    -0.15743    -0.30067    -0.10709  -0.0089938
0.0078962    -0.01614    -0.20323    -0.16782    -0.23376   -0.090521  -0.0073698
0.0033489   -0.015815    -0.20258    -0.16328    -0.15483   -0.060313  -0.0057458
-0.00087364   -0.011592    -0.18471    -0.14411   -0.080776   -0.025559  -0.0050961
-0.0021729   -0.007045    -0.15548    -0.11553   -0.029457   0.0052977  -0.0063954
0.00075039  -0.0057458    -0.12203   -0.084024   -0.010943    0.028684   -0.010618
0.0046481   -0.008669   -0.087922   -0.053492   -0.018738    0.047198   -0.018088
0.0039985   -0.013866   -0.059339   -0.026209    -0.04115    0.064737   -0.022961
-0.0011985   -0.020687   -0.039851 -0.00054884   -0.068109    0.081627   -0.021661
-0.0093186   -0.025234   -0.027833    0.020239   -0.092145    0.094295    -0.01549
-0.018738   -0.026858   -0.014191     0.03453    -0.10514     0.10177  -0.0099683
-0.030431   -0.027508    0.011469    0.046873   -0.094743     0.10242  -0.0073698
-0.043748   -0.029132    0.062139    0.058891   -0.055766    0.097543  -0.0031473
-0.055116   -0.031081     0.15081    0.074806    0.008221    0.093645   0.0026992
-0.064211   -0.029132     0.27716    0.092346    0.070909    0.097218    0.012768
-0.070707   -0.022636      0.4204     0.10534     0.10306     0.10761    0.025436
-0.070382  -0.0096434     0.55292     0.11118    0.095594     0.11216    0.033556
-0.064536   0.0085458     0.65296     0.10826    0.071558     0.10144    0.033231
-0.055766    0.028034     0.71305     0.10047    0.075456    0.076755    0.026085
-0.045697    0.044599     0.74034    0.089098     0.15731    0.048172    0.015367
-0.034329    0.054668     0.74683    0.076431     0.33693    0.027385   0.0062721
-0.019063    0.058566     0.74651    0.061489     0.57956    0.019914 -0.00054884
-0.0041217    0.059865     0.74813    0.044599     0.79133    0.027385  -0.0028225
0.0056225    0.063113     0.75463    0.031282     0.87513    0.044275  -0.0018481
0.008221     0.06896     0.76048     0.02641     0.78873    0.055968   0.0020496
0.0043233    0.071883     0.75495    0.030957     0.57501     0.05142    0.003024
-0.0050961    0.069285     0.72312    0.042326      0.3405    0.029658  -0.0024977
-0.017439    0.055318       0.639    0.054344     0.19661  -0.0028225   -0.014516
-0.027833    0.034855     0.45938    0.063113     0.19336   -0.036602    -0.02361
-0.034004   0.0069217    0.092346    0.061814     0.27814   -0.061937    -0.02426
-0.032705   -0.019712    -0.52544    0.049147     0.32588   -0.070058   -0.013541
-0.025884     -0.0405     -1.2923    0.029983     0.24728   -0.061288   0.0049729
-0.018088   -0.051219     -1.9887   0.0065969    0.054344    -0.04115    0.025436
-0.0067202   -0.050894     -2.3999   -0.010943    -0.16945   -0.015165    0.042651
0.0088706   -0.043099     -2.4197   -0.018088    -0.32113    0.011144    0.052395
0.024137    -0.03238     -2.0783   -0.012892    -0.31009    0.031282    0.055643
0.037129   -0.016789      -1.521    0.003024    -0.11878    0.038428    0.055318
0.042651   0.0026992    -0.92982    0.023487     0.18102    0.029658    0.048497
0.045249    0.020239    -0.45268    0.041027     0.47692    0.011144     0.03453
0.047523    0.029009    -0.16003     0.05142     0.69129   -0.015815    0.017965
0.051096    0.028684   -0.038876    0.050771     0.79458   -0.044073  0.00075039
0.054019    0.022512   -0.026533    0.039402     0.81342   -0.067459   -0.010618
0.053369     0.01764   -0.046347    0.020239     0.79458   -0.077853   -0.013866
0.050121    0.016991   -0.042449  -0.0015233     0.76989   -0.072656  -0.0089938
0.044599    0.017316   0.0039985   -0.020037     0.74034   -0.059014  0.00042559
0.037454     0.01829     0.08585   -0.028482     0.68512   -0.045697   0.0085458
0.030308    0.017316     0.18037   -0.021337     0.58086   -0.034004    0.013743
0.024461    0.014717     0.26579  -0.0041217     0.42852   -0.023285    0.016341
0.023812    0.014717     0.32783    0.013093      0.2528   -0.010943    0.018615
0.028034    0.018615     0.37818    0.022188    0.084226   0.0049729    0.023487
0.036479    0.019589     0.41943    0.025436   -0.056741    0.021213    0.030957
0.053369   0.0078962      0.4165    0.029333    -0.16847     0.03583    0.041027
0.074482   -0.016464     0.32816    0.040702    -0.26137    0.054668    0.048822
0.09462   -0.043748     0.14951    0.060515    -0.35394    0.079029    0.053044
0.10631   -0.062912   -0.090196     0.08585    -0.46113     0.10242    0.054668
0.10989   -0.067459    -0.36401     0.11021    -0.57936     0.11801    0.053694
0.10826   -0.057065    -0.64204      0.1245    -0.68979     0.12483    0.050771
0.10306   -0.035303    -0.86129     0.12807    -0.76644      0.1245    0.049472
0.09462   -0.012567    -0.93729      0.1206    -0.78593     0.11833    0.049147
0.082277  0.00075039     -0.8064     0.10566    -0.74208     0.10989    0.049147
0.066037 -0.00054884    -0.46827    0.089748    -0.64789     0.10859    0.049472
0.047847    -0.01484     0.01017    0.084226    -0.52836     0.11573    0.051745
0.031282   -0.038551     0.51297    0.093645    -0.42572      0.1206     0.05207
0.019914   -0.070382     0.92515     0.11086    -0.38187     0.11411    0.041027
0.012119    -0.10091      1.1899     0.12743    -0.41468    0.090722    0.021863
0.0059473    -0.11553      1.3016     0.13457    -0.48776     0.05142  0.00010078
-0.0015233    -0.11326      1.2928     0.12937    -0.54103   0.0065969   -0.018413
-0.011592   -0.093769      1.2061     0.10729    -0.53323    -0.03303   -0.031406
-0.024585   -0.066485      1.0846    0.069285    -0.46437   -0.059014   -0.035303
-0.037252   -0.042124     0.96608    0.011144    -0.35394    -0.06616   -0.028807
-0.047321   -0.026858     0.86799   -0.061613    -0.22889   -0.057715   -0.017764
-0.054467   -0.018088     0.79588    -0.13307    -0.10871   -0.038227  -0.0057458
-0.062262  -0.0031473     0.74618    -0.18536  -0.0083442   -0.014516   0.0046481
-0.068758    0.027385       0.715     -0.2042    0.061165    0.003024    0.010495
-0.065835    0.074482     0.70201    -0.18861    0.093321   0.0062721    0.014392
-0.047646     0.13197     0.71695    -0.15029    0.082927   -0.013216    0.019589
-0.018738     0.18362     0.77119    -0.10189    0.022188   -0.056741    0.024461
0.013418     0.21837     0.87188   -0.054792   -0.087922    -0.11488    0.028034
0.042326     0.23201      1.0031   -0.019388    -0.24773    -0.17042    0.030633
0.067986     0.22617      1.1113  0.00042559     -0.4608     -0.2042    0.032582
0.086824       0.207      1.1194   0.0059473    -0.71642    -0.20908     0.03453
0.097543     0.18004      0.9794      0.0014    -0.99024    -0.18991    0.036479
0.10242     0.15341     0.70039  -0.0011985     -1.2329    -0.15711    0.038753
0.10631     0.13295     0.34505   0.0069217     -1.3846    -0.12203    0.044924
0.11313      0.1206   -0.012567    0.028359     -1.4131   -0.090845    0.060515
0.1206     0.11476    -0.31496    0.053369     -1.3251   -0.070058    0.080003
0.12807     0.10859    -0.53811    0.066686     -1.1673   -0.061288    0.092996
0.13035    0.093645    -0.68037     0.06019    -0.99673   -0.063886    0.090722
0.11866    0.067661    -0.75475    0.032906    -0.84407   -0.071357     0.06896
0.090397    0.033556    -0.79178  -0.0060706    -0.70895   -0.073631    0.033556
0.052395  0.00010078    -0.83953   -0.041799    -0.57546   -0.065835  -0.0031473
0.017965    -0.02426    -0.91326   -0.063237     -0.4254   -0.047321   -0.029132
-0.0050961   -0.034978     -0.9753   -0.068109     -0.2513   -0.023285   -0.045047
-0.017439   -0.035953    -0.96003   -0.063561   -0.053817  -0.0021729   -0.054142
-0.023935   -0.029457    -0.82978   -0.053817     0.14854    0.016991   -0.055766
-0.028482   -0.018738    -0.60534   -0.040825     0.34342    0.041676   -0.048945
-0.036927  -0.0089938    -0.36758   -0.021337     0.52012    0.077405   -0.037252
-0.046671 -0.00087364    -0.21362   0.0059473     0.66043     0.11898   -0.027508
-0.052193   0.0046481    -0.19641    0.037454     0.74456     0.15276   -0.021337
-0.051868   0.0091954    -0.29677    0.064737      0.7673     0.16933   -0.018738
-0.045372   0.0088706    -0.44424    0.074806     0.74261     0.16121   -0.017764
-0.032705    0.003024    -0.55629    0.062139     0.69551     0.12872   -0.015815
-0.016789  -0.0063954    -0.57481    0.030957     0.64712    0.077405   -0.010943
-0.00087364   -0.014516    -0.48938  -0.0080194     0.59872     0.01764  -0.0096434
0.011469   -0.016789    -0.33315   -0.044073     0.52629   -0.039201   -0.015815
0.018615   -0.011592    -0.15841   -0.071682     0.42008   -0.083375   -0.024585
0.019914   0.0069217   -0.011592   -0.085324     0.31549    -0.10774   -0.027183
0.019589    0.040702      0.0865   -0.080451     0.27554    -0.10806   -0.018413
0.018615      0.0865     0.13035   -0.060963     0.33595   -0.087272  -0.0028225
0.019264     0.13067     0.12807   -0.036278     0.49186   -0.053168    0.014392
0.015367     0.15861     0.09462   -0.015815     0.69486   -0.018738    0.024461
0.0039985      0.1664    0.045899  -0.0018481     0.88065   0.0078962    0.024786
-0.013866     0.16185  0.00042559   0.0065969      1.0057    0.024137    0.023487
-0.030756     0.15568   -0.030756    0.013743      1.0466    0.032906    0.029658
-0.038876     0.15309   -0.048945     0.02641      1.0034    0.038753    0.042651
-0.034654     0.15309    -0.07428    0.048172     0.89397    0.049147    0.053369
-0.021337     0.14789    -0.12527     0.07708     0.74196    0.064413    0.055318
-0.007045     0.13262    -0.19933     0.10534     0.56494    0.078379    0.049796
0.0017248     0.10794    -0.27404      0.1258     0.36064    0.083576    0.042651
0.0036737    0.075781     -0.3442     0.13165     0.11703    0.077405     0.03583
-0.0015233    0.037778    -0.42507     0.11833    -0.17465    0.064737    0.031282
-0.014516  -0.0031473    -0.51082    0.085525    -0.48808    0.049147    0.026085
-0.027833   -0.044073    -0.55857     0.04395    -0.75573    0.036804    0.023162
-0.033354   -0.078827    -0.52836   0.0049729    -0.89767    0.029009    0.021863
-0.027508    -0.11033    -0.40753   -0.022636    -0.85999    0.024461    0.019264
-0.018088    -0.14639    -0.22369   -0.035303    -0.65114    0.024461    0.013093
-0.012242    -0.19803   -0.022311   -0.033679    -0.34484    0.028034   0.0059473
-0.016789    -0.26527     0.15276   -0.019712   -0.050569    0.031607 -0.00022403
-0.029457    -0.33088     0.27391  -0.0011985     0.14204    0.036479  -0.0024977
-0.043423    -0.37083     0.31451    0.013093     0.20051    0.044275  0.00075039
-0.051219    -0.37083     0.22974    0.014717     0.16185    0.059541   0.0052977
-0.051868    -0.33218    -0.03303   0.0062721      0.0865    0.074157   0.0069217
-0.04862    -0.26851    -0.45918  -0.0076946    0.039402    0.080328   0.0043233
-0.047971    -0.19901    -0.92398   -0.017764    0.076106    0.074806   0.0023744
-0.050244     -0.1295     -1.2433   -0.019712     0.21512    0.055968   0.0033489
-0.055116   -0.067784     -1.2491   -0.010618     0.42787    0.027385   0.0017248
-0.058365   -0.020037    -0.90059    0.009845     0.64939  -0.0089938  -0.0018481
-0.058365     0.01017    -0.31821    0.031932      0.8079   -0.050244  -0.0037969
-0.056741    0.021213     0.30574    0.042326     0.85532   -0.094093  -0.0054209
-0.053817     0.01764     0.80595    0.038428     0.77672     -0.1282  -0.0060706
-0.050894   0.0056225      1.1103    0.026735      0.5945    -0.14119  -0.0031473
-0.04862   -0.007045       1.225    0.011794     0.34992     -0.1282   0.0075714
-0.045372    -0.01484      1.1882  -0.0018481    0.076106   -0.094418    0.017965
-0.040175   -0.013216      1.0398  -0.0060706    -0.20908   -0.054792    0.025436
-0.03303 -0.00054884     0.82511 -0.00087364    -0.50043   -0.026533    0.023812
-0.025884    0.017965     0.58605    0.011144    -0.78171   -0.012567    0.015042
-0.021012    0.032582     0.35544    0.027385     -1.0159  -0.0076946   0.0036737
-0.019063    0.038753     0.15049    0.046873     -1.1595   -0.010293  -0.0060706
-0.018088    0.042651    -0.01614    0.069285     -1.1877   -0.014191  -0.0083442
-0.016464    0.046548     -0.1282    0.093645     -1.1075    -0.01549  -0.0034721
-0.014516     0.05207    -0.18504     0.11801    -0.95288    -0.01614   0.0033489
-0.018088    0.053694    -0.21265     0.13457    -0.76937   -0.020037   0.0033489
-0.027833    0.050121    -0.23603     0.12807    -0.59949   -0.033354  -0.0080194
-0.038876    0.041027    -0.25845    0.094945     -0.4608   -0.058365   -0.027833
-0.047646    0.032582     -0.2552    0.040052    -0.34842   -0.090845   -0.050244
-0.052843    0.032906    -0.20518   -0.017764    -0.24221    -0.12105   -0.063886
-0.051544    0.045249    -0.11423   -0.059014    -0.11553    -0.13437   -0.063237
-0.046022    0.067011    -0.01549   -0.071357    0.050446    -0.12398   -0.052193
-0.036602    0.088124    0.056942   -0.054467     0.25897    -0.09117   -0.036278
-0.022636    0.099817    0.084226   -0.017764     0.49511   -0.046347   -0.020037
-0.0021729     0.10014    0.063113    0.024786     0.73124  0.00010078  -0.0037969
0.020239    0.093321   0.0075714    0.059216     0.93295    0.041027   0.0091954
0.041027    0.084551   -0.056416     0.07708       1.071    0.072533    0.019264
0.055318    0.075131    -0.10936    0.075456      1.1181    0.090072    0.023812
0.058241    0.065062    -0.13567    0.052395      1.0707    0.085525    0.019589
0.049796    0.050446     -0.1334    0.011469     0.95536    0.055318   0.0046481
0.037454    0.029983    -0.11943     -0.0405     0.81959    0.011794    -0.01549
0.028359   0.0088706    -0.10871   -0.086948     0.70136   -0.028807    -0.03173
0.020564  -0.0054209   -0.095717    -0.11715     0.60587   -0.054142   -0.039851
0.010819  -0.0047713    -0.06681    -0.12917     0.50355   -0.062912   -0.039851
0.0014    0.008221   -0.012892     -0.1269     0.35349    -0.05804   -0.035953
-0.0076946    0.029009    0.057267    -0.11618     0.14334   -0.045047    -0.03238
-0.013216     0.05207     0.12288    -0.09929    -0.10514   -0.029132   -0.027833
-0.014191    0.072858     0.16543   -0.078503    -0.34679   -0.014191   -0.020687
-0.0083442    0.083251     0.17485   -0.059339    -0.54395  -0.0050961   -0.010618
0.0039985    0.080653     0.15568   -0.044398    -0.67355  -0.0041217  -0.0011985
0.018615    0.066037     0.12483   -0.028807    -0.72812  -0.0073698   0.0039985
0.031607    0.046548     0.10177   -0.011592    -0.70051 -0.00022403   0.0069217
0.039727    0.031282     0.09462   0.0059473    -0.57351    0.022512   0.0091954
0.0433    0.032582     0.10079    0.022512    -0.35232    0.052395    0.012443
0.046873    0.061165     0.11736    0.038103   -0.081101     0.07708    0.016991
0.05207     0.11021     0.13587    0.050446     0.16868    0.087149    0.021213
0.058566     0.16543     0.15211    0.054344     0.32328    0.078379    0.023162
0.061814     0.21382     0.15926    0.053044     0.35089    0.053369    0.023162
0.059865     0.25053     0.16543    0.055968     0.27359    0.024137    0.019589
0.056292     0.27651     0.17939     0.06961     0.15244 -0.00087364    0.014392
0.050446     0.28756      0.2057    0.089098    0.039402   -0.018088   0.0075714
0.04395     0.28041     0.23818     0.10631   -0.036602   -0.030106  0.00075039
0.038753     0.25605     0.25897     0.11216    -0.07493   -0.041475  -0.0073698
0.03518     0.22065     0.24663    0.090072   -0.088247   -0.056741   -0.019388
0.034855     0.17874     0.19888    0.040052   -0.090521   -0.077203   -0.032055
0.034855     0.13684     0.13035   -0.028157   -0.085324    -0.09929   -0.045047
0.030633     0.10014    0.066037   -0.093444   -0.062262    -0.11033   -0.055116
0.023162    0.075131    0.027385     -0.1321  -0.0073698   -0.095068   -0.055766
0.020564    0.060515    0.021863    -0.12917    0.082602   -0.050244   -0.042774
0.025436    0.046873      0.0433   -0.089871     0.19174   0.0088706   -0.017764
0.037129     0.01894    0.074157    -0.03238     0.28626    0.064088   0.0095202
0.052395   -0.034004    0.091696    0.016991     0.33075    0.094295    0.030633
0.066037    -0.12398    0.075781    0.046223     0.31419    0.092671    0.036804
0.071883    -0.25715    0.012443    0.057267     0.24793    0.067661    0.030308
0.066686    -0.43092    -0.10449    0.053369     0.15698    0.033231    0.015692
0.047523    -0.61638    -0.25585    0.044275    0.058241   0.0023744  -0.0018481
0.019264    -0.76027    -0.39227    0.033881   -0.043423   -0.026533   -0.013866
-0.011592    -0.81094    -0.46405     0.02706    -0.14184   -0.054467   -0.023935
-0.037252    -0.75118    -0.44943    0.028684    -0.22661   -0.079477   -0.034004
-0.053168    -0.60534    -0.36206    0.041027    -0.29255   -0.094093   -0.040825
-0.054792     -0.4163    -0.23701    0.061165    -0.34809   -0.095717    -0.04115
-0.041475    -0.23279   -0.099615    0.081627    -0.40201   -0.086623   -0.033679
-0.017764   -0.085648    0.036479    0.095269    -0.45301   -0.073306   -0.021337
0.0088706    0.013418      0.1625    0.097218    -0.49166   -0.060963  -0.0057458
0.028034     0.06831     0.28041    0.089748    -0.51017   -0.051868   0.0075714
0.031932    0.093321     0.39507    0.075131    -0.51439   -0.044723    0.019264
0.021538     0.10177     0.50128    0.055318    -0.51472   -0.038227    0.029983
0.0088706    0.099817     0.57014    0.036154    -0.50822   -0.028807    0.039402
0.0014    0.091047     0.56754    0.022512    -0.48516   -0.018413    0.042651
0.00042559    0.076755     0.47984    0.019589    -0.43482   -0.008669    0.040702
0.0023744    0.062789     0.32881    0.024137    -0.36011  -0.0037969    0.034855
0.0043233    0.054344     0.15893    0.028359    -0.27534  -0.0011985    0.025436
0.0069217     0.05207    0.016341    0.027385    -0.19738  0.00075039    0.014392
0.010495    0.054019   -0.072006    0.024461    -0.12917   0.0026992   0.0091954
0.016991    0.057267    -0.10384    0.026085   -0.067784    0.014717    0.012443
0.02706    0.062139   -0.095393     0.03453  -0.0093186    0.041676    0.019914
0.036479    0.069934    -0.06681    0.049796    0.042326    0.078704    0.030957
0.039727    0.082277   -0.030431    0.066037    0.078055     0.11671    0.041027
0.035505    0.094945  0.00075039    0.075456    0.091047     0.14204    0.049796
0.028359     0.10177    0.010819    0.072533    0.082927     0.14009    0.056617
0.01894    0.099817   -0.011267    0.058891    0.069285     0.10826    0.058241
0.014068    0.092346   -0.064861     0.03518     0.06961    0.057592     0.05272
0.014717    0.087149    -0.13762   0.0033489    0.091047   0.0056225    0.040052
0.015367    0.093321    -0.21265   -0.031406     0.12158   -0.029132    0.025436
0.012443     0.11606    -0.26884   -0.062262     0.13912   -0.037577    0.014717
0.0065969     0.14821    -0.29255     -0.0837     0.14107   -0.027833   0.0072465
-0.0021729      0.1742    -0.28248   -0.087922     0.15698  -0.0083442   0.0033489
-0.013541     0.18329     -0.2448   -0.076554     0.22129    0.018615   0.0020496
-0.022961      0.1742    -0.18861   -0.053168     0.33108    0.048822   0.0056225
-0.024585     0.15244    -0.12787   -0.025884     0.44021    0.076431    0.014392
-0.021337     0.12678   -0.079152   0.0010752     0.49901    0.093321    0.026085
-0.018413     0.10306   -0.053168    0.022512     0.48796    0.090397    0.036479
-0.019388    0.082602   -0.050894    0.033881      0.4308    0.070584    0.041027
-0.025234    0.065712   -0.065835    0.033556     0.37298    0.041676     0.03453
-0.037252    0.049472   -0.087597    0.022512     0.34959    0.013743    0.020564
-0.050244    0.038103    -0.10091   0.0056225     0.36746   -0.010293   0.0010752
-0.058689    0.033556   -0.087597   -0.011592     0.41001   -0.024585   -0.016789
-0.056416    0.038428   -0.036927   -0.025234     0.44216    -0.03173   -0.024909
-0.047321    0.050121    0.044275   -0.034654     0.41618   -0.036927   -0.019712
-0.034978    0.063438     0.13944     -0.0405     0.27749   -0.046671  -0.0057458
-0.02426    0.073507     0.22129   -0.042774   -0.016464   -0.061613   0.0095202
-0.021661     0.07708     0.26774   -0.045697    -0.44294   -0.076229    0.020888
-0.02361     0.07773     0.27456   -0.051868    -0.89962   -0.084024    0.030308
-0.024909    0.073832      0.2593   -0.055441      -1.265   -0.082725    0.042326
-0.021012    0.070909     0.25572   -0.048296     -1.4313   -0.073306    0.057592
-0.008669    0.066362     0.27879   -0.021661     -1.3453   -0.056741    0.074482
0.015042    0.056617      0.2986    0.026085     -1.0429   -0.030106    0.091372
0.0433    0.040052     0.26904      0.0852    -0.63587    0.011794     0.10761
0.062139    0.019914     0.17647     0.13717    -0.25292    0.062464     0.12125
0.066037  0.00042559    0.042975     0.16543    0.029009     0.10534     0.12775
0.061165   -0.011917   -0.097991     0.16121     0.20083     0.12385      0.1232
0.054344   -0.016789    -0.22272      0.1258     0.29568     0.11508     0.10859
0.050446   -0.017114    -0.31918    0.070909     0.33498    0.082927    0.090722
0.050121   -0.018088    -0.38252    0.011794     0.33693    0.036804    0.075131
0.049472   -0.022636    -0.40916   -0.039201     0.33043  -0.0034721    0.061165
0.041676   -0.030106    -0.39649   -0.073306     0.33855   -0.017439    0.047847
0.024137   -0.037902    -0.34939   -0.084674     0.36681 -0.00054884     0.03453
0.00010078   -0.047321    -0.27566   -0.081101     0.39994    0.041676    0.024461
-0.023935   -0.057065    -0.18244   -0.076879     0.39149      0.0865     0.01829
-0.046022   -0.066485   -0.081751   -0.084024     0.30997     0.10794    0.010819
-0.06551   -0.071032    0.010495    -0.10351     0.17062    0.087149  -0.0060706
-0.081101   -0.065835    0.079679     -0.1282  -0.0044465    0.020239    -0.03238
-0.090521   -0.048296     0.11898    -0.14964    -0.18699    -0.07493   -0.065186
-0.092794   -0.022311     0.13197    -0.16198    -0.34192     -0.1714   -0.097991
-0.089221   0.0049729     0.12645    -0.16295    -0.45041     -0.2461    -0.12527
-0.077203     0.02706     0.11118    -0.15256    -0.51797    -0.28476    -0.13794
-0.053817     0.04395     0.10371    -0.12527    -0.54395    -0.28508    -0.13177
-0.018413    0.058566     0.11833   -0.082725     -0.5118    -0.25065    -0.11066
0.020239    0.071883     0.15796    -0.03173    -0.40753    -0.18634   -0.080776
0.053044      0.0852      0.2148     0.01829    -0.24675    -0.10903   -0.048296
0.074482    0.096893     0.26287    0.062789   -0.092469   -0.036278   -0.018088
0.083251     0.10404     0.27651    0.096244   -0.029782    0.017316   0.0046481
0.084551     0.10404     0.24566     0.11541    -0.10091    0.048497    0.016016
0.081627    0.094295     0.17615     0.12158    -0.25585    0.065712    0.020888
0.076106    0.074157    0.086175     0.11736    -0.39714    0.075781    0.024461
0.066037    0.048172  -0.0073698     0.10436    -0.43547    0.083251    0.029983
0.051745    0.024137   -0.084999      0.0852     -0.3377    0.086824    0.031607
0.03583   0.0065969    -0.13957     0.06084      -0.123      0.0852    0.027709
0.020239  -0.0047713    -0.17335    0.033881     0.16153    0.074157    0.018615
0.0039985   -0.015165    -0.19121   0.0059473     0.45938     0.05272   0.0049729
-0.011917   -0.027508    -0.19836   -0.021012     0.72507    0.021863   -0.012242
-0.025559   -0.040175     -0.2016   -0.041799     0.93002   -0.014516    -0.03173
-0.034329   -0.047971    -0.20518   -0.052843      1.0593   -0.047971   -0.045697
-0.034654   -0.048945    -0.21297   -0.051868      1.1103   -0.065186    -0.04927
-0.026533   -0.045697    -0.22726   -0.042774      1.0781   -0.059989   -0.043423
-0.011592   -0.040175    -0.24643   -0.028482     0.95146   -0.035303   -0.028157
0.003024   -0.035953    -0.26397    -0.01614     0.73546  -0.0024977   -0.012567
0.010495    -0.03173    -0.27274  -0.0096434     0.47432    0.029658  -0.0015233
0.011794   -0.026858    -0.26949  -0.0018481     0.23039     0.05142   0.0065969
0.011469   -0.020687    -0.25812    0.013743    0.042651    0.055643    0.016991
0.010495   -0.015165    -0.24578     0.03518     -0.0837    0.050121    0.026085
0.0069217   -0.011267    -0.23603    0.053694    -0.17367    0.039078    0.027709
0.0014   -0.010618    -0.22759    0.065387    -0.25682    0.025111    0.021213
-0.0037969   -0.010618    -0.21525    0.071558    -0.34744   0.0091954    0.014717
0.00010078  -0.0073698    -0.18959    0.073832    -0.43644  -0.0031473    0.013743
0.01017  0.00010078    -0.13437    0.073832    -0.50757   -0.008669    0.018615
0.021863    0.008221   -0.022311    0.071234    -0.55175  -0.0076946    0.025761
0.029658    0.012443     0.15633    0.065712    -0.57059  -0.0024977    0.030957
0.030633   0.0075714     0.37428    0.057917    -0.56766   0.0046481    0.028684
0.026735  -0.0034721     0.57274    0.050121    -0.54005    0.009845    0.019589
0.021538   -0.016464     0.69324    0.048497    -0.47412    0.011144   0.0052977
0.019264   -0.022636     0.70753    0.053694    -0.34744    0.012119  -0.0076946
0.020564   -0.019063     0.63023    0.065387    -0.14834    0.014392   -0.016464
0.021213  -0.0073698     0.50193    0.078704     0.10826    0.019264   -0.018413
0.017965   0.0059473     0.36518      0.0852      0.3798    0.021863   -0.015165
0.012768    0.014717     0.23818    0.081627     0.61236    0.020888   -0.011267
0.0075714    0.015692    0.099817    0.071234     0.75203    0.016666   -0.008669
0.0069217   0.0069217   -0.074605     0.06019     0.73741   0.0091954  -0.0067202
0.0095202   -0.007045    -0.27664    0.050771     0.53798   -0.007045  -0.0083442
0.0078962   -0.021661    -0.45203    0.038753     0.20408   -0.032055   -0.017439
-0.0018481    -0.03303     -0.5433    0.024786    -0.13567   -0.056741   -0.030106
-0.01484   -0.035628    -0.52576    0.011469    -0.34744   -0.071032   -0.037577
-0.026533    -0.03173     -0.4202   0.0059473    -0.37668   -0.070707   -0.034004
-0.035303   -0.024909    -0.27274    0.013093     -0.2552   -0.053168   -0.019712
-0.041799   -0.019063     -0.1308    0.032257   -0.068109   -0.025559  -0.0050961
-0.045372    -0.01614   -0.030106    0.053044     0.10209  0.00042559    0.003024
-0.047971   -0.015165    0.013093    0.064413     0.22227    0.014717  0.00042559
-0.051219   -0.014191   0.0078962    0.064413     0.30964    0.017316   -0.008669
-0.048945   -0.012892   -0.022636    0.055643     0.38565    0.013418   -0.018088
-0.037252   -0.010943    -0.05804    0.044599     0.44834    0.010819   -0.023935
-0.01549   -0.010943     -0.0837    0.039402      0.4597    0.012768   -0.025234
0.0078962   -0.013541   -0.094743    0.038428     0.38727    0.014068   -0.020687
0.026735   -0.020687   -0.092469    0.041676     0.22877    0.012119   -0.014191
0.036804   -0.029782   -0.082076    0.042975    0.022837   0.0046481   -0.011592
0.034855   -0.037577   -0.067134    0.041676    -0.17594  -0.0067202   -0.016464
0.025111   -0.041475   -0.053817    0.040702    -0.32308    -0.01614    -0.02426
0.017965   -0.038227   -0.043423      0.0433    -0.40104    -0.01614   -0.030106
0.016666   -0.028807   -0.034004    0.052395    -0.41663  -0.0044465   -0.029132
0.022188   -0.016464   -0.025234    0.063438    -0.39357    0.015692   -0.026209
0.029333  -0.0057458   -0.014191    0.072533    -0.35394     0.03583   -0.022636
0.03453   0.0049729  -0.0044465    0.079029    -0.31106    0.049796   -0.015165
0.03518    0.013093   0.0046481      0.0852    -0.27988    0.057592  -0.0015233
0.034206    0.015367    0.014717    0.094945    -0.27501     0.06084    0.016341
0.033556    0.014392    0.024461     0.10729    -0.30067    0.066037    0.036154
0.036804    0.016991    0.031607     0.11671    -0.34972    0.075131    0.052395
0.038753    0.021538    0.031282     0.11573    -0.41858    0.084551    0.060515
0.040052     0.02641    0.020239     0.10144     -0.5105    0.089098     0.06019
0.040052    0.029009   0.0023744    0.081303    -0.61119    0.081303    0.055318
0.037129    0.029333   -0.014516    0.063763    -0.69726    0.057917     0.05142
0.029333    0.024461   -0.027183    0.045249    -0.75248    0.021213    0.045249
0.019914    0.012443   -0.037252    0.020564    -0.76839   -0.021986    0.033881
0.013743  -0.0018481   -0.041475   -0.014516    -0.73331   -0.060313    0.019589
0.011794   -0.013216   -0.038876    -0.05804    -0.64984   -0.085648   0.0095202
0.015692   -0.019063   -0.034654    -0.10286    -0.53161   -0.093769   0.0046481
0.025761   -0.019063    -0.04927    -0.13827    -0.39909   -0.089221  0.00010078
0.037129   -0.012242    -0.10871    -0.15613    -0.27826   -0.074605  -0.0037969
0.044275  -0.0021729     -0.2159    -0.15061    -0.18991   -0.054792  -0.0037969
0.045249    0.008221    -0.33932    -0.12625    -0.13957   -0.035303   0.0026992
0.040377     0.01764    -0.43352   -0.094743    -0.11586    -0.02361    0.016666
0.036804    0.026735    -0.47087   -0.069408    -0.10416   -0.022311    0.032582
0.036804     0.03518    -0.44943   -0.051868     -0.0824   -0.031081    0.046223
0.0433    0.043625    -0.38545   -0.037577    -0.03303   -0.041799    0.055968
0.057592    0.051096     -0.2906   -0.023285    0.049147    -0.04115    0.059541
0.071234    0.055968    -0.13957  -0.0089938     0.15763   -0.026209    0.062139
0.074806    0.055968     0.11476   0.0020496     0.28203  -0.0047713    0.063438
0.065062    0.050121     0.45743   0.0078962     0.41293    0.011469    0.067011
0.047847    0.041676     0.78386    0.010495     0.54643    0.018615    0.072533
0.029009    0.031932      0.9742    0.011794     0.65978    0.016991    0.075781
0.014717    0.021538     0.97452    0.013743     0.73287     0.01017    0.073182
0.0059473     0.01017     0.80627    0.014068      0.7556    0.003024    0.064413
-0.0031473   0.0036737     0.53733    0.012443     0.73579    0.003024    0.051745
-0.013216   0.0056225     0.24436    0.010495     0.68739    0.008221    0.033556
-0.020362    0.017316   -0.007045   0.0088706     0.62178    0.015367    0.016016
-0.019388    0.032582    -0.17919   0.0095202     0.53961    0.020564   0.0046481
-0.014191    0.045899    -0.26851     0.01829     0.44963    0.023162  0.00075039
-0.0076946    0.053044     -0.2945    0.037129     0.37558    0.031607   0.0026992
-0.0034721    0.054993    -0.27728    0.061489     0.34277    0.051745    0.008221
-0.00087364    0.056942     -0.2081      0.0852     0.35674    0.087149    0.017316
0.0017248    0.059541   -0.046996     0.10209     0.40708     0.13262    0.029658
0.0014    0.058891     0.22389     0.10339     0.47822     0.17355      0.0433
-0.0044465    0.046873     0.55942    0.090072        0.55     0.19401    0.048497
-0.015165    0.015042     0.87676    0.062464     0.59872     0.17972    0.036479
-0.029132   -0.034329      1.1158    0.024461     0.61821     0.13262   0.0091954
-0.042774   -0.090845      1.2483   -0.018413       0.626    0.069934   -0.022961
-0.053168    -0.13729      1.2688    -0.05739     0.65004    0.015042   -0.045697
-0.060963    -0.16068      1.1847     -0.0837       0.715   -0.017764   -0.052193
-0.063237    -0.15548      1.0197   -0.094418     0.81569   -0.026533   -0.046671
-0.059014    -0.12787     0.80432   -0.092794      0.9245   -0.017439    -0.03238
-0.050244   -0.090196     0.57566   -0.082725     0.99629 -0.00022403    -0.01484
-0.039526   -0.055116     0.35836   -0.070058     0.98784    0.012768  -0.0018481
-0.030431   -0.029132     0.13684   -0.064211      0.8826    0.013093   0.0023744
-0.026209    -0.01549    -0.12722   -0.072656     0.70331  -0.0031473  -0.0031473
-0.028482   -0.010618    -0.42312    -0.09929      0.5016    -0.03238   -0.016464
-0.034978  -0.0080194    -0.68102    -0.13242     0.32653   -0.068434   -0.034329
-0.038227  -0.0054209    -0.81289    -0.15678     0.20018    -0.10514   -0.050244
-0.039526 -0.00022403    -0.77327    -0.16035      0.1219    -0.13697   -0.061288
-0.041475   0.0069217     -0.5956    -0.14022    0.065387    -0.16035   -0.059014
-0.043099     0.01764    -0.36726    -0.09929   0.0065969    -0.17594   -0.044723
-0.041799    0.029983    -0.18699    -0.04927   -0.064211    -0.18147   -0.027833
-0.039526    0.044275    -0.11358  -0.0011985    -0.15353      -0.174   -0.014191
-0.036927    0.057592    -0.15646    0.034206    -0.26202    -0.15061  -0.0060706
-0.033354    0.071883    -0.27923    0.050446    -0.38967    -0.11521   0.0010752
-0.027508    0.086824    -0.43059    0.052395    -0.52934   -0.080451     0.01017
-0.017114    0.098842    -0.56344    0.045249    -0.65958   -0.056091    0.024786
-0.00022403     0.10631    -0.65309     0.03583    -0.74826   -0.046022    0.042001
0.021213     0.10859    -0.69564    0.027385     -0.7658   -0.047971    0.058891
0.040052     0.10501    -0.70278    0.017316    -0.70506   -0.055766    0.068635
0.046873    0.091696    -0.69661  -0.0021729    -0.58813   -0.064861     0.06831
0.041676    0.065062    -0.70668   -0.039851    -0.44846   -0.073306    0.055643
0.029009    0.026735    -0.72584   -0.086623    -0.33088   -0.079152    0.031932
0.010819   -0.011917    -0.70376     -0.1243    -0.27631   -0.078827   0.0033489
-0.0080194   -0.036927    -0.59365    -0.13762    -0.30392   -0.078503   -0.016789
-0.022961   -0.041475    -0.39292     -0.1217    -0.40526   -0.076229   -0.023935
-0.03303   -0.025559    -0.14964   -0.082076    -0.53356   -0.068434   -0.021986
-0.037902  -0.0015233    0.066037   -0.033354    -0.63165   -0.051544   -0.011917
-0.0405    0.021213     0.19888    0.009845    -0.66965   -0.029782   0.0046481
-0.039851    0.037778     0.23494    0.039402    -0.66381   -0.012242    0.020888
-0.036602    0.047198     0.19791    0.055968    -0.67355   -0.010943    0.033881
-0.03173    0.053694     0.13262    0.065387    -0.75897   -0.036602    0.036804
-0.021986    0.057592     0.07773    0.070909    -0.91228   -0.081426    0.029658
-0.0093186     0.06084    0.063763    0.078704     -1.0659    -0.12495     0.01894
0.0017248    0.064413     0.10501    0.084876     -1.1575    -0.14574    0.012768
0.0075714    0.068635     0.19336    0.083901     -1.1445    -0.14087    0.013743
0.010819    0.072858      0.3038    0.070259     -1.0068    -0.12105    0.017965
0.016666     0.07708     0.41261    0.046548    -0.77164   -0.093119    0.022837
0.029009    0.082927     0.49998    0.025761    -0.50433   -0.064211    0.027385
0.042001    0.088124     0.56202     0.01894    -0.27761   -0.042124    0.030633
0.053694    0.092346     0.59872    0.029009    -0.13177   -0.031081    0.032257
0.058241    0.092346     0.61659     0.05142    -0.06616   -0.028482    0.034206
0.054668    0.088124     0.62048    0.078704    -0.06551   -0.023285    0.037778
0.044599    0.078704     0.61561     0.10112    -0.10903    -0.01614    0.042651
0.030633    0.064737     0.60749     0.11281    -0.16977   -0.011267    0.047523
0.014717    0.048497     0.60035     0.11281    -0.22142   -0.012242    0.047523
0.00042559    0.030957      0.5893     0.10177     -0.2487   -0.019063    0.040377
-0.0089938    0.012768     0.55617     0.08585    -0.25065   -0.026858    0.029333
-0.0089938 -0.00054884     0.46977    0.067661    -0.23214   -0.030106    0.016991
0.0010752  -0.0041217     0.26092    0.051745    -0.19998   -0.026858   0.0069217
0.016341   0.0065969    -0.16977    0.040052    -0.16263   -0.016789  0.00010078
0.028034    0.029658    -0.82264    0.036479     -0.1256 -0.00054884 -0.00022403
0.029333    0.057267     -1.5281    0.040377   -0.089221    0.019264   0.0020496
0.023487    0.083901     -2.0634    0.043625   -0.049595    0.038753   0.0043233
0.017965     0.10339     -2.2625    0.046223  -0.0047713    0.056617    0.010495
0.020888     0.11703     -2.0923    0.048497    0.041351    0.071234     0.01829
0.032257      0.1258     -1.6444    0.054019    0.081303     0.08585    0.024137
0.045574     0.13002     -1.0851    0.063763     0.11183    0.099167    0.023812
0.051745     0.12872    -0.57124    0.072208     0.13749     0.10891     0.01829
0.045249     0.12125    -0.19803    0.072858     0.15926     0.11216    0.011144
0.033881     0.10436    0.022512     0.06961     0.18199     0.11086   0.0059473
0.019589    0.083251     0.14399    0.064088     0.21058     0.10924   0.0043233
0.0046481    0.062789     0.22747    0.061814     0.24436     0.11086   0.0085458
-0.0067202    0.043625      0.3025    0.062464     0.27554     0.11671    0.015367
-0.010618    0.022188     0.37525    0.059541     0.30217     0.11995    0.022188
-0.0089938  -0.0041217     0.43534    0.051096     0.31906     0.11541    0.024786
-0.0054209   -0.036278     0.46977    0.041027     0.32653     0.10631    0.020888
-0.0011985   -0.071357     0.47367    0.032582     0.32426     0.09397    0.013743
0.0043233    -0.10968     0.44769    0.025436     0.31192    0.078379   0.0036737
0.008221    -0.15841     0.39604    0.019589     0.28918    0.063113  -0.0037969
0.0065969    -0.22791     0.32523    0.014717      0.2567    0.049147  -0.0073698
-0.0047713    -0.31334      0.2463    0.011144     0.21642    0.039078   -0.010293
-0.024909    -0.38934      0.1729    0.010819     0.17842    0.033231   -0.013541
-0.046022    -0.43027     0.11021    0.012443     0.15276    0.027709   -0.017764
-0.059664     -0.4228    0.061165    0.014392     0.13944    0.019589   -0.023285
-0.060638    -0.36726    0.027709    0.020239     0.13067   0.0078962   -0.030431
-0.050894    -0.28183     0.01764    0.027709     0.11963  -0.0073698   -0.035953
-0.038876    -0.18959    0.025436    0.033881     0.10306   -0.023285   -0.034329
-0.031081    -0.11391    0.025436    0.037129    0.074806   -0.038876   -0.029132
-0.027183   -0.063886  -0.0096434    0.036479    0.038103   -0.052843   -0.023285
-0.022961   -0.036278   -0.080451    0.031932   0.0065969   -0.062912   -0.023285
-0.019388   -0.020687    -0.15256    0.022837   -0.016464   -0.069408   -0.030106
-0.021337  -0.0067202    -0.18439    0.013418   -0.028807   -0.073631   -0.040825
-0.029132     0.01017    -0.15386   0.0095202   -0.029782    -0.07428    -0.04992
-0.037252    0.031607   -0.069733    0.010819   -0.017114   -0.067784   -0.053817
-0.042774    0.057592    0.040052    0.014392   0.0043233   -0.050569   -0.052843
-0.042774    0.082927     0.14919    0.020564    0.028359    -0.02361   -0.046022
-0.037577     0.10339     0.24436    0.028034    0.046548   0.0072465   -0.034978
-0.025559     0.11573     0.32491    0.032257    0.057917    0.040052   -0.021012
-0.011592      0.1206     0.39539    0.033556    0.063763    0.072533   -0.011917
0.0026992     0.11931     0.45743    0.032257    0.070259    0.098517  -0.0063954
0.013418     0.11118     0.51135    0.028359    0.080003     0.11378  -0.0021729
0.019589     0.10079      0.5552    0.024137    0.089423     0.11736   0.0033489
0.020888    0.093321     0.59417    0.025111    0.092671     0.11606   0.0052977
0.020888    0.091372     0.64095    0.032582    0.085525     0.11021    0.003024
0.01764    0.088773     0.69259    0.039402    0.074482    0.096244 -0.00054884
0.010819    0.080328       0.715    0.038753    0.075456    0.072208   -0.008669
0.003024    0.065062     0.68285    0.029333     0.10371    0.044275   -0.019388
-0.0015233    0.045899     0.60197    0.014717     0.16315     0.01764   -0.032705
-0.0057458    0.029333     0.49803  -0.0021729     0.24338  -0.0015233   -0.046347
-0.0096434    0.020239     0.39604   -0.018738     0.32686  -0.0073698   -0.055116
-0.011917    0.020888     0.30997   -0.029457     0.40156    0.003024   -0.056091
-0.0099683     0.02641     0.23948   -0.034329     0.44963    0.022512   -0.046996
-0.0037969    0.032582     0.17972   -0.034654     0.45581    0.048497    -0.03173
0.0065969    0.037778     0.12288   -0.034004      0.4165    0.073832   -0.018413
0.01894    0.042326    0.060515   -0.029132     0.34147    0.089423  -0.0067202
0.030308    0.047198  -0.0093186   -0.022961     0.24923    0.093645   0.0023744
0.039078    0.053044   -0.079802    -0.01614     0.15211    0.091047   0.0069217
0.042001    0.058241    -0.14346   -0.012567    0.055318    0.083901   0.0033489
0.037129    0.062139    -0.19348  -0.0096434   -0.038876    0.070909  -0.0060706
0.027709    0.064088    -0.22726  -0.0073698    -0.12657    0.047847   -0.016789
0.01894     0.06084     -0.2474  -0.0083442    -0.19413    0.015367   -0.024585
0.012119    0.054344    -0.24968   -0.015815    -0.23084   -0.021661   -0.031406
0.0056225      0.0433    -0.23181    -0.03173    -0.23506   -0.050894   -0.035303
-0.00054884     0.02706     -0.2055   -0.057715    -0.21687   -0.065835   -0.037902
-0.0054209   0.0078962    -0.18926   -0.089221    -0.18147    -0.06681   -0.035303
-0.0076946  -0.0083442    -0.18342     -0.1204    -0.11293   -0.061937   -0.026858
-0.0054209   -0.012242    -0.17042    -0.13989   0.0085458   -0.056416   -0.014191
0.00075039  -0.0021729    -0.13567    -0.13892     0.18329   -0.054792  0.00075039
0.01017    0.017965    -0.08305    -0.11586     0.38078   -0.055766    0.013743
0.024137    0.040052   -0.028807   -0.071682     0.55617   -0.056091    0.023487
0.041351    0.055968 -0.00087364   -0.021986      0.6744   -0.051868     0.03518
0.061489    0.059216    -0.01484    0.023162     0.71598   -0.039201    0.047198
0.077405    0.048822   -0.068434    0.055643     0.67992   -0.023935    0.059216
0.08585    0.031282    -0.14509    0.074157     0.57598    -0.01484    0.065712
0.087474    0.010495    -0.22304    0.081952      0.4243   -0.019388    0.065062
0.078379   -0.010943    -0.28443    0.073832      0.2554   -0.037577    0.054668
0.063438   -0.031081    -0.31594     0.05272     0.10339   -0.062912    0.032906
0.051096   -0.046022    -0.30977    0.024137  -0.0024977     -0.0837   0.0056225
0.047198   -0.052843    -0.27306  -0.0021729    -0.04862    -0.09117   -0.016789
0.049147   -0.045697     -0.2146   -0.019388   -0.043748   -0.080127   -0.026533
0.055968    -0.02361    -0.14379   -0.024585  -0.0028225   -0.055766   -0.020037
0.070909    0.008221   -0.064211   -0.016789    0.055643   -0.023935  -0.0031473
0.087474    0.041676    0.020564   0.0023744     0.11866   0.0072465    0.016016
0.098842    0.066686    0.097543    0.026735     0.17745    0.031607    0.028034
0.097218    0.071234     0.14821    0.049472      0.2174    0.041351    0.029658
0.08585    0.055318     0.17127     0.06019     0.22032    0.034855    0.022837
0.071558    0.024137     0.17615    0.054019      0.1742    0.015692    0.013093
0.058241  -0.0093186     0.16056    0.035505    0.084876  -0.0099683   0.0043233
0.044599   -0.038551     0.11248    0.014717   -0.025234   -0.032705  -0.0015233
0.031932   -0.058365    0.011144   0.0020496     -0.1334   -0.046996  -0.0041217
0.022837   -0.060963    -0.14444      0.0014    -0.22239   -0.046022  0.00010078
0.019914   -0.046671    -0.32243    0.012119    -0.29547   -0.033679    0.015367
0.021538   -0.020362    -0.46762    0.024786    -0.36693   -0.019388    0.031932
0.021863   0.0059473    -0.54135     0.03583    -0.44618   -0.012892    0.039727
0.019264    0.024786    -0.53583      0.0433    -0.52024   -0.020362    0.033881
0.017316    0.033231    -0.46632    0.046873    -0.57189   -0.033354    0.021538
0.014717     0.03583    -0.36044    0.050121    -0.59657   -0.043423   0.0039985
0.0091954    0.036154    -0.24805    0.052395    -0.60339   -0.043748   -0.012567
-0.00054884    0.037454    -0.14834    0.045899    -0.60242   -0.034329   -0.023935
-0.0093186    0.038103   -0.069733    0.024137    -0.59625   -0.023285   -0.024585
-0.015165    0.036804  -0.0073698   -0.011592    -0.58878   -0.021986   -0.017439
-0.014516    0.031932     0.05142   -0.055766     -0.5852   -0.038551  -0.0080194
-0.01484    0.022837      0.1232    -0.10189    -0.58195   -0.072656   0.0010752
-0.022636   0.0095202     0.23266    -0.14184    -0.56214    -0.11456   0.0056225
-0.038551  -0.0047713     0.39149     -0.1649    -0.50368    -0.15093  0.00010078
-0.056741   -0.013866     0.57988    -0.16393    -0.38739     -0.1727   -0.012892
-0.069408  -0.0093186     0.74716    -0.13892     -0.2133     -0.1714   -0.024909
-0.072656    0.015367     0.83973    -0.10091  -0.0024977    -0.14606   -0.026209
-0.063237    0.057917     0.83486    -0.05804      0.2135   -0.097991   -0.014516
-0.04115     0.11313     0.74423   -0.013541     0.40871   -0.039851   0.0052977
-0.0099683     0.16835     0.60879    0.027385     0.55617    0.012119    0.027709
0.021213     0.21155     0.47854    0.059541     0.63672    0.042651    0.046548
0.0433     0.23396     0.39084    0.080328     0.64095     0.05142    0.058241
0.054019     0.23754     0.35122    0.091372     0.57209    0.045574    0.063113
0.054993     0.22941     0.33498     0.10014     0.44411    0.036479     0.06084
0.05207      0.2148     0.29925     0.10761     0.27164    0.029333    0.054668
0.048497     0.19693     0.21545     0.11508    0.072533    0.023487    0.047198
0.045899      0.1755    0.083576     0.11963     -0.1321    0.015692    0.042326
0.04395     0.15146   -0.069733     0.11995    -0.32536   0.0095202    0.040377
0.042001     0.11963    -0.21427     0.11866    -0.49458    0.008221    0.041027
0.040052    0.080653     -0.3364     0.11671    -0.62256   0.0088706    0.042975
0.038103    0.036479    -0.43059     0.11443    -0.69824    0.011794    0.041027
0.036479   -0.010293    -0.49783     0.11281    -0.72389    0.019589    0.038428
0.034206   -0.051544    -0.53713     0.10729    -0.71448    0.033556     0.03518
0.026735    -0.08305    -0.54298    0.095269    -0.68849    0.051096    0.030633
0.011469    -0.10579    -0.49198    0.075456    -0.65244    0.063438    0.023162
-0.010618     -0.1191    -0.36791    0.053044    -0.59625    0.068635    0.016341
-0.033679    -0.12625    -0.18374    0.033231    -0.49231    0.069285    0.013743
-0.051544     -0.1282    0.011469    0.021213    -0.30814    0.073182    0.014392
-0.062587     -0.1295     0.15861    0.017316   -0.036927    0.088773    0.014068
-0.066485     -0.1308     0.22259    0.020888     0.28138     0.10729    0.011469
-0.064211    -0.13372     0.20765    0.029658     0.57046     0.11086   0.0085458
-0.057715    -0.13599     0.14659    0.037129     0.74294    0.086824   0.0043233
-0.048296    -0.13469    0.053369    0.034206     0.73157    0.037778  -0.0037969
-0.041799    -0.12885    -0.10936    0.015692     0.52954   -0.023935   -0.016789
-0.040825    -0.11651    -0.36368    -0.01549     0.22584   -0.083375   -0.031081
-0.04862    -0.10091    -0.64432   -0.051868   -0.029132    -0.12852    -0.04115
-0.062262   -0.089871    -0.81517   -0.081101    -0.11975    -0.15321   -0.043099
-0.076879   -0.088572    -0.75313   -0.093444   -0.027183    -0.15256   -0.035628
-0.087272   -0.093119    -0.43384   -0.092469      0.1755    -0.13047   -0.019712
-0.090196    -0.10026    0.032582   -0.085648     0.38565   -0.096367  -0.0011985
-0.081751    -0.10871     0.45743   -0.081101     0.52369   -0.064861    0.013418
-0.06616    -0.11813     0.69844   -0.084349     0.56786   -0.047646    0.016016
-0.051868    -0.12527     0.71987    -0.09182     0.52759    -0.04927    0.008221
-0.046671    -0.12365     0.57956   -0.095068     0.42268    -0.06551  -0.0037969
-0.052843    -0.10611     0.38272   -0.089546     0.27002   -0.089546   -0.011267
-0.06551   -0.068109     0.21577   -0.076229    0.096893    -0.11586   -0.011592
-0.075904  -0.0096434     0.11638   -0.058365   -0.058365    -0.13664  -0.0080194
-0.080127    0.054019    0.075456    -0.04115    -0.15743    -0.14281  -0.0018481
-0.073306     0.10631    0.063763   -0.025884    -0.18536    -0.13047   0.0059473
-0.061937     0.13587    0.064413   -0.015165    -0.15029    -0.09994    0.013418
-0.051868     0.13944    0.066362  -0.0067202   -0.070058    -0.05804    0.019589
-0.041799     0.12093    0.069285 -0.00022403    0.029983  -0.0099683    0.021863
-0.031081    0.091047    0.077405   0.0085458     0.12288    0.036154    0.019914
-0.018738    0.058241    0.088773    0.022188     0.18654    0.075131    0.017965
-0.0099683    0.030633     0.10404    0.043625     0.20993     0.10242    0.022512
-0.0089938    0.012443      0.1219    0.066037     0.19109     0.11378    0.032257
-0.0096434   0.0020496     0.14009    0.084876     0.13684     0.10826      0.0433
