-0.055766    0.033881   -0.063237  -0.0018481   -0.060313     0.12872    0.022188
-0.066485    0.041676   -0.044398  -0.0015233   -0.077528     0.15049    0.031932
-0.081101    0.038753   -0.028157   0.0043233   -0.084024     0.16738    0.033556
-0.090196     0.01829   -0.018088     0.01764   -0.093119     0.17387    0.027709
-0.082725   -0.025559   -0.012242    0.036479    -0.11683     0.17192     0.01764
-0.04927   -0.076879  -0.0060706    0.055318    -0.15158     0.16413    0.011469
0.0020496    -0.11326   0.0017248    0.067986    -0.17789     0.15016    0.009845
0.049147    -0.11651   0.0095202    0.070909    -0.17984      0.1284   0.0085458
0.073507   -0.090521    0.012768    0.062139    -0.14184    0.096569   0.0023744
0.071558   -0.052843    0.011794    0.048172   -0.057065    0.055643  -0.0063954
0.054019   -0.022311   0.0020496    0.032582    0.037454   0.0052977   -0.015165
0.034206   -0.008669   -0.015815    0.015042    0.075781   -0.046996   -0.022961
0.019914   -0.013541   -0.037577  -0.0050961    0.015042   -0.095393    -0.03238
0.012119   -0.030431   -0.061613   -0.026858    -0.13697    -0.13729   -0.042774
0.00075039   -0.050894     -0.0824   -0.045047    -0.34907    -0.17659   -0.057065
-0.015165   -0.064536   -0.093769   -0.057715     -0.5891     -0.2094   -0.075255
-0.036927   -0.059014   -0.093444   -0.064536    -0.82329    -0.23084   -0.093119
-0.063561   -0.036602   -0.081426    -0.06681     -1.0075    -0.23798    -0.10514
-0.092794  -0.0054209   -0.063886   -0.066485     -1.0997    -0.23376    -0.10644
-0.1217    0.022512   -0.044723   -0.067459     -1.0685    -0.22272   -0.096692
-0.13729    0.042326   -0.023285    -0.06681    -0.91261    -0.20745    -0.08305
-0.13112    0.055968  -0.0018481   -0.061288    -0.67095    -0.19089   -0.068109
-0.10221     0.06831    0.014392   -0.048945    -0.40006    -0.16847   -0.054792
-0.055766    0.082927    0.019589   -0.033679    -0.14801    -0.13567   -0.043748
0.0052977    0.099167    0.016991   -0.022961    0.062789   -0.094418   -0.035953
0.06831     0.11216    0.011144   -0.019063     0.23754   -0.050894   -0.034004
0.11281     0.11541   0.0085458    -0.01484     0.39117   -0.011917   -0.035303
0.12028     0.10177   0.0091954  -0.0054209     0.53376    0.016666   -0.038227
0.087799    0.072208   0.0091954   0.0056225     0.65719    0.032582    -0.04115
0.030308    0.030633   0.0075714    0.012443     0.74456    0.034206   -0.043099
-0.028482   -0.012242   0.0046481    0.013743     0.77152    0.020564   -0.037577
-0.069083    -0.04862   0.0069217   0.0075714     0.71143  -0.0018481   -0.024909
-0.084999   -0.068109    0.012768  -0.0037969     0.57339   -0.020362  -0.0060706
-0.0837   -0.069083     0.01764   -0.013541     0.40091   -0.033354    0.011794
-0.076879    -0.05804    0.021538   -0.016789     0.24241   -0.048945    0.022188
-0.075579   -0.042774    0.022512   -0.013866     0.13165   -0.073306    0.022837
-0.084024   -0.032705    0.016016   -0.007045    0.090072    -0.10644     0.01764
-0.09994   -0.026209      0.0014 -0.00087364     0.11476    -0.14152   0.0088706
-0.11521   -0.018413    -0.01614   0.0020496     0.19011    -0.17465   0.0033489
-0.11943  -0.0093186   -0.028482  0.00075039      0.2934    -0.20323   0.0052977
-0.11163  -0.0047713   -0.032705  -0.0050961     0.39214    -0.22694    0.013743
-0.093444  -0.0083442   -0.028807   -0.011917     0.45256    -0.24058    0.022188
-0.067134   -0.013866   -0.021986    -0.01614     0.44769    -0.24058    0.025436
-0.034004    -0.01484   -0.017764   -0.011592     0.36746    -0.22337    0.021213
0.0052977  -0.0093186   -0.012892 -0.00022403     0.22194    -0.19219    0.015692
0.050121   0.0010752  -0.0067202    0.014717    0.031932    -0.15353    0.016666
0.092671    0.012443  0.00075039    0.029009    -0.18439    -0.11651    0.023812
0.12418    0.019914   0.0065969    0.039402    -0.41695    -0.09182    0.032906
0.13944     0.02706   0.0065969    0.041351    -0.65471   -0.078178    0.038753
0.13782     0.03453   0.0020496    0.031932    -0.87428   -0.072006    0.045249
0.12775    0.046548  -0.0054209    0.014068     -1.0373   -0.065835    0.049796
0.11541    0.056942   -0.011592  -0.0060706     -1.1172   -0.053817    0.050771
0.099492    0.060515    -0.01549   -0.022961      -1.113   -0.038227     0.04395
0.076431    0.049147   -0.022311   -0.031406     -1.0477   -0.021012    0.031282
0.052395     0.02706   -0.029457   -0.035953    -0.95483  -0.0047713     0.01764
0.03583   0.0026992   -0.033679   -0.039526    -0.85609    0.009845   0.0085458
0.030957   -0.016464   -0.034329   -0.042774    -0.75573    0.021213   0.0059473
0.03518   -0.030756   -0.032055   -0.046996    -0.63327    0.025111   0.0078962
0.037454   -0.036278   -0.028482   -0.050569    -0.46405    0.024461    0.012119
0.029333   -0.030431   -0.020362   -0.050569    -0.24188    0.026735    0.019589
0.0091954   -0.012892  -0.0096434   -0.041475    0.014717    0.036804    0.030633
-0.013541    0.012768      0.0014   -0.027833     0.27067     0.05272    0.044924
-0.027508    0.037778   0.0095202   -0.012242     0.49901    0.070584    0.059216
-0.029132    0.050446    0.015692      0.0014     0.68609    0.082602    0.067336
-0.02361    0.046873    0.018615    0.012443     0.82836    0.082927    0.066686
-0.013866    0.029009    0.015042    0.018615     0.93587    0.069934    0.052395
-0.0076946   0.0043233   0.0091954    0.022188      1.0213    0.047523    0.029009
-0.011267   -0.020362   0.0046481    0.021863      1.0882    0.025111  0.00075039
-0.022311   -0.037577   0.0062721    0.017316      1.1308    0.010819   -0.027183
-0.034004   -0.043099     0.01017    0.010495      1.1411   0.0095202   -0.047971
-0.038551   -0.035953    0.013743   0.0085458      1.1048    0.022837   -0.059664
-0.032055   -0.019712    0.016341    0.010819      1.0073    0.045249    -0.05804
-0.015815  -0.0028225     0.01829    0.017316     0.85467    0.066037   -0.045047
0.0039985    0.009845    0.021213     0.02641      0.6692    0.081627   -0.025884
0.021213    0.015692    0.024461    0.034855     0.48471    0.092996  -0.0047713
0.031607    0.016016    0.027709    0.042001     0.33693     0.10209    0.012768
0.038103    0.014717    0.032257    0.049472     0.24598     0.11021    0.017965
0.037454    0.013418    0.037129    0.055318     0.21252     0.11541    0.011794
0.031282    0.015042    0.040377    0.055643     0.22032     0.11833  -0.0021729
0.023487    0.019264    0.038103     0.05142     0.24468     0.11833   -0.017114
0.01894    0.027709     0.03453    0.040052     0.25897     0.11476   -0.028482
0.024461    0.041351    0.028684    0.020888     0.24273     0.10339   -0.034978
0.039727    0.057267    0.017965  -0.0011985     0.19304    0.085525   -0.039201
0.061489     0.06831      0.0014   -0.018413     0.12288    0.069285   -0.046671
0.076431    0.066037   -0.014516   -0.024585    0.049472    0.057267   -0.054792
0.078379    0.047198   -0.027833   -0.021012   -0.013541    0.058241   -0.060313
0.069934    0.014717   -0.034654   -0.015815    -0.05804    0.070584   -0.062262
0.048497   -0.022961   -0.034978   -0.013866   -0.082725      0.0865   -0.060313
0.015692   -0.055116   -0.028482   -0.011592   -0.092469     0.10014   -0.056091
-0.024909   -0.069408   -0.017439  -0.0041217    -0.09182     0.11086   -0.050244
-0.064536   -0.066485   -0.010618    0.012119   -0.083375     0.11541    -0.04115
-0.094743   -0.050894   -0.011917    0.032906   -0.070382     0.11541   -0.028807
-0.11001   -0.030756    -0.01484    0.052395   -0.052843     0.10566   -0.016464
-0.10936   -0.010943   -0.011592    0.063763   -0.040175      0.0865  -0.0044465
-0.097017   0.0049729  -0.0031473    0.066686   -0.036927    0.065062   0.0046481
-0.077203    0.012443   0.0046481    0.065062   -0.041475    0.043625   0.0072465
-0.057715    0.008221   0.0065969    0.065387   -0.045372    0.028034      0.0014
-0.04115   -0.007045   0.0023744    0.068635   -0.046347    0.020239  -0.0054209
-0.027508   -0.030431  -0.0047713    0.071883   -0.049595    0.021863  -0.0093186
-0.018088   -0.051219  -0.0089938    0.071234   -0.060963    0.029983  -0.0054209
-0.0080194   -0.059989  -0.0076946    0.067986   -0.086623    0.039727   0.0056225
0.009845   -0.052843  0.00010078    0.066037     -0.1269    0.050446    0.025436
0.040377    -0.03238   0.0072465    0.065712    -0.18212    0.062464    0.054019
0.077405  -0.0089938   0.0091954    0.067661    -0.25227    0.079029    0.088124
0.10989    0.012768   0.0062721    0.065712    -0.32958    0.096893     0.11833
0.13002    0.036804   0.0033489    0.060515    -0.40526     0.11346     0.14074
0.12937    0.066362   0.0010752    0.049472    -0.47574      0.1232     0.15244
0.10956     0.10306  -0.0028225    0.038103    -0.53551     0.12385     0.15536
0.080003     0.13457  -0.0073698    0.031932    -0.57806     0.11768     0.15536
0.054344     0.15114   -0.014191    0.033881    -0.59917     0.10859     0.15373
0.038428     0.14919   -0.018738    0.040377    -0.59852     0.10079     0.15309
0.03453     0.13522   -0.020037    0.047198    -0.57578    0.097218     0.15536
0.041027     0.11638    -0.01549    0.051096    -0.52869    0.099167     0.16088
0.052395     0.10242  -0.0054209    0.050771    -0.45853     0.11151     0.16835
0.063763     0.09397   0.0095202    0.044599    -0.36758     0.13587     0.17257
0.072858    0.092346    0.020564    0.038428    -0.26787     0.16478     0.17095
0.073182     0.09397    0.025436    0.037454    -0.16945     0.18459     0.16283
0.061814    0.096244    0.029009      0.0433   -0.085324     0.18719     0.14919
0.040377    0.095594    0.034206    0.053369   -0.019388      0.1677     0.13067
0.021213    0.090722    0.038103    0.063113    0.027709     0.13522     0.10891
0.015042    0.081303    0.032906    0.065712    0.058241     0.10242    0.083901
0.022188    0.063763    0.016991    0.058241    0.074157    0.074806    0.059865
0.036479     0.03583  -0.0060706    0.036804    0.075781    0.053369    0.038103
0.053044 -0.00087364   -0.029457     0.01017    0.067336    0.030633     0.01764
0.062139   -0.037252   -0.042449  -0.0099683    0.054993   0.0036737   0.0010752
0.062139   -0.064536   -0.042449   -0.015165    0.042001   -0.029132    -0.01484
0.053369   -0.072656   -0.032705  -0.0060706    0.028034   -0.061613   -0.031081
0.041027    -0.05739   -0.021012   0.0062721     0.01829   -0.085973   -0.041475
0.02706   -0.028157  -0.0050961     0.01764    0.013093    -0.10124   -0.036927
0.015042   0.0043233    0.016341    0.027709   0.0036737    -0.11001   -0.018088
0.0078962    0.031607    0.040052    0.037778   -0.021661    -0.12365   0.0085458
0.0069217    0.046548    0.061489    0.044924   -0.065186    -0.14574    0.032906
0.011144    0.048172    0.075456    0.048822     -0.1178    -0.17919    0.048822
0.016991    0.034855     0.07773    0.045249    -0.16458    -0.22272    0.049796
0.023812   0.0069217    0.068635    0.036804    -0.19706    -0.27501    0.034206
0.031607   -0.024909    0.050446    0.023162    -0.19706    -0.32925   0.0072465
0.036154   -0.054142    0.030308   0.0095202    -0.13599    -0.37538    -0.02361
0.037778   -0.072006     0.01017  -0.0034721  -0.0096434    -0.40201   -0.054467
0.036804   -0.075904  -0.0050961   -0.017764     0.15438    -0.39941   -0.081751
0.032582   -0.068434  -0.0099683   -0.030431     0.31192    -0.36628   -0.097017
0.029333   -0.053817  -0.0041217   -0.037902     0.41748    -0.30847   -0.098965
0.027709   -0.038227   0.0075714   -0.039201     0.44119    -0.23474   -0.089871
0.031607   -0.024585     0.01829   -0.037577     0.38272    -0.15711   -0.073631
0.03518   -0.013216    0.025436   -0.032055     0.26807   -0.089221   -0.059014
0.031932  -0.0060706    0.029333   -0.022636      0.1271   -0.037577   -0.053492
0.0095202  -0.0028225    0.033881   -0.011917   -0.019712  -0.0076946    -0.05739
-0.034329  -0.0024977    0.039727  -0.0015233    -0.15841   0.0017248   -0.070058
-0.09182  -0.0050961     0.04395   0.0039985    -0.28086  -0.0028225     -0.0837
-0.14314   -0.010618    0.043625   0.0052977    -0.39064    -0.01614   -0.092469
-0.1727   -0.019388     0.03453   0.0046481    -0.49653    -0.03173   -0.093119
-0.1714   -0.030756    0.023487   0.0065969    -0.59202   -0.040175   -0.087597
-0.13989   -0.044398    0.014717    0.011469     -0.6664   -0.035953   -0.077203
-0.088247    -0.05804    0.009845    0.017316    -0.70571   -0.019712   -0.062587
-0.030756   -0.066485   0.0095202    0.021863    -0.70376  0.00042559   -0.044073
0.023487   -0.062587   0.0091954    0.020888    -0.66218    0.016666   -0.029457
0.065712   -0.049595   0.0010752    0.014068     -0.5878    0.022512   -0.023285
0.092021    -0.03238   -0.013866   0.0010752    -0.48744    0.018615   -0.025234
0.097543   -0.018738   -0.033679   -0.013866    -0.36758   0.0069217   -0.029782
0.079679   -0.012242   -0.050894   -0.027508    -0.23668  -0.0099683    -0.03173
0.041027   -0.012242   -0.060638   -0.037902    -0.10091   -0.029457   -0.026533
-0.0047713   -0.014516   -0.062587    -0.04862    0.033556   -0.054467   -0.017439
-0.044398   -0.016464   -0.059014   -0.059989     0.14886   -0.088247   -0.010293
-0.070058   -0.015165   -0.053168   -0.072006     0.22552     -0.1334   -0.011267
-0.081101  -0.0093186   -0.040825   -0.080776     0.26092    -0.18536   -0.022311
-0.078827      0.0014   -0.024909     -0.0824     0.25962    -0.23214   -0.035628
-0.068758    0.013743   -0.013216   -0.072981     0.22779    -0.25877   -0.046347
-0.055116    0.022512  -0.0063954   -0.055116     0.16705    -0.25747   -0.052518
-0.045372    0.022512  -0.0034721   -0.034329    0.082927    -0.22921   -0.051544
-0.042124    0.015692  -0.0021729   -0.012892  -0.0037969    -0.18959   -0.042774
-0.045697   0.0072465  -0.0024977   0.0043233   -0.068758    -0.15386    -0.03238
-0.051544  -0.0011985  -0.0057458    0.009845   -0.092145     -0.1321    -0.02426
-0.059664  -0.0099683  -0.0099683   0.0049729   -0.068434    -0.12333   -0.023285
-0.066485   -0.019712   -0.014516  -0.0057458   -0.007045    -0.12138   -0.025884
-0.070382   -0.031081   -0.019712   -0.016464    0.071234     -0.1178   -0.031081
-0.069408   -0.040825   -0.029132   -0.027833     0.14691    -0.10806   -0.038227
-0.062587    -0.04927   -0.039851   -0.038227      0.2096   -0.088896   -0.047321
-0.050894   -0.053168    -0.04862   -0.042124     0.25378   -0.060963   -0.054142
-0.038876   -0.053168   -0.053492   -0.037577     0.28008   -0.028157   -0.055441
-0.029457   -0.049595   -0.050569   -0.028157      0.2908   0.0010752   -0.051219
-0.024585   -0.042124   -0.036278   -0.018738     0.28983    0.020888   -0.042124
-0.024909   -0.034329   -0.013216    -0.01614     0.28528    0.029333    -0.03173
-0.030756   -0.027508   0.0072465   -0.018738     0.28463    0.029983   -0.026533
-0.038227    -0.02426     0.01894   -0.024585     0.29405    0.029009   -0.026858
-0.040175   -0.023935    0.020888   -0.024909     0.30769    0.033231   -0.033354
-0.038876   -0.023935    0.014392   -0.018088     0.31614    0.042651   -0.040175
-0.033354   -0.018413   0.0033489  -0.0054209     0.31451    0.056942   -0.043099
-0.02426  -0.0054209  -0.0073698   0.0072465     0.30672    0.079679   -0.039201
-0.016789    0.019914    -0.01549     0.01764     0.29405     0.10631   -0.029782
-0.011267    0.055968   -0.019388    0.022512     0.27944      0.1349   -0.020362
-0.012242    0.095919   -0.016789    0.021538     0.27067     0.15763   -0.013216
-0.018738     0.13002  -0.0054209    0.016991     0.27879     0.17452  -0.0076946
-0.031081     0.14919   0.0059473    0.012443     0.30867     0.18719  0.00042559
-0.043748     0.14984    0.015692    0.013743     0.35544     0.20116    0.012768
-0.052843     0.13879    0.023487    0.022188     0.40773     0.21447     0.02706
-0.052843     0.12288    0.029009    0.038428     0.44931     0.22357    0.037778
-0.044398     0.10599    0.031607    0.053694     0.47367     0.22552    0.038753
-0.03173    0.089098    0.030957    0.059216     0.48374     0.22259    0.031282
-0.019063    0.066362    0.021538    0.054019     0.48764      0.2174    0.022512
-0.0080194    0.040052   0.0036737    0.041027     0.49056     0.21707    0.017316
0.010495    0.018615   -0.014516    0.024786     0.49348     0.23266    0.020888
0.037778   0.0088706   -0.028157    0.010819     0.48569     0.26612    0.030633
0.069285    0.014068   -0.034978  0.00010078     0.44346      0.3038    0.037129
0.09397    0.030308   -0.036602  -0.0018481     0.32621     0.32848    0.038428
0.10501    0.046223   -0.032055   0.0033489     0.11378     0.33205    0.036154
0.10209    0.051745   -0.021337    0.012443    -0.16393     0.31549    0.038103
0.081952    0.041351   -0.008669    0.020888    -0.42865     0.28203    0.051096
0.050121    0.018615   0.0046481    0.025436    -0.58942     0.23494    0.065062
0.014068   -0.008669    0.016666    0.027385    -0.60014     0.17907    0.069285
-0.013541   -0.030106    0.025761    0.029333    -0.48484      0.1232    0.062464
-0.024909   -0.041799    0.030633    0.029658    -0.30619    0.069934    0.050446
-0.020362   -0.046996    0.027709    0.026735    -0.13762    0.019914    0.042001
-0.0050961   -0.050569    0.015692    0.021863   -0.030106   -0.025559    0.042326
0.012443   -0.056741  0.00075039    0.016991   0.0023744   -0.070707    0.051096
0.022837   -0.065835   -0.010943   0.0095202   -0.026209    -0.12268    0.058891
0.025111    -0.07428   -0.014516      0.0014   -0.087597    -0.18342    0.061814
0.01894   -0.078503   -0.014191  -0.0050961    -0.15938    -0.25065    0.057592
0.01017   -0.076554   -0.013541  -0.0080194    -0.23084    -0.31983    0.047198
0.003024   -0.063886    -0.01484   -0.007045     -0.2997    -0.38057    0.033881
0.0046481   -0.036927   -0.018088 -0.00022403     -0.3757    -0.42702     0.01764
0.01764   0.0020496   -0.019388    0.009845     -0.4608     -0.4556 -0.00054884
0.041027    0.047198   -0.012892    0.020239    -0.53551    -0.46697   -0.018088
0.066686    0.084226  -0.0034721    0.030308    -0.58163     -0.4582   -0.028157
0.090397     0.10566   0.0046481     0.03453    -0.58033    -0.43157   -0.024909
0.10209     0.10956    0.010819    0.033556    -0.51439    -0.38382   -0.011592
0.095594     0.10047    0.014392    0.029983    -0.38707    -0.32308    0.003024
0.074482    0.084876    0.016341    0.024461    -0.22142    -0.26072    0.011144
0.05142    0.066362     0.01017     0.01829   -0.042449    -0.19706   0.0095202
0.035505    0.046223  -0.0044465    0.011144     0.13197    -0.13469 -0.00022403
0.033556    0.026085   -0.020037   0.0062721     0.28528   -0.073306  -0.0096434
0.040702   0.0056225   -0.033679   0.0072465     0.40286   -0.015165   -0.013541
0.050446   -0.015815   -0.041799    0.015042     0.47529    0.033231  -0.0093186
0.052395   -0.036278   -0.044073     0.02706     0.50063    0.066686  -0.0011985
0.045249   -0.051219   -0.039201    0.040052     0.48471    0.089423   0.0065969
0.029009   -0.059989   -0.026858    0.049796     0.43859     0.11086   0.0095202
0.0085458   -0.060313   -0.008669    0.055643     0.36876     0.13522    0.012768
-0.010943   -0.053817   0.0088706    0.061489     0.28106     0.16185    0.017316
-0.024909   -0.046022    0.022188    0.066037     0.17939     0.18589    0.024137
-0.03303   -0.045047    0.030308    0.066037    0.065387     0.20473    0.032582
-0.033354   -0.051868    0.031282    0.059541   -0.056416     0.21317    0.042326
-0.026858   -0.059014    0.026085    0.051745     -0.1714     0.20765    0.050446
-0.021661   -0.059664    0.019914    0.045249    -0.26657     0.18784    0.051096
-0.015815   -0.052843    0.018615    0.038753    -0.33185     0.15958      0.0433
-0.0073698   -0.040825    0.022837    0.030957    -0.36531     0.13035    0.029983
0.0078962   -0.026533    0.028684    0.022837    -0.36466     0.11183    0.016991
0.033556   -0.010293    0.033881    0.013093    -0.32308    0.098842    0.013093
0.063763   0.0075714     0.03583  0.00042559    -0.24221    0.080653   0.0085458
0.085525    0.019264    0.031607   -0.014191    -0.14379    0.047847  -0.0041217
0.0852    0.014068    0.018615   -0.029782   -0.052193   0.0020496   -0.022636
0.061814   -0.011267   0.0017248   -0.042124    0.022188   -0.041799   -0.039851
0.021538   -0.044723   -0.012242   -0.047971    0.081303   -0.068109   -0.048296
-0.021337   -0.069083   -0.016789    -0.04992     0.12548   -0.068109   -0.044398
-0.05804   -0.075579  -0.0096434   -0.049595     0.14724   -0.040825   -0.029132
-0.093444   -0.063237   0.0052977   -0.044723     0.12483   0.0017248   -0.007045
-0.12852   -0.039526    0.016666   -0.034004    0.045899    0.045249     0.01764
-0.15321   -0.015165    0.020239   -0.015165   -0.086948    0.081303    0.043625
-0.15678  -0.0024977    0.019589   0.0059473    -0.26039     0.11054    0.067661
-0.13242  -0.0047713     0.01829    0.023487    -0.45463     0.13425    0.083901
-0.085648   -0.019388    0.015692    0.031932    -0.64724     0.15081    0.092346
-0.029457   -0.032705   0.0056225    0.029009    -0.81809     0.15796     0.09397
0.024137   -0.036278  -0.0096434    0.016341    -0.94866     0.16023    0.090397
0.062464   -0.027183   -0.024585 -0.00087364     -1.0247      0.1625    0.081952
0.082927   -0.010618   -0.035303   -0.015165     -1.0315      0.1651    0.074157
0.081627   0.0056225   -0.037577   -0.025884    -0.96263      0.1638    0.071234
0.056942    0.014717   -0.036927   -0.033354    -0.82946     0.15406    0.073832
0.016666     0.01764   -0.036278    -0.03238    -0.65601      0.1362    0.075456
-0.016789    0.020888   -0.034654   -0.025559    -0.46827     0.11606    0.072533
-0.023285    0.022837   -0.026858    -0.01549    -0.28151     0.10014    0.063113
-0.00022403    0.019914    -0.01549  -0.0034721    -0.10124     0.08585    0.048172
0.041027    0.015042  -0.0044465   0.0069217    0.081303    0.071558    0.032906
0.0865    0.021213   0.0039985    0.013093     0.28983    0.055318    0.020888
0.11963    0.042975    0.013093    0.016341     0.53473    0.037454    0.011469
0.1323    0.084876    0.021213    0.019264     0.80465    0.016666  0.00010078
0.1206     0.13522    0.029333    0.022837      1.0661  -0.0060706   -0.012892
0.087799     0.17225    0.031932    0.025111      1.2782   -0.025884   -0.025884
0.045574     0.17615    0.030633    0.025111      1.4039   -0.035303   -0.035953
0.008221     0.14367    0.026085    0.020888      1.4208   -0.036927   -0.041799
-0.017439    0.091372    0.019589    0.015042      1.3325   -0.033354     -0.0405
-0.03173    0.039727    0.017316    0.012768        1.16   -0.029457   -0.031406
-0.045047    0.008221    0.023487    0.016341     0.94172   -0.023935   -0.019388
-0.061937   0.0023744    0.036154    0.024786     0.71793   -0.013216  -0.0089938
-0.085648    0.020564    0.049147    0.034206     0.51525   0.0017248 -0.00054884
-0.11553    0.053044    0.058891      0.0433     0.33758    0.015692   0.0088706
-0.14509    0.084551    0.065062    0.050771     0.17842    0.025111    0.019914
-0.16263     0.10371    0.063438    0.053694    0.033231     0.02641    0.031607
-0.15678     0.10664    0.055643     0.05207    -0.10221    0.020564    0.037129
-0.12885    0.096244    0.044924    0.047523    -0.21914   0.0043233    0.033881
-0.088247    0.075131    0.033556    0.038428    -0.30359   -0.020362    0.024137
-0.045697    0.047523    0.021538    0.024461    -0.34127   -0.047646    0.014068
-0.0080194    0.023162   0.0078962     0.01017    -0.33185   -0.069408   0.0085458
0.026735    0.009845  -0.0050961  0.00010078      -0.288   -0.084349    0.010495
0.065387    0.011469   -0.017114 -0.00087364    -0.22661   -0.094418    0.020564
0.10989    0.027709   -0.026858   0.0052977     -0.1623    -0.10286    0.032582
0.15601    0.054993   -0.031081    0.017965    -0.11098    -0.10676    0.039727
0.18979    0.083901   -0.028807    0.033556   -0.080451    -0.10286    0.038428
0.20148     0.10989   -0.023935    0.043625   -0.076554    -0.09182    0.025761
0.18881     0.12483   -0.022636      0.0433   -0.097341   -0.077203   0.0052977
0.15698     0.12743    -0.02426    0.034855    -0.13794   -0.064211    -0.01614
0.11768     0.11995   -0.027183    0.020239    -0.18277   -0.057715   -0.031406
0.080978     0.10696   -0.027183    0.008221    -0.21427   -0.061288   -0.037577
0.054668     0.09462   -0.019712   0.0010752    -0.21655   -0.075579   -0.034978
0.040052     0.08585  -0.0083442 -0.00087364    -0.18049    -0.09182   -0.030756
0.038103    0.082277   0.0052977   0.0026992    -0.11326    -0.10481   -0.026209
0.04395    0.080328    0.015367    0.013093   -0.029132    -0.11033   -0.023285
0.053369    0.073832    0.021863    0.024461     0.05142    -0.10676   -0.021661
0.057592    0.059216    0.024137    0.033556     0.11313   -0.098641   -0.020037
0.05207    0.038103    0.024461    0.037129     0.14529    -0.09117   -0.020362
0.036479    0.015692    0.021538     0.03518     0.14919   -0.084024    -0.02426
0.014068  -0.0047713    0.015042    0.026735     0.13555   -0.070382   -0.026858
-0.010618   -0.022636   0.0065969    0.015692     0.12125   -0.052193   -0.022961
-0.033679   -0.034329 -0.00087364   0.0075714     0.10826     -0.0405  -0.0099683
-0.052193   -0.039201  -0.0024977   0.0052977    0.084226   -0.038551   0.0036737
-0.063237   -0.037902    0.003024   0.0075714    0.037778   -0.042449   0.0062721
-0.067784    -0.03303    0.011794    0.010495   -0.037252   -0.047971  -0.0021729
-0.06616   -0.028157    0.019589    0.013093    -0.13502   -0.052193   -0.019063
-0.060313   -0.024585    0.021863    0.014392     -0.2474   -0.059989   -0.036602
-0.051868   -0.025884    0.018615    0.013093    -0.37278   -0.078178    -0.04862
-0.046996    -0.03173    0.010495   0.0069217    -0.50887    -0.10579   -0.053168
-0.044398   -0.041799  -0.0018481  -0.0050961    -0.65081     -0.1321   -0.049595
-0.043099   -0.052843   -0.014516   -0.016789    -0.77749    -0.15029   -0.045047
-0.040825   -0.058689    -0.02361   -0.025559    -0.84862    -0.15581   -0.042124
-0.034654   -0.054467   -0.026533   -0.026858    -0.83433    -0.14671   -0.035953
-0.028807   -0.043423   -0.022961   -0.022311    -0.73169    -0.13047   -0.026533
-0.030756    -0.03238    -0.01549   -0.013866    -0.56474    -0.11293   -0.017439
-0.0405   -0.026858  -0.0096434   -0.007045    -0.36985   -0.097666   -0.012892
-0.055116   -0.027183  -0.0073698  -0.0011985    -0.17854   -0.082725  -0.0076946
-0.063561   -0.032055  -0.0093186   0.0056225   -0.015815   -0.067134 -0.00054884
-0.060313   -0.037252   -0.013541     0.01764     0.10339   -0.054792   0.0049729
-0.048296    -0.04115   -0.018088    0.032257     0.17647   -0.043423    0.008221
-0.035303   -0.045372   -0.016789    0.044599     0.20895   -0.031406   0.0078962
-0.030756   -0.052518  -0.0089938    0.051745     0.21317   -0.021337   0.0056225
-0.038551   -0.061937  0.00042559    0.051096     0.20376   -0.012892   0.0065969
-0.04927   -0.072006   0.0043233    0.041351     0.19304  -0.0054209   0.0078962
-0.054792   -0.079802  0.00075039    0.026085     0.18524  -0.0018481   0.0088706
-0.053817   -0.080127  -0.0063954   0.0075714      0.1729  -0.0015233   0.0056225
-0.04992   -0.075904   -0.012892  -0.0083442     0.14886  -0.0060706  -0.0018481
-0.046022   -0.068109   -0.017439   -0.015815     0.10989   -0.010943  -0.0099683
-0.044398   -0.060638   -0.021012    -0.01614    0.056292   -0.013866   -0.021012
-0.040825   -0.054467    -0.02361   -0.013216   -0.010618    -0.01549   -0.034329
-0.036927   -0.047321    -0.02426   -0.011592    -0.09117   -0.020362   -0.048296
-0.03173   -0.038551   -0.021661   -0.010618    -0.17627   -0.029457   -0.055116
-0.029782   -0.026858   -0.018088   -0.011592    -0.24935     -0.0405   -0.056416
-0.025234   -0.015165   -0.018738   -0.014191    -0.29223   -0.051544   -0.056091
-0.021661  -0.0083442   -0.023935   -0.019063     -0.2919   -0.062262   -0.058365
-0.019712   -0.008669    -0.03238   -0.026533    -0.25487   -0.073631   -0.061288
-0.019063   -0.013866   -0.035628   -0.035628    -0.19608    -0.09182   -0.059339
-0.012892   -0.012892   -0.029782   -0.042124    -0.13534    -0.11391   -0.050569
-0.0028225 -0.00054884   -0.012892   -0.043748   -0.084349    -0.13242   -0.041475
0.012443     0.01894   0.0062721   -0.035628   -0.036602    -0.14346   -0.037252
0.032906    0.037454    0.025761   -0.023285    0.012119    -0.14541   -0.037252
0.057267    0.050771    0.040377   -0.012892    0.063438    -0.13729   -0.034654
0.079029    0.056617    0.047198  -0.0073698     0.11183     -0.1217   -0.029457
0.089423    0.054993    0.043625  -0.0063954     0.14854    -0.10156   -0.019712
0.087799    0.046873    0.032582  -0.0067202     0.16575   -0.075579   -0.007045
0.076755    0.035505    0.019914  -0.0041217     0.16575   -0.043748   0.0046481
0.061489    0.023487    0.012768      0.0014     0.15666  -0.0044465    0.014068
0.044275    0.011794     0.01017   0.0062721     0.15049    0.037778    0.016341
0.02706  0.00010078   0.0095202    0.015042     0.14886    0.078379    0.013418
0.011794  -0.0080194   0.0072465    0.023812     0.14854     0.10891   0.0078962
0.0023744   -0.011917   0.0033489    0.028359     0.14756     0.12515   0.0033489
-0.00087364   -0.011592 -0.00087364    0.020888     0.14886     0.12515  0.00075039
-0.0024977   -0.012892   -0.010293   0.0039985     0.15114     0.11508      0.0014
-0.0080194   -0.017764   -0.023285   -0.010618     0.15536     0.10566   0.0052977
-0.020037   -0.028157    -0.03303   -0.014516     0.16023     0.10242    0.013418
-0.033354   -0.042124   -0.032705  -0.0089938     0.16835     0.10436    0.025111
-0.044723   -0.056091   -0.024585    0.003024     0.18199     0.10534    0.038428
-0.051544   -0.062262   -0.016789     0.01894     0.20148     0.10339    0.051096
-0.050894   -0.056091   -0.016789     0.03518     0.22779    0.097218    0.061814
-0.0405   -0.041475   -0.021661    0.049147     0.26612    0.088773    0.067336
-0.020362   -0.021661   -0.027183    0.056942     0.31646    0.080328    0.067336
0.0014  -0.0050961   -0.030106    0.058891     0.37136    0.073182    0.054993
0.014717   0.0017248   -0.031081    0.051745       0.423     0.06831    0.031282
0.015692  -0.0073698    -0.03303    0.037129     0.47237    0.064737  -0.0037969
0.010495   -0.028482   -0.037902    0.016016     0.51784    0.058241   -0.041799
0.0069217   -0.052193   -0.045372  -0.0044465     0.55617    0.044599   -0.069408
0.0075714    -0.06551   -0.053492   -0.022636     0.58151    0.019589   -0.079802
0.011144   -0.059014   -0.054792   -0.033679     0.57598    -0.01484    -0.07428
0.015692    -0.03303   -0.043099   -0.037252     0.51947   -0.048945   -0.059339
0.024461   0.0065969   -0.017114   -0.033354     0.39994   -0.077203   -0.043099
0.037129    0.041676    0.011469   -0.025234     0.22682   -0.097017   -0.030106
0.052395    0.055968    0.028359   -0.020362    0.036154    -0.11066   -0.022636
0.06084    0.044275    0.020888   -0.021012    -0.13177    -0.11066   -0.019712
0.054668    0.014717  -0.0067202   -0.021012    -0.26234   -0.092145   -0.017114
0.029333   -0.014516   -0.035953    -0.01484    -0.37213   -0.058365   -0.011592
-0.01614   -0.027833   -0.048296   0.0046481    -0.47022   -0.016464  -0.0011985
-0.077528   -0.018738   -0.036278    0.032582    -0.54038    0.029333    0.017965
-0.14769   0.0065969  -0.0063954    0.063438    -0.56441    0.076755    0.041676
-0.21362    0.032257    0.027709    0.085525    -0.51764     0.12288    0.059865
-0.26754    0.048172    0.056617    0.095269    -0.39032     0.15796    0.065712
-0.29807    0.046548    0.069285    0.089423    -0.19413     0.17939    0.056942
-0.29612    0.032257    0.057592    0.069285    0.042651     0.19044    0.039727
-0.25422   0.0078962    0.021538    0.041351     0.28561     0.19563    0.026085
-0.18277    -0.02426   -0.027183    0.011794     0.49803     0.20148    0.023162
-0.097666   -0.063561   -0.071032   -0.011592     0.65686     0.20798     0.03583
-0.016464    -0.09929   -0.094093   -0.021661     0.75528     0.21642    0.060515
0.048497    -0.11975   -0.091495   -0.012567     0.79458     0.22259    0.092671
0.09397    -0.11196   -0.063561   0.0095202     0.78029     0.22032     0.11995
0.12483   -0.071682   -0.018088    0.033231     0.72182     0.20505     0.13262
0.14919  -0.0031473    0.025761    0.045899     0.63185     0.17387     0.12385
0.1716    0.078379     0.05207    0.039402     0.51719     0.13425    0.098517
0.18784     0.15276    0.056617    0.015042      0.3759    0.097218    0.067986
0.19693     0.19823      0.0433    -0.01484      0.2083    0.070909    0.045574
0.20083     0.20148    0.019589   -0.038551    0.020564    0.053369    0.041676
0.20148     0.16803  -0.0067202   -0.050244    -0.17887    0.041676     0.06019
0.19953     0.11411    -0.02426   -0.047971    -0.38252    0.039402    0.094295
0.19693    0.061165   -0.029457   -0.036278    -0.57903    0.039078     0.13132
0.19791     0.02706   -0.025234   -0.022636    -0.77749    0.032906     0.15893
0.20473    0.021863   -0.015165   -0.010293    -0.99771    0.009845     0.16705
0.21188    0.041351  -0.0047713   -0.007045     -1.2371    -0.03173     0.15861
0.20895    0.073182   0.0036737   -0.012242      -1.445   -0.088247     0.13944
0.19531     0.10079    0.014392   -0.018738      -1.547    -0.14476     0.11736
0.16965     0.11443    0.028034   -0.019388      -1.493    -0.18569     0.10047
0.13684     0.11021    0.040052   -0.016464     -1.2904    -0.20063    0.091696
0.10079    0.092996    0.047198   -0.010618    -0.99251    -0.19154    0.088124
0.06896    0.074806    0.050446  -0.0031473    -0.66251    -0.16815    0.082277
0.048822    0.062789    0.048497   0.0036737    -0.35102    -0.13827    0.073832
0.045249    0.061814    0.042651    0.008221   -0.089221    -0.10774    0.066686
0.057592    0.066686    0.036804    0.013093     0.11931   -0.086298    0.065387
0.07708    0.072533    0.032257    0.024786     0.27684   -0.072981     0.06896
0.093321    0.073507    0.032906    0.041027     0.37915   -0.061937    0.070259
0.099492     0.06831    0.034855    0.057592     0.42008   -0.050569    0.067661
0.095919    0.058241    0.036154    0.071234     0.40384     -0.0405    0.059541
0.082927    0.046548     0.03453    0.078704     0.34797   -0.032705    0.047847
0.060515    0.036154    0.031607     0.07708     0.27489    -0.02361    0.033881
0.029333    0.028359    0.030957    0.070909     0.19336   -0.013541     0.01894
-0.0024977    0.021538    0.036804    0.063438    0.091047  -0.0031473   0.0046481
-0.029782    0.013743    0.045899     0.06084   -0.054142   0.0046481   -0.010293
-0.047646   0.0078962    0.056617    0.064088    -0.25325     0.01017   -0.022636
-0.054467   0.0039985    0.065712     0.06831    -0.47834    0.014068   -0.033679
-0.052843   0.0062721    0.071558    0.074157     -0.6742    0.022837   -0.042124
-0.039851    0.014392    0.072858    0.078055    -0.78204     0.03518   -0.047646
-0.019712    0.023487    0.070584     0.07708    -0.77684    0.048172    -0.04992
0.00010078    0.029009    0.066362     0.06831    -0.68199    0.054344   -0.046022
0.011794    0.029333    0.060515    0.054668    -0.54785    0.050121   -0.039201
0.012768    0.028034    0.050121    0.041351     -0.4241    0.039078   -0.033354
0.0036737    0.028359    0.038753    0.032257    -0.33932    0.024461   -0.028482
-0.010943    0.029333    0.028034    0.030308    -0.29612   0.0088706   -0.027183
-0.027508    0.029009    0.019589    0.031932    -0.27469  -0.0024977    -0.03238
-0.038551    0.022837    0.015042    0.032906    -0.24221   -0.010293   -0.047646
-0.038227    0.010819    0.012768    0.031932     -0.1688    -0.01549    -0.06551
-0.031081  -0.0041217    0.014392    0.032257   -0.036927   -0.019712   -0.073955
-0.028157   -0.017764    0.014392    0.030633     0.15016   -0.024585   -0.072656
-0.028807   -0.025884   0.0095202    0.022512     0.37915   -0.034004    -0.06681
-0.031406   -0.030756  -0.0011985   0.0091954     0.62016   -0.046671   -0.063237
-0.036927   -0.031081   -0.012567   -0.007045     0.82771   -0.059989   -0.062587
-0.044723   -0.026533   -0.021337   -0.021661     0.95439    -0.07428   -0.063237
-0.052843   -0.019712   -0.028482   -0.032055       0.969    -0.08305    -0.06616
-0.056741   -0.013541   -0.030106   -0.038551     0.87838   -0.082076   -0.069733
-0.060313  -0.0063954   -0.024585   -0.042774     0.71857   -0.072656   -0.071032
-0.065835   0.0046481   -0.014191   -0.042449     0.53214   -0.053168   -0.064861
-0.069083    0.017965   0.0010752   -0.037902     0.36226    -0.03303   -0.052193
-0.064536    0.028359    0.013743   -0.027508     0.23396   -0.011592   -0.038876
-0.053492     0.03518    0.017316   -0.014191     0.15438    0.011794   -0.029782
-0.044398    0.037454    0.010819  -0.0021729     0.12548    0.037454   -0.027833
-0.047321    0.036804   0.0020496   0.0072465     0.13262     0.06019    -0.03303
-0.064536    0.033231  -0.0060706    0.013418     0.15731     0.06896   -0.044723
-0.088896    0.023487   -0.011917    0.016016     0.19206    0.062789   -0.055766
-0.11163    0.009845   -0.015165    0.019264     0.23461    0.049796   -0.063561
-0.12982  -0.0060706   -0.012892    0.021863     0.27651    0.037454   -0.067134
-0.13729    -0.02361  -0.0047713    0.020564     0.30932    0.029983   -0.068758
-0.12917   -0.042124    0.003024    0.015042     0.32751    0.025761   -0.073306
-0.10774   -0.054792   0.0059473   0.0065969     0.33238    0.024461   -0.081426
-0.084349   -0.060963  0.00042559  -0.0054209     0.32491    0.024137   -0.093444
-0.063886   -0.061937   -0.013216   -0.017764     0.30477    0.022188    -0.10514
-0.045697   -0.059339   -0.033354   -0.029782     0.27132    0.012443    -0.10774
-0.024909   -0.059014   -0.061613   -0.041799     0.22487  -0.0024977    -0.10579
0.0014   -0.068434   -0.095393   -0.053817      0.1716    -0.01484    -0.10351
0.033231     -0.0824    -0.12398   -0.064211     0.12418   -0.018738    -0.10254
0.073507   -0.088896    -0.13404   -0.070707    0.094295   -0.013541   -0.097341
0.11378   -0.078178    -0.11943   -0.065186    0.079679  -0.0021729   -0.084999
0.14204   -0.048296   -0.084999   -0.043423    0.076106    0.008221   -0.064861
0.14399  -0.0050961   -0.043748  -0.0083442    0.081303    0.016666   -0.041475
0.11768    0.041351  -0.0063954     0.02706    0.090072    0.022512   -0.019388
0.075131    0.077405    0.018615    0.054668    0.099817    0.025436  -0.0021729
0.029333    0.097543     0.02706     0.06961     0.10859    0.028684    0.010819
-0.0096434     0.10014    0.022188    0.077405     0.11866    0.033231     0.01764
-0.036602    0.089748    0.014392    0.079679     0.13197    0.035505    0.018615
-0.055766     0.06961    0.011469    0.078055     0.14107     0.03453    0.017965
-0.071032    0.044275    0.014392    0.073182     0.14107    0.031282    0.016991
-0.086623     0.01894    0.019589    0.066362     0.12515    0.022837    0.016341
-0.10384  -0.0044465    0.019264    0.056617    0.093321   0.0078962    0.010495
-0.12235   -0.027183    0.014068    0.047523    0.049147   -0.013216  -0.0011985
-0.13762   -0.046996   0.0062721    0.040377   0.0023744   -0.033354   -0.013541
-0.14996   -0.062912 -0.00087364    0.037129   -0.031406   -0.046022   -0.020687
-0.15743   -0.075904  -0.0054209     0.03583   -0.044398    -0.04992   -0.021986
-0.16263   -0.093444   -0.011267    0.034855   -0.035953   -0.048945   -0.022636
-0.16653    -0.11715   -0.024585     0.02706   -0.010943   -0.047971   -0.026858
-0.16718    -0.14054   -0.045697    0.009845    0.018615   -0.054142    -0.03303
-0.15613    -0.15418   -0.070707    -0.01549    0.041351   -0.067134   -0.038876
-0.12657    -0.14379   -0.092794   -0.038876    0.053044    -0.07493   -0.034004
-0.078178    -0.09994    -0.10091   -0.051868    0.055968   -0.068109   -0.016464
-0.020037   -0.022636   -0.082076   -0.050569    0.049796   -0.047321   0.0078962
0.037129    0.072533   -0.038551     -0.0405    0.031607   -0.020362    0.030957
0.074482     0.15763    0.013743   -0.029457   0.0062721   0.0039985    0.046548
0.0852      0.2135    0.058566   -0.024585   -0.016789     0.01829     0.05142
0.073832     0.23136    0.084551   -0.033354   -0.030756     0.01894    0.045899
0.055968     0.21577    0.084226   -0.055441   -0.036278    0.012443    0.029009
0.044924     0.17355    0.057267   -0.083375   -0.043748   0.0069217   0.0052977
0.049796     0.10924    0.014717    -0.10514   -0.068109   0.0078962   -0.016464
0.06961    0.027709   -0.031081    -0.11228    -0.12203    0.019914   -0.031081
0.090397   -0.059664    -0.07428    -0.11066    -0.20388    0.031282   -0.040175
0.093645    -0.13924    -0.10351    -0.10546    -0.29937     0.03583   -0.044398
0.078379    -0.19316    -0.11261   -0.094093    -0.38285    0.037778   -0.035953
0.057917    -0.21102   -0.098316   -0.074605    -0.44813    0.043625   -0.013216
0.046223    -0.19446   -0.064211   -0.047646    -0.50562    0.056942    0.016341
0.045574    -0.15223   -0.021661   -0.021337    -0.57124    0.076106    0.042651
0.042326   -0.095068    0.011469   0.0017248    -0.63685    0.099167    0.062139
0.031932   -0.028807     0.02641    0.020239    -0.67485     0.12548    0.076431
0.016991    0.037454    0.029658    0.034855    -0.65958     0.15666    0.090722
-0.0024977    0.091696    0.031932    0.054019    -0.58715     0.19628     0.10404
-0.029782      0.1206    0.037454    0.078055     -0.4647     0.24468     0.11801
-0.06551     0.11995    0.048172     0.10144    -0.31691     0.29048     0.12645
-0.10059     0.09397    0.062139     0.12125    -0.18342     0.31711     0.12483
-0.12755    0.055643    0.075781      0.1297   -0.096042     0.31224     0.11216
-0.14281     0.01894    0.082927      0.1232   -0.064536     0.27034    0.088124
-0.13859  -0.0034721    0.080003     0.10209   -0.072006     0.19693    0.058891
-0.11196  -0.0083442    0.066362    0.072208   -0.097666     0.10177    0.033881
-0.06551  0.00042559    0.044924    0.040052    -0.11683   -0.010618     0.01829
-0.016464    0.012768    0.019914    0.015042    -0.09182    -0.13145    0.012119
0.022837    0.023487  -0.0031473   0.0039985  -0.0063954    -0.24708    0.012768
0.049796    0.034206   -0.017114   0.0033489     0.11151    -0.34387     0.01894
0.06896    0.046873   -0.018738   0.0091954     0.19628    -0.42117    0.028359
0.083251    0.059541   -0.010293    0.015692     0.19174    -0.48581    0.033881
0.092996     0.06961   0.0017248    0.019589    0.090397    -0.54558    0.036154
0.097868    0.074806    0.012443    0.022837   -0.063886    -0.59852    0.032906
0.10306    0.071234    0.015692    0.021863    -0.20745    -0.64172    0.029009
0.11183     0.06019    0.014392    0.019589     -0.2971    -0.67225    0.027709
0.12613    0.050446    0.009845    0.015042    -0.31691    -0.68687    0.029658
0.14269    0.046548   0.0065969    0.016991    -0.27371    -0.68427    0.031607
0.15536    0.047523   0.0039985    0.022837    -0.18991    -0.66446    0.032582
0.15926    0.049147   0.0039985    0.028684   -0.088247    -0.63165    0.032906
0.14626    0.046548   0.0072465    0.029333      0.0014    -0.59365    0.031282
0.11378    0.038103    0.014392     0.02706    0.055643    -0.55207    0.030957
0.06084    0.023162     0.02706    0.024461    0.057592    -0.50692    0.032257
-0.0050961   0.0046481    0.036479    0.025761 -0.00054884    -0.45333    0.032582
-0.071357    -0.01614    0.032257    0.029009    -0.11228    -0.39389    0.031282
-0.1178   -0.039526    0.016016    0.031607     -0.2513    -0.33088    0.027385
-0.13469   -0.063561  -0.0015233    0.033556    -0.38057    -0.25877    0.022837
-0.11586   -0.081751   -0.012242    0.036479    -0.48386    -0.17757    0.025436
-0.070058   -0.086623   -0.018738    0.039078    -0.56571   -0.090845    0.038428
-0.011917   -0.076554    -0.02361    0.038428    -0.64172  -0.0057458    0.056617
0.045574   -0.057065   -0.026858    0.035505    -0.72779    0.070584     0.07773
0.092996   -0.029132   -0.029457    0.031932    -0.81971      0.1362    0.096569
0.12515   0.0056225   -0.028157    0.029658    -0.88727     0.19434     0.10729
0.13879    0.038753   -0.026533    0.024461    -0.89474     0.24598     0.10534
0.13749    0.061165   -0.026209    0.016341    -0.82069     0.29145    0.091372
0.12678    0.070584   -0.025234   0.0056225    -0.66673     0.32686    0.069934
0.11313    0.072858   -0.019712  -0.0011985    -0.45041     0.35024     0.05272
0.097868    0.070584   -0.010943   0.0020496    -0.20648     0.36259    0.049796
0.086824    0.066037   0.0020496    0.012768    0.029009     0.36941    0.059865
0.080653    0.057267    0.017316    0.028034     0.22292     0.37558    0.079354
0.074157    0.047198    0.029009    0.044275     0.35804      0.3837     0.10209
0.064737    0.039078     0.03518    0.058241     0.43794     0.39149     0.11931
0.053369     0.03453    0.038103    0.066362     0.48244     0.39734     0.12028
0.038428    0.030633    0.037129    0.068635     0.52142     0.39864     0.10696
0.026085    0.024461    0.033881    0.062464     0.57793     0.39247    0.086824
0.019914    0.015367    0.024786     0.05207     0.65621     0.38207    0.067986
0.021863   0.0036737    0.016666    0.037778     0.74488     0.36356    0.051745
0.029009  -0.0076946    0.012443    0.021863     0.82089      0.3366     0.03518
0.037129   -0.014191    0.014068   0.0052977     0.86994     0.30412    0.016666
0.042975   -0.013541     0.01829  -0.0093186     0.88553     0.27002 -0.00054884
0.047198   -0.010293    0.019589   -0.017114     0.87448     0.23818   -0.011267
0.045899  -0.0093186    0.015692    -0.01614      0.8485     0.20895   -0.014191
0.040052   -0.012567   0.0085458   -0.011592     0.82641     0.18362   -0.012567
0.032906   -0.019063   0.0033489   -0.010618     0.82024     0.16348   -0.013541
0.023162   -0.024585 -0.00022403    -0.01484     0.82901     0.14854   -0.019388
0.012443   -0.026858  -0.0018481   -0.021337      0.8368     0.13392   -0.029782
0.0023744   -0.024585  -0.0031473   -0.027183     0.81569     0.11638   -0.043099
-0.0054209   -0.019388  -0.0024977   -0.031081     0.72475    0.091696   -0.055441
-0.01549    -0.01484  -0.0015233   -0.032705     0.52954    0.057917   -0.064861
-0.028482    -0.01549  -0.0044465   -0.033679     0.25085    0.014392   -0.071032
-0.041475   -0.019712   -0.010293   -0.037252   -0.034004   -0.033679   -0.075255
-0.048945   -0.022961    -0.01484   -0.044073    -0.22791   -0.074605   -0.077203
-0.052193   -0.024585   -0.017764   -0.050569    -0.27176    -0.10351   -0.079152
-0.051544   -0.025884   -0.021661   -0.055116    -0.17887    -0.11326   -0.081751
-0.047646   -0.025559   -0.027508   -0.057715    -0.01614    -0.10384   -0.084024
-0.039526   -0.024585   -0.035628   -0.058365     0.13782   -0.080451   -0.085648
-0.030756   -0.026533   -0.045372   -0.054142     0.23234   -0.052518   -0.085648
-0.02361   -0.032055   -0.049595    -0.04862     0.25897   -0.027508   -0.081426
-0.018738   -0.039201   -0.046347   -0.043099     0.23916  -0.0050961    -0.07428
-0.016789   -0.043748   -0.038551   -0.039201     0.20505     0.01829   -0.067784
-0.012892   -0.037577   -0.028807   -0.035628     0.18459    0.043625   -0.064211
-0.0067202   -0.021012    -0.01614   -0.029782     0.18784    0.067011   -0.062587
0.0023744      0.0014  -0.0015233   -0.020362     0.21707    0.084226    -0.05739
0.008221    0.023812    0.011469   -0.010618     0.26319    0.095919   -0.046347
0.01017    0.038103    0.017965   0.0017248     0.30867     0.10404   -0.032055
0.012768    0.039078    0.016016    0.017316      0.3379     0.11411   -0.016789
0.013418    0.031607    0.009845    0.029983     0.33823     0.12385  -0.0021729
0.0095202    0.018615   0.0036737    0.035505     0.30932     0.13295    0.012443
0.0023744    0.008221  0.00075039    0.035505     0.25605     0.13912    0.023812
-0.0031473   0.0039985   0.0036737    0.033231     0.18394     0.13717    0.030308
-0.0080194   0.0072465    0.009845    0.031607    0.080978      0.1232    0.029658
-0.0093186    0.015692    0.014717    0.032257   -0.076554    0.094945    0.027709
-0.0099683    0.024461    0.019264    0.033556    -0.28281    0.060515    0.029009
-0.013216     0.03453    0.023162    0.036479     -0.5092    0.029983    0.030308
-0.019712    0.042001     0.02641    0.037129    -0.71188     0.01017    0.029983
-0.028157    0.046548    0.029658     0.03518    -0.84115  0.00042559    0.025111
-0.038551    0.040377    0.028684    0.025111    -0.86811  -0.0054209    0.014068
-0.048296    0.023487    0.022837   0.0091954     -0.7973   -0.014191   0.0023744
-0.052843   0.0026992    0.012119  -0.0073698    -0.66543   -0.025559  -0.0044465
-0.050244   -0.017439  0.00075039   -0.020037    -0.52316   -0.039851  -0.0037969
-0.045047   -0.036602  -0.0073698   -0.025559    -0.41078   -0.055116 -0.00022403
-0.044073   -0.052518  -0.0057458   -0.026209      -0.339   -0.072331   0.0059473
-0.050894   -0.062587   0.0039985   -0.022961    -0.29417   -0.088896    0.012443
-0.069408   -0.066485    0.016341   -0.021012    -0.25715    -0.10741    0.012768
-0.095717   -0.067459    0.024137   -0.022311    -0.19316    -0.13372  0.00010078
-0.12235   -0.067134    0.023487   -0.021986   -0.064211    -0.17107   -0.025884
-0.14379   -0.067459   0.0095202   -0.023935     0.14659    -0.21557   -0.060313
-0.15905   -0.070382   -0.012567   -0.031406     0.42527    -0.25715   -0.093119
-0.16523   -0.077203   -0.038227   -0.045047      0.7228    -0.28638    -0.12008
-0.15808   -0.083375   -0.055766   -0.059664     0.97485    -0.29417    -0.13437
-0.12982   -0.077853   -0.058689   -0.063886      1.1126    -0.27696    -0.13437
-0.072331    -0.04927   -0.049595   -0.054792      1.0879    -0.23928    -0.11326
0.011794   0.0052977   -0.032705   -0.035628     0.89884    -0.18894   -0.075904
0.10371    0.072858   -0.013216  -0.0093186     0.57923    -0.13534   -0.034654
0.1781     0.13295   0.0052977    0.017316     0.18784   -0.086948  0.00010078
0.21123     0.16738     0.01764    0.038103    -0.20323   -0.047321    0.020888
0.19661     0.16868    0.024461    0.050771    -0.53713    -0.01549    0.030633
0.14756     0.13847    0.028359    0.055643    -0.78106   0.0088706     0.03583
0.090722    0.083251    0.027709    0.055643    -0.93145    0.028034    0.040377
0.046873    0.014717    0.022512    0.056617     -1.0006    0.040052    0.044924
0.029983   -0.046996    0.016016    0.061165    -0.99836    0.045249    0.047198
0.042975   -0.084674    0.009845    0.065712    -0.93275    0.041027    0.044924
0.067661   -0.087597   0.0023744    0.067661    -0.81776    0.026735    0.037778
0.084226   -0.062587  -0.0083442    0.061165    -0.67225    0.009845    0.029333
0.082602    -0.03173   -0.022636    0.045899    -0.51927 -0.00087364    0.027385
0.065062   -0.016464   -0.036278    0.028034      -0.377  0.00010078     0.03453
0.039078   -0.022961   -0.045372    0.016016     -0.2591   0.0085458    0.048172
0.011144   -0.037902    -0.04992    0.014717    -0.17302    0.019264    0.061814
-0.010618   -0.039851   -0.050894    0.022188    -0.11618    0.031932    0.069934
-0.021337   -0.015815   -0.046347    0.033231   -0.082725    0.043625    0.066686
-0.019388    0.030633   -0.038227    0.045574   -0.064861    0.048497    0.054019
-0.013541    0.084876   -0.027508    0.054993   -0.051868    0.042975     0.03453
-0.0089938      0.1297   -0.014516    0.058566   -0.037252    0.030633    0.016666
-0.0044465     0.15568    0.003024    0.063113   -0.022636    0.014068   0.0036737
0.0014     0.15893    0.019589    0.070259  -0.0083442   0.0020496  -0.0034721
0.008221     0.14724    0.030308    0.072208   0.0065969  -0.0024977  -0.0076946
0.012443      0.1284    0.030308    0.066686    0.024461  0.00075039   -0.010293
0.011144     0.10501    0.019264    0.056942    0.042326   0.0072465   -0.011592
0.0059473    0.079354   0.0026992    0.045899    0.064413    0.016991   -0.013541
-0.00054884    0.055643   -0.013541    0.039727    0.094295    0.028034   -0.018413
-0.0089938    0.037778   -0.023285    0.042326      0.1349    0.041351   -0.024909
-0.021012     0.02641   -0.018738    0.053044     0.18427    0.054344   -0.027833
-0.036278    0.022512  -0.0047713    0.064737     0.23429    0.064413   -0.025559
-0.056416    0.023812    0.012119    0.067986     0.27326     0.06961   -0.022636
-0.076554    0.029983     0.02706    0.060515      0.2921    0.067336   -0.022961
-0.088896    0.036154    0.037454    0.045249     0.28431    0.058891   -0.028482
-0.092145    0.037129    0.040052    0.029009     0.25735    0.043625   -0.034329
-0.084349    0.033881    0.036154    0.015367      0.2135    0.023162   -0.035953
-0.071682    0.027385    0.029009   0.0059473      0.1625   0.0046481   -0.034654
-0.05739    0.018615    0.020239   0.0017248     0.11963  -0.0057458   -0.034329
-0.043423   0.0052977    0.013418      0.0014     0.10047  -0.0093186   -0.033679
-0.03238   -0.011592   0.0088706    0.003024     0.10696  -0.0054209   -0.026533
-0.026858   -0.025884    0.009845   0.0049729     0.11671   0.0036737   -0.011917
-0.029457   -0.034978    0.016341   0.0091954    0.092671    0.014717   0.0056225
-0.038551   -0.032705    0.027709    0.014392   0.0069217    0.027385    0.018615
-0.046671   -0.022636    0.039402    0.020239    -0.14509    0.038103    0.029658
-0.046996  -0.0099683    0.047523    0.024461    -0.33932    0.033881    0.039727
-0.035303  -0.0011985     0.05207    0.025111    -0.51894    0.010495    0.050121
-0.017114   0.0026992     0.05272     0.01764    -0.62256   -0.025884    0.059216
0.0039985   0.0023744    0.048172  0.00075039    -0.61736   -0.061937    0.061489
0.020239  0.00075039    0.039078   -0.018738    -0.51992   -0.087597    0.057917
0.029658  -0.0018481    0.023162    -0.03303    -0.37213   -0.097666    0.052395
0.032582  -0.0083442 -0.00087364   -0.037577    -0.21395   -0.092469    0.044924
0.027385   -0.019388   -0.028482   -0.033354    -0.07493   -0.073631    0.036804
0.018615    -0.03238   -0.050894    -0.02361    0.035505   -0.046022    0.029333
0.011144   -0.042774   -0.060963   -0.012242     0.11476   -0.017114    0.024137
0.0043233   -0.047646   -0.056091   0.0033489     0.16121    0.009845    0.021213
-0.007045   -0.044723   -0.035628    0.022188     0.17322    0.028684    0.016341
-0.026858   -0.037252  -0.0037969    0.039078     0.15568    0.034206     0.01017
-0.054142   -0.029782    0.027385    0.049472     0.11898    0.019914      0.0014
-0.082076   -0.023935    0.045574    0.048822    0.080328    -0.01549  -0.0073698
-0.10676   -0.024909    0.039402    0.037778    0.056942   -0.062587   -0.018088
-0.11878   -0.035953    0.011469    0.020239    0.057267    -0.10774   -0.026209
-0.11228   -0.054142   -0.023285    0.003024    0.074806    -0.13437   -0.028157
-0.0837   -0.072331   -0.050894  -0.0096434    0.098842    -0.14087   -0.020687
-0.035628   -0.079152   -0.064211    -0.01484     0.11313    -0.13437  -0.0028225
0.028684   -0.068758   -0.060313   -0.017764     0.10177    -0.12203     0.01829
0.097543   -0.035953   -0.044398   -0.021337    0.053369    -0.11163    0.033881
0.15731    0.016991   -0.025234   -0.022636   -0.023285    -0.10838    0.041676
0.19563    0.084551  -0.0063954   -0.023285    -0.10351    -0.11131    0.040702
0.20895     0.15276    0.013418   -0.024585      -0.161    -0.11845    0.028684
0.19401     0.20278    0.029333   -0.026533    -0.17789    -0.12722   0.0075714
0.15276      0.2161    0.037129   -0.027833    -0.15646     -0.1295   -0.013216
0.10177     0.19011    0.032906   -0.030756    -0.11261    -0.12463   -0.023285
0.057917      0.1349    0.016991    -0.03303    -0.06616    -0.11131   -0.017114
0.030308    0.075131  -0.0028225   -0.032705    -0.03238   -0.090521 -0.00054884
0.01894    0.030308   -0.017764   -0.028482    -0.01549   -0.065186     0.01764
0.021213    0.012768   -0.024909   -0.019063  -0.0028225   -0.038876    0.028034
0.032257    0.021538   -0.023285  -0.0067202    0.013743   -0.018738    0.025761
0.040377    0.045574   -0.016464   0.0059473     0.03583   -0.007045    0.016666
0.038753    0.073507   -0.010618    0.014717    0.061489  -0.0015233   0.0065969
0.029983    0.092671  -0.0050961    0.016666    0.087474   0.0046481 -0.00087364
0.016016    0.096893   0.0039985    0.016991     0.10599    0.012119  -0.0063954
-0.0021729    0.089098    0.016016    0.022512     0.10469     0.01829  -0.0076946
-0.027833    0.072208    0.023162    0.029658    0.082277    0.020239  -0.0041217
-0.056416    0.051096    0.022188    0.032582    0.040052    0.020564   0.0017248
-0.084349    0.025111    0.013093     0.02641   -0.015165    0.022837   0.0039985
-0.10384  -0.0021729   0.0020496    0.013743    -0.06616    0.032906   0.0010752
-0.11456   -0.024909  -0.0034721  -0.0011985    -0.10416    0.050446   -0.007045
-0.11586   -0.040825  -0.0044465   -0.010943    -0.12398    0.071234    -0.01614
-0.10579    -0.04862  -0.0057458   -0.010943    -0.12138    0.090072   -0.024909
-0.081101   -0.047321  -0.0073698  -0.0041217   -0.089871     0.10501    -0.03303
-0.046671   -0.040825  -0.0093186   0.0049729   -0.028807     0.11183   -0.039201
-0.010618   -0.032705  -0.0089938    0.008221    0.043625     0.10826   -0.046671
0.020888   -0.025234  -0.0067202   0.0072465     0.10664     0.09462   -0.054467
0.046223   -0.022636 -0.00054884   0.0056225     0.14756    0.079354   -0.060638
0.06019   -0.026533   0.0072465   0.0059473     0.16543    0.067336   -0.063561
0.062789    -0.03303    0.014068    0.011469     0.16543    0.060515   -0.059339
0.056942   -0.036278     0.01764    0.018615     0.16088    0.056942   -0.050244
0.045574   -0.035953    0.019264    0.021538      0.1677    0.049796   -0.039201
0.029009   -0.029782    0.020239    0.022512     0.19206    0.039078   -0.030106
0.013418   -0.018413    0.021538    0.026735     0.22714    0.027385   -0.023935
0.0036737  -0.0044465    0.025111    0.033231     0.26352    0.023162   -0.013216
0.0049729   0.0069217    0.030957    0.041027     0.29633    0.031932   0.0072465
0.017965    0.011144    0.035505    0.045899     0.31906    0.051096    0.038428
0.039402   0.0095202    0.036804    0.048497     0.32621    0.071234     0.06961
0.062789   0.0043233    0.037454     0.05272     0.30672    0.081303    0.090072
0.080003  -0.0031473     0.03583    0.059216     0.24436    0.074157    0.095594
0.092346   -0.012892    0.033231    0.063763     0.13197    0.045574    0.088124
0.098517   -0.020687    0.025111     0.06019  -0.0063954   0.0017248    0.072858
0.098193   -0.026533    0.011794    0.049796    -0.13112   -0.044398    0.055643
0.092346   -0.027833  -0.0054209     0.03453    -0.20518   -0.078178    0.041351
0.080328   -0.025884   -0.020687    0.018615    -0.21687   -0.092469    0.027709
0.061489   -0.019063   -0.030431   0.0065969    -0.18439   -0.086298    0.014068
0.037129  -0.0083442   -0.036278   0.0036737    -0.14054   -0.067134   0.0010752
0.013743   0.0039985   -0.038551   0.0085458    -0.11033   -0.039201  -0.0060706
0.00075039    0.014068   -0.035628    0.018615    -0.10644  -0.0057458  -0.0021729
-0.0037969    0.022512   -0.028482    0.029333     -0.1243    0.027709    0.013418
-0.0037969    0.028359   -0.019712    0.037454    -0.15321    0.055643    0.036154
-0.011917    0.033881  -0.0096434      0.0433    -0.17562    0.072208    0.054993
-0.032705    0.037454  0.00075039    0.044275    -0.18179    0.074157     0.06019
-0.064211     0.03453   0.0033489    0.037778    -0.16782    0.059541     0.05272
-0.098641    0.020564  -0.0028225    0.022837    -0.13697    0.032257    0.039078
-0.1256  -0.0050961   -0.017114  -0.0041217    -0.10221  0.00010078    0.028034
-0.13664   -0.039851   -0.035953   -0.036602   -0.080451   -0.028807    0.023812
-0.12885   -0.074605   -0.053492    -0.06551    -0.09117   -0.045047    0.026085
-0.10806   -0.099615   -0.064861    -0.08305    -0.14346   -0.046671     0.02706
-0.081101    -0.10091   -0.065186   -0.084349    -0.22824   -0.039851     0.02641
-0.053168   -0.075579    -0.05739   -0.072331    -0.32406   -0.035628    0.022837
-0.03173   -0.032705   -0.044073   -0.058365     -0.4124   -0.043099    0.015692
-0.021012    0.017316   -0.029132   -0.052843    -0.47607   -0.063237   0.0039985
-0.018738    0.058241   -0.016464   -0.056416    -0.48581   -0.095393   -0.008669
-0.023285    0.076431   -0.011592   -0.063561    -0.41143     -0.1295   -0.015815
-0.029782    0.067011    -0.01484   -0.071357    -0.25455    -0.14964    -0.01484
-0.03303    0.034206    -0.02426   -0.076229    -0.06551    -0.14541  -0.0034721
-0.028807   -0.010293   -0.035953    -0.07493    0.074157    -0.11715    0.015692
-0.017114   -0.054467    -0.04115   -0.065186     0.11541    -0.07493    0.038753
-0.00022403     -0.0824   -0.037902   -0.051219    0.069934   -0.031081    0.059865
0.023162   -0.081426   -0.029457   -0.037252  -0.0076946   0.0033489    0.074157
0.049472   -0.047321   -0.016464   -0.024909   -0.062587    0.025761    0.079679
0.075456    0.016341   0.0017248   -0.010293   -0.067784    0.038428    0.078704
0.10014    0.095269    0.025436    0.009845   -0.025884    0.045574    0.072858
0.1297     0.16933    0.051096    0.031932    0.044599    0.051745    0.062789
0.15926     0.22097    0.073182    0.048172     0.12255    0.053044    0.050446
0.18459     0.23981    0.083576    0.050121     0.19369    0.048822    0.032906
0.19953     0.22422    0.076755     0.03583     0.25248     0.03583   0.0088706
0.20376     0.17972    0.050446    0.011144     0.29535    0.015692    -0.01549
0.19369     0.11703   0.0095202    -0.01484     0.32848  -0.0073698   -0.037902
0.16413    0.042975   -0.036278   -0.031081     0.36226   -0.023935   -0.055441
0.12288   -0.031406   -0.071682   -0.032705     0.39961   -0.025234   -0.061613
0.0852    -0.10124     -0.0837   -0.017114     0.44379  -0.0080194   -0.049595
0.058891    -0.15678   -0.071032    0.010495     0.50258    0.023812   -0.018413
0.038428    -0.19348   -0.041799     0.04395     0.58605    0.062789     0.01829
0.017316    -0.20063  -0.0067202    0.076106     0.68674    0.098517    0.050771
-0.011267    -0.17367    0.026085     0.10371     0.76177     0.12255    0.070909
-0.045372     -0.1191    0.048822     0.12385     0.75625     0.12255    0.073832
-0.080127   -0.054142    0.057267     0.13197     0.64549    0.092346    0.057917
-0.11488  -0.0034721     0.05272     0.12678     0.46263    0.036804    0.029333
-0.14866    0.012119    0.041351     0.11313     0.27391   -0.026858  -0.0050961
-0.17984  -0.0099683    0.028359    0.097218     0.14139   -0.078503   -0.034329
-0.19901   -0.052843    0.017965    0.079354    0.074482    -0.10709   -0.046996
-0.19771   -0.097991     0.01017    0.063438    0.032906    -0.11488   -0.042774
-0.17659    -0.12495   0.0052977    0.053369   -0.038551    -0.10741   -0.026533
-0.14769    -0.12203   0.0065969    0.048497    -0.17075   -0.090521 -0.00022403
-0.1204   -0.094743    0.011794    0.047198    -0.36336   -0.067784    0.031282
-0.097991   -0.058365    0.019589    0.045899     -0.5904   -0.037577    0.062464
-0.07428   -0.026533    0.028359    0.044275    -0.80737  0.00010078    0.089098
-0.041475  -0.0089938    0.035505    0.040377    -0.97757    0.046873     0.11248
-0.0034721  -0.0063954    0.038753     0.03518     -1.0757     0.10306     0.13295
0.030957  -0.0089938    0.036154    0.028359     -1.0916     0.16023     0.14659
0.046223  -0.0050961    0.031282    0.016666     -1.0237     0.20343     0.14399
0.038753   0.0075714     0.02641   0.0039985    -0.87363     0.22194     0.12288
0.011144    0.024137    0.022837   -0.008669    -0.65861     0.21155      0.0852
-0.026209    0.029983    0.017965    -0.02361    -0.40396     0.18167    0.038753
-0.061288    0.016991    0.008221   -0.044073    -0.13892     0.14042   -0.010618
-0.079152   -0.010293   -0.012242    -0.06551     0.11054    0.094945   -0.050569
-0.071357   -0.043423   -0.042124   -0.081751     0.32783    0.053694   -0.079802
-0.038227   -0.068109   -0.072331   -0.087597      0.5081     0.01829   -0.095068
0.013418   -0.069408   -0.088247   -0.083375     0.66758   -0.012567    -0.10156
0.06831   -0.038551   -0.079802   -0.069083     0.81797   -0.045047    -0.10254
0.11541    0.015692   -0.047321   -0.046347     0.95828   -0.080776    -0.10091
0.14464    0.073832  -0.0041217   -0.020037      1.0684    -0.11553   -0.098316
0.15179     0.11671    0.031932  0.00075039      1.1145    -0.14152   -0.096692
0.14107     0.13392    0.054019    0.015367      1.0681    -0.15223    -0.09182
0.12125     0.13002    0.065712    0.024461     0.90664    -0.14736   -0.082076
0.10209     0.11963    0.071883    0.029009     0.62828    -0.13404   -0.067784
0.084226     0.11313    0.072208    0.033556     0.27326    -0.12008   -0.055441
0.061814     0.10696    0.065712    0.039727   -0.089546    -0.10806   -0.044723
0.031607    0.098517     0.05207    0.045249    -0.38155    -0.10319   -0.034329
-0.0021729      0.0852    0.037129    0.044924    -0.55532    -0.10838   -0.025234
-0.027183    0.067336    0.025111    0.040377    -0.61184    -0.12333   -0.017114
-0.038227    0.048822    0.021863     0.03453     -0.5852    -0.14736   -0.008669
-0.033679    0.036154    0.022188    0.028684    -0.52089    -0.17594 -0.00022403
-0.020687    0.027385    0.024137    0.023162    -0.46892    -0.20258    0.008221
-0.0031473     0.01829    0.029333    0.018615      -0.466    -0.22467    0.013743
0.011144     0.01017    0.034855    0.011144    -0.52446    -0.23831    0.015042
0.017316    0.003024    0.036479 -0.00022403     -0.6323    -0.24773    0.010819
0.016666 -0.00087364    0.030633   -0.015815     -0.7515    -0.25357 -0.00054884
0.013093  -0.0024977    0.014717   -0.029457    -0.83465     -0.2526   -0.017439
0.0088706  -0.0015233 -0.00054884   -0.036602     -0.8496    -0.24026   -0.037252
0.0052977    0.003024  -0.0099683   -0.036602    -0.78723    -0.21687   -0.053168
0.00010078    0.008221   -0.012567   -0.031081    -0.65536    -0.18114   -0.063561
-0.0057458    0.014717  -0.0096434   -0.022311    -0.48321    -0.13567   -0.071032
-0.0096434    0.021213   -0.007045   -0.015165    -0.30262   -0.086623   -0.072331
-0.011592    0.023487  -0.0041217   -0.007045    -0.14411   -0.036602    -0.06681
-0.0093186    0.020888  -0.0028225 -0.00022403   -0.019712    0.011794   -0.056091
-0.0031473    0.015692  -0.0024977   0.0033489    0.070584    0.054993   -0.042124
0.003024    0.011144  -0.0018481   0.0017248     0.13782    0.089748   -0.028157
0.0065969   0.0085458 -0.00022403 -0.00022403     0.19434     0.11573   -0.014191
0.009845    0.010495   0.0036737   0.0010752     0.24825     0.13392  0.00010078
0.017965    0.019264   0.0059473   0.0052977      0.3038     0.14919    0.011794
0.030308    0.031282   0.0069217    0.012119     0.35966     0.16185    0.016666
0.040377    0.044275   0.0091954     0.01894     0.41553     0.17647    0.013743
0.041676     0.05142    0.012768    0.023487      0.4701     0.19239   0.0095202
0.037129     0.05207    0.016341     0.02706     0.52044     0.20116   0.0091954
0.030633    0.050121    0.016666    0.028034      0.5552     0.19499    0.012119
0.023162    0.046548    0.015367    0.026735     0.55747      0.1755     0.01764
0.017316    0.042975    0.013418    0.023162     0.51622     0.14789    0.021213
0.013093    0.040702    0.013743    0.017965     0.43599     0.11638    0.020239
0.013093    0.040702    0.016991    0.014392     0.33303    0.084226    0.016016
0.015042    0.047198    0.022512    0.012768     0.22324    0.056942    0.012119
0.012443    0.057592    0.021213    0.012443     0.12158    0.036479   0.0075714
0.0085458     0.06896     0.01017    0.012443    0.036154    0.022837   0.0026992
0.0036737    0.073832  -0.0063954    0.010819   -0.036278    0.013418  0.00010078
0.0014     0.06961   -0.022961    0.009845    -0.11131   0.0075714   0.0020496
0.0043233    0.056292    -0.04115    0.011794    -0.19478   0.0056225   0.0091954
0.009845    0.037778   -0.059014     0.01894    -0.27534    0.011144    0.017965
0.015692     0.01894   -0.070382     0.02706    -0.33185    0.023162    0.029009
0.016666   0.0026992   -0.072006    0.032906    -0.34842    0.041351    0.040702
0.011144   -0.010293   -0.064861    0.036154    -0.31951    0.062464    0.049147
-0.00054884   -0.016789   -0.051219    0.039402     -0.2513    0.083576    0.054019
-0.010293   -0.021012   -0.039526    0.041676    -0.15158    0.096244    0.058891
-0.01549   -0.025234   -0.031406    0.040702   -0.024585    0.097868    0.060515
-0.015165   -0.027183   -0.025234    0.036804     0.11898    0.092346    0.054344
-0.010293   -0.027833   -0.017764    0.033881      0.2606      0.0852    0.043625
-0.0034721   -0.025559  -0.0080194    0.032906      0.3785    0.082602    0.029983
0.0043233   -0.020037      0.0014     0.03453     0.45093    0.081303    0.016991
0.010819   -0.012242   0.0039985    0.037129     0.46782     0.07773    0.009845
0.019264  -0.0057458  -0.0044465    0.038428     0.43047    0.069285   0.0065969
0.029658 -0.00087364   -0.019712     0.03583      0.3444    0.064088    0.003024
0.042001   0.0039985    -0.03238    0.032257     0.21415    0.066686  -0.0037969
0.053369   0.0088706   -0.039201    0.031607    0.044275    0.070259  -0.0076946
0.059865    0.015692   -0.038227    0.031282    -0.15093    0.067011  -0.0063954
0.054344    0.031282   -0.027833    0.024786    -0.34095     0.05207  -0.0067202
0.033231    0.054344   -0.011917    0.014717    -0.48744    0.026085   -0.014191
-0.0018481    0.080328   0.0078962   0.0078962    -0.55759  -0.0041217   -0.028157
-0.048945     0.10014    0.029009    0.009845    -0.54298   -0.027183   -0.041799
-0.10384     0.10696    0.045899    0.019914    -0.46178   -0.029782    -0.04992
-0.15776    0.097868    0.052395    0.029658    -0.33997 -0.00022403   -0.052843
-0.19738     0.07708      0.0433    0.032906     -0.2029    0.059541   -0.053168
-0.2146    0.048497    0.018615    0.024461   -0.063886     0.12548   -0.053168
-0.20745    0.013093   -0.014191    0.010495    0.073182     0.17647   -0.053817
-0.17952    -0.02361   -0.048945  -0.0024977     0.20408     0.20083   -0.053168
-0.13632   -0.057065   -0.078503   -0.010943     0.32198     0.19758   -0.050244
-0.085648   -0.083375   -0.098965    -0.01549     0.41228     0.16933    -0.04927
-0.037902   -0.096367    -0.10774   -0.019712     0.46912     0.12288   -0.050244
0.00010078   -0.095717    -0.10189   -0.027508     0.51817    0.061814   -0.051219
0.022512   -0.084674   -0.084674   -0.036602     0.59352  -0.0076946   -0.046022
0.02641   -0.071032   -0.059339   -0.042774     0.69162   -0.076554   -0.034978
0.016666    -0.05804   -0.031081   -0.041475     0.77737    -0.13729   -0.021986
0.0033489   -0.039526  -0.0060706   -0.034004     0.81082    -0.18244  -0.0099683
-0.0067202   -0.017439    0.013093   -0.024585     0.77444    -0.21005   0.0026992
-0.01484   0.0056225    0.024786   -0.013216     0.68025    -0.22304    0.021863
-0.024585    0.024786    0.031607  -0.0024977     0.55844    -0.22564    0.046223
-0.034978    0.037778    0.034855   0.0039985     0.42852    -0.22726     0.06961
-0.042124    0.044599    0.033556   0.0091954      0.3025    -0.23084     0.08585
-0.040825    0.044599    0.030957    0.013093     0.18102    -0.23896    0.093321
-0.033354    0.035505    0.028684    0.016991    0.050771    -0.24773    0.095919
-0.018738    0.017316    0.025111    0.020239   -0.095068     -0.2578    0.095594
0.0049729  -0.0031473     0.01894    0.021863    -0.24805    -0.26429    0.092346
0.034206   -0.014191    0.011144    0.021538    -0.39616    -0.26429    0.081627
0.064413  -0.0096434  0.00075039    0.018615    -0.52674     -0.2552    0.067336
0.093645    0.009845   -0.007045    0.015367    -0.63165    -0.23571    0.049796
0.12093    0.036479   -0.011592    0.011144    -0.70928    -0.20518    0.035505
0.13717    0.057592   -0.011592   0.0059473    -0.76515     -0.1675    0.022512
0.13555    0.066037  -0.0063954   0.0046481    -0.80607    -0.12495    0.014068
0.11736    0.059865   0.0020496   0.0069217    -0.83141   -0.080776   0.0088706
0.089748    0.043625    0.014717    0.009845    -0.84212   -0.038551   0.0091954
0.06019    0.029009    0.029009    0.013093    -0.83595   0.0017248    0.011469
0.037778    0.023812    0.037129    0.014068    -0.81419    0.036479    0.014392
0.027709    0.024137    0.034855    0.013743    -0.78269    0.060515    0.017316
0.031282    0.021863    0.024461    0.012443    -0.74208    0.072858    0.019264
0.043625   0.0052977    0.011794    0.012443    -0.67745    0.078379    0.020564
0.058891   -0.022636   0.0033489    0.016016    -0.56441    0.085525     0.01764
0.070909   -0.052193  0.00042559    0.022512    -0.39487    0.097868    0.012768
0.078379   -0.070382   0.0039985     0.02641    -0.18764     0.11183   0.0065969
0.081303   -0.069083    0.010495    0.021538    0.019914     0.11768 -0.00054884
0.072858    -0.04927    0.014392   0.0085458     0.18557     0.10696   -0.010618
0.046873   -0.019388     0.01764   -0.008669     0.28203    0.083251   -0.019063
0.0036737   0.0056225    0.024137   -0.021986     0.29892     0.05142   -0.027183
-0.047971    0.015692    0.033231   -0.028157     0.25313    0.016341   -0.032055
-0.10189    0.011469    0.037778   -0.027508     0.17745   -0.015165   -0.035953
-0.14866  -0.0028225    0.034855   -0.022311     0.10242   -0.036602    -0.04115
-0.18049   -0.026858    0.024137   -0.018088    0.040052   -0.043423   -0.045047
-0.18861   -0.059664    0.009845   -0.016789  -0.0083442   -0.035303   -0.044073
-0.1662   -0.092145  -0.0044465   -0.017114   -0.036278   -0.021337   -0.030756
-0.11715    -0.11423  -0.0093186   -0.012567   -0.036927  -0.0054209  -0.0089938
-0.055766    -0.11456  -0.0067202  -0.0034721  -0.0093186   0.0091954    0.011469
0.00042559   -0.090845 -0.00022403   0.0052977    0.038103    0.023812    0.020239
0.039402   -0.048296   0.0039985    0.011469    0.092346    0.036479    0.016016
0.065062  -0.0011985   0.0052977    0.012119     0.13912    0.045574   0.0017248
0.080653    0.037778   0.0036737   0.0065969      0.1716    0.052395   -0.011267
0.088448    0.061814   0.0017248  -0.0028225     0.19174    0.057592   -0.011917
0.092671    0.071558   0.0033489   -0.011267     0.20538    0.065062   0.0033489
0.092671    0.069934   0.0072465    -0.01484      0.2122    0.072533    0.024137
0.084551    0.065387    0.010495   -0.010943     0.21123    0.076106    0.037454
0.062464    0.059541    0.011469 -0.00022403     0.20148    0.075131    0.033881
0.028034    0.050446    0.010819     0.01017     0.18037    0.069285    0.016016
-0.0060706    0.036154    0.010495    0.015367     0.14626     0.06084   -0.007045
-0.026209    0.013093   0.0049729    0.012443     0.10339    0.049796   -0.025559
-0.023935   -0.019063  -0.0034721   0.0049729    0.058566    0.042326   -0.031081
-0.00054884   -0.059989    -0.01484  -0.0037969    0.017965    0.040377   -0.022636
0.034206   -0.097666   -0.028807   -0.012242   -0.012567    0.047198  -0.0021729
0.062139    -0.11586   -0.042774   -0.014516   -0.031406    0.064413    0.024461
0.076755    -0.09929   -0.047971  -0.0099683   -0.042449    0.090722    0.054344
0.079354   -0.047321   -0.041475 -0.00054884   -0.046022     0.11995    0.082277
0.074482    0.027709   -0.028157     0.01017   -0.038551     0.14432     0.10436
0.06084    0.096569   -0.010293    0.018615   -0.013216     0.15698     0.11703
0.042651     0.13652   0.0091954    0.023162    0.037454     0.15309     0.11931
0.024461     0.13879    0.025111    0.028034     0.12255     0.13457     0.10729
0.011469     0.10989    0.036154    0.036804     0.23916     0.10566    0.082602
0.0075714    0.069934    0.039402    0.050446     0.36551    0.073507    0.047847
0.01017    0.041676    0.038753    0.061165     0.47367    0.048172    0.015692
0.018615    0.034206    0.039078    0.063113     0.54285    0.030633  -0.0041217
0.029983     0.04395    0.038428    0.057917     0.56364     0.01829  -0.0099683
0.046223    0.056292    0.032582    0.049472     0.54383   0.0033489  -0.0050961
0.066037    0.056617    0.018615    0.040377     0.49283   -0.018088 -0.00054884
0.083901    0.037454  -0.0034721    0.029983     0.41618   -0.046022  -0.0028225
0.088448  -0.0011985   -0.030756     0.01764     0.30282   -0.076879   -0.015815
0.076106   -0.055116   -0.063561   0.0078962     0.11995    -0.10709    -0.03303
0.057917    -0.10611   -0.095393   0.0033489    -0.16198    -0.13015   -0.044398
0.045574    -0.13924    -0.11391   0.0052977    -0.52641    -0.14216   -0.044073
0.042326    -0.14541    -0.11163   0.0095202    -0.90709    -0.14314   -0.029132
0.039078    -0.12365   -0.088247    0.015692     -1.2088    -0.13827  -0.0083442
0.025436   -0.082725   -0.051868    0.020888     -1.3466    -0.13632   0.0095202
-0.0024977   -0.038551    -0.01484    0.024461     -1.2858    -0.14346    0.012768
-0.034654  -0.0037969   0.0088706    0.024461     -1.0536    -0.16003 -0.00022403
-0.057715    0.014392    0.012768    0.016666     -0.7174    -0.18082   -0.020687
-0.064861    0.015692   0.0049729   0.0023744    -0.35881    -0.19348   -0.038876
-0.064211     0.01017 -0.00087364   -0.010293   -0.047971    -0.18731   -0.048296
-0.073306   0.0046481   0.0043233   -0.013216      0.1781    -0.16068   -0.046022
-0.098316   0.0059473    0.017965  -0.0041217     0.31484    -0.11813   -0.029782
-0.12885    0.014068    0.036479    0.015367      0.3824   -0.068758 -0.00087364
-0.14931    0.024137    0.053369    0.034206     0.40449   -0.022636    0.030633
-0.15451    0.029983    0.060515    0.041027     0.40124    0.010495     0.05207
-0.14087    0.027385     0.05272    0.036479     0.38565    0.026085    0.054993
-0.11553     0.01894    0.031932     0.02641     0.37038     0.02706    0.042001
-0.085648   0.0095202   0.0043233    0.017316     0.36583    0.016016    0.022837
-0.059014   0.0023744   -0.017439    0.013093     0.37428      0.0014   0.0078962
-0.039201  -0.0028225   -0.027183    0.013418      0.3837   -0.010293  0.00075039
-0.030756  -0.0057458   -0.026533    0.016666      0.3772   -0.018413  -0.0044465
-0.036602   -0.012242   -0.022636    0.020564     0.34017   -0.021986   -0.012242
-0.054142    -0.02426   -0.020037    0.023162     0.27424   -0.017764   -0.023285
-0.070707   -0.036278   -0.020037    0.022512     0.18492  -0.0034721   -0.026209
-0.07428     -0.0405   -0.020037    0.019914    0.081952    0.020564   -0.017764
-0.058689    -0.03173   -0.012567    0.015692   -0.018738    0.051096      0.0014
-0.029457  -0.0073698   0.0043233    0.014068    -0.11521    0.082277    0.028684
0.0010752    0.030633     0.02706    0.020888    -0.21882     0.11021    0.056942
0.021538    0.071883    0.050121    0.033231    -0.33997     0.12483    0.078055
0.031607     0.10404    0.066362    0.044275    -0.47379      0.1245    0.086175
0.033556     0.12028    0.072858    0.046873    -0.58715     0.11606    0.081952
0.031607     0.11963    0.071558    0.041351    -0.64009     0.11151    0.070909
0.031932     0.10826    0.066037    0.032582    -0.60404     0.11313    0.057592
0.036479    0.092021    0.055318    0.029333    -0.48516     0.11898    0.045249
0.044924    0.071883    0.039402    0.031932    -0.30782      0.1232     0.03453
0.055968    0.046548    0.024786    0.037778    -0.10903      0.1206    0.024786
0.071883    0.013418    0.014068    0.039402     0.07773     0.11086    0.019589
0.092021   -0.026209    0.010819    0.037129     0.23266    0.091047    0.019914
0.11248   -0.065835   0.0088706    0.028684     0.35609    0.056292    0.022512
0.12678   -0.095717   0.0056225    0.016016     0.44931     0.01017    0.025436
0.12385    -0.10709  -0.0018481   0.0023744     0.50615   -0.037252    0.024137
0.10079   -0.095393  -0.0089938   -0.008669     0.50972   -0.075904    0.016341
0.061489    -0.06616   -0.012242   -0.013216     0.44866    -0.10124   0.0056225
0.012768   -0.029782   -0.010943   -0.011592     0.32913    -0.11261  -0.0028225
-0.034978   0.0017248  -0.0021729   -0.011917     0.16965    -0.12073  -0.0096434
-0.070382    0.022188    0.012768   -0.011917   -0.013541    -0.13437    -0.01614
-0.084999    0.034206    0.027385   -0.012242    -0.21492    -0.15516   -0.025884
-0.083375    0.039078    0.036154   -0.010293    -0.42832    -0.17984   -0.037902
-0.07493    0.040052    0.039078  -0.0031473    -0.64367     -0.2081   -0.054792
-0.06616    0.036479    0.036804    0.003024    -0.85057    -0.24156   -0.072656
-0.059339    0.030308    0.030308   0.0043233     -1.0152    -0.28118   -0.085648
-0.054467    0.020564    0.018615 -0.00087364     -1.0701    -0.31496   -0.090196
-0.050244    0.009845   0.0046481   -0.010293    -0.96425    -0.33218   -0.086623
-0.043748  -0.0018481   -0.013216   -0.020362      -0.707    -0.32243   -0.075255
-0.035628   -0.013541   -0.029782   -0.026858    -0.36271    -0.28151   -0.057715
-0.026858   -0.026209   -0.040175   -0.026209  -0.0031473    -0.22077   -0.036278
-0.019712   -0.036278   -0.040825   -0.017439     0.30997    -0.15646   -0.017439
-0.019063   -0.039851    -0.03173  -0.0060706     0.53506    -0.10416  -0.0063954
-0.023935    -0.03303   -0.019388    0.003024     0.65426    -0.06551  0.00010078
-0.029132   -0.011917  -0.0063954   0.0072465      0.6796     -0.0405   0.0023744
-0.030431    0.022188   0.0078962   0.0072465     0.63802   -0.027183      0.0014
-0.025559    0.059216    0.017316   0.0036737     0.55844   -0.021986  -0.0018481
-0.017114     0.08585    0.019589  -0.0021729     0.46912   -0.018088  -0.0031473
-0.0080194    0.095919    0.014392   -0.010293     0.38272   -0.017114 -0.00022403
0.0010752    0.091372   0.0033489   -0.012892     0.30802   -0.018738   0.0023744
0.0062721    0.074806  -0.0060706   -0.011592     0.24436   -0.024585    0.003024
0.0049729    0.054019   -0.012242  -0.0089938     0.19109   -0.032705  -0.0024977
-0.00054884    0.033556   -0.015165   -0.010618     0.14594   -0.042124  -0.0096434
-0.0037969    0.020564    -0.01484   -0.012892     0.11021    -0.04927    -0.01549
-0.00054884    0.017965   -0.013541   -0.014191      0.0852   -0.051544   -0.015815
0.0065969    0.025761   -0.010943   -0.008669    0.073182   -0.043423   -0.011917
0.016991    0.036479  -0.0057458 -0.00022403    0.069934   -0.022961  -0.0024977
0.029333    0.041676  -0.0024977   0.0052977    0.073182   0.0059473   0.0069217
0.038753    0.037778  -0.0047713  0.00075039    0.079354    0.034206    0.014068
0.042975    0.027709   -0.014191  -0.0099683    0.090072    0.057592    0.015042
0.037778    0.016666   -0.022961   -0.018738     0.10826    0.081303    0.012443
0.024786   0.0072465   -0.026858   -0.020037     0.13652     0.10794   0.0095202
0.009845  -0.0011985   -0.028157   -0.010293     0.17355       0.131   0.0091954
-0.00022403   -0.008669   -0.025884   0.0049729      0.2161     0.14302    0.011794
-0.0011985   -0.016464   -0.023935    0.024786     0.25735     0.14756    0.016341
0.0036737   -0.021986   -0.022311    0.042975      0.2973     0.15309    0.023162
0.008221   -0.021986   -0.020362    0.055318     0.33628     0.15861    0.030957
0.015042   -0.013541   -0.017439    0.060515     0.37298     0.16478    0.039402
0.029658      0.0014    -0.01484    0.058891     0.40124     0.17127    0.047198
0.054668    0.015367   -0.014516    0.051745     0.41163      0.1755    0.056617
0.082602    0.023812   -0.012892    0.042651     0.37428     0.17257    0.067011
0.10371    0.027385  -0.0067202    0.033556     0.25345     0.16315     0.07708
0.11021    0.026735   0.0033489    0.023812     0.05142     0.15081    0.080328
0.10079     0.02641    0.014717    0.017316    -0.18829     0.14334    0.073832
0.082277    0.028034    0.025111    0.015042    -0.40006     0.14009    0.057592
0.060515    0.030957    0.033881    0.016666    -0.52284     0.13555    0.038103
0.038428    0.030633     0.03518    0.020239    -0.52414     0.12872    0.022188
0.01829    0.028359    0.025111    0.023812    -0.42507     0.12028    0.014392
0.0036737    0.023812   0.0046481    0.027385    -0.27923     0.11086   0.0085458
-0.00087364    0.016016    -0.01484    0.029333    -0.13534    0.096569   0.0039985
0.0043233   0.0043233    -0.02361    0.032257   -0.010943    0.078379  -0.0021729
0.011469  -0.0067202   -0.016464    0.036154     0.10112    0.057267  -0.0099683
0.011794   -0.010618  0.00010078    0.040052     0.21285    0.042001   -0.020037
0.0056225  -0.0044465    0.015042    0.046223     0.32328    0.040702   -0.030431
-0.0024977   0.0088706    0.020888    0.048497     0.41585    0.054668   -0.039526
-0.010293    0.021538    0.017316    0.040052     0.47205    0.074482   -0.044073
-0.014516    0.028034    0.008221    0.019914     0.47594    0.088448   -0.043748
-0.01549    0.021213  -0.0031473  -0.0083442      0.4204    0.090722   -0.043423
-0.011592   0.0026992   -0.014191   -0.037577     0.31289    0.079354   -0.046671
-0.0037969   -0.022311   -0.026858   -0.061613     0.18199    0.058241   -0.050894
0.0052977   -0.044398   -0.041799   -0.075904    0.067986    0.031282   -0.054142
0.016016   -0.053817    -0.05804   -0.079152   0.0043233   0.0072465   -0.059989
0.023487   -0.045372   -0.070058   -0.075904   0.0026992  -0.0067202   -0.070058
0.021213   -0.021986   -0.072656   -0.070382    0.049472  -0.0096434   -0.084024
0.0010752   0.0085458   -0.063886   -0.060313     0.11768   -0.007045   -0.097341
-0.035303    0.042326   -0.047646   -0.044723     0.16673  -0.0054209    -0.10644
-0.081426    0.071234   -0.026209   -0.025884     0.15601  -0.0083442    -0.10968
-0.12333    0.094295 -0.00087364  -0.0076946    0.072533   -0.016464    -0.10546
-0.15093     0.10664    0.023487   0.0059473   -0.064211   -0.028157   -0.086623
-0.16068     0.10274    0.038753    0.012119    -0.21655    -0.04115   -0.055441
-0.1597    0.078379    0.040702    0.011144    -0.34614   -0.051219   -0.023935
-0.15483    0.032906    0.028359    0.008221     -0.4228   -0.059664  -0.0073698
-0.15126   -0.034329   0.0085458   0.0072465    -0.43806   -0.062912  -0.0080194
-0.14541    -0.11358   -0.013541   0.0072465    -0.40266   -0.063237   -0.021986
-0.12592    -0.19316   -0.035628   0.0036737    -0.33835   -0.060313   -0.039201
-0.072006    -0.25455   -0.055116  -0.0034721    -0.27404   -0.055116   -0.048296
0.02706    -0.27274   -0.071357  -0.0089938    -0.23441   -0.045697   -0.040175
0.15536    -0.23214   -0.075579  -0.0057458    -0.23409   -0.032055   -0.011267
0.27944    -0.14314    -0.05804   0.0095202    -0.27534  -0.0096434     0.03583
0.36129    -0.03303   -0.018738    0.032582    -0.35069    0.022188    0.091047
0.37883    0.067011    0.031607    0.054668    -0.45203    0.061165     0.14237
0.3327     0.13717    0.078379    0.070584    -0.56506    0.094295     0.17874
0.24306     0.16803     0.10501    0.079354    -0.68752     0.11248     0.19141
0.14269     0.16478     0.10664    0.080328    -0.82491     0.10729     0.18232
0.056942     0.14009    0.087149    0.074157    -0.98017    0.083901     0.16153
-0.0054209     0.11054    0.056292    0.061814     -1.1286    0.054344     0.14042
-0.040825    0.090722    0.028684    0.044924     -1.2257    0.026085     0.12158
-0.054142     0.08585    0.014068     0.02641      -1.228   0.0049729     0.10859
-0.052843    0.092346    0.012443    0.010495     -1.1143  -0.0093186    0.099167
-0.046347     0.10274    0.022188  0.00010078    -0.89247   -0.018088    0.090722
-0.042449     0.10761    0.034206  -0.0037969    -0.60047   -0.026533     0.07773
-0.044723    0.099817    0.041676 -0.00087364    -0.28605   -0.034329    0.058891
-0.052518    0.079354    0.038103   0.0059473   0.0026992   -0.036927    0.037129
-0.05739    0.054668    0.029009    0.011794     0.23234   -0.029132    0.020239
-0.04862    0.035505    0.024137    0.015042     0.38337  -0.0076946    0.009845
-0.027833    0.027385    0.027385    0.013743     0.45548     0.01894   0.0046481
0.0014    0.031282    0.032257   0.0088706      0.4675    0.039402   0.0023744
0.029333    0.042975    0.030308   0.0062721     0.44639    0.049796      0.0014
0.048497    0.057592    0.024137   0.0078962     0.42365    0.054668    0.003024
0.057267    0.067661    0.016341    0.011794     0.42138    0.054993   0.0078962
0.057267    0.068635    0.010819    0.016666     0.45386    0.053044    0.013093
0.054668    0.062464    0.010495    0.022837     0.51719    0.053694    0.014068
0.057592    0.054668    0.016991    0.029009     0.60262    0.058241    0.013093
0.06831    0.045249    0.021538    0.030957     0.69584    0.065387    0.013418
0.0865    0.037454    0.023162    0.026085     0.78711    0.067661    0.013093
0.10306    0.032906    0.017316    0.015692     0.86994    0.056617   0.0036737
0.10891    0.034855   0.0088706   0.0075714     0.93782    0.033231   -0.017114
0.097218    0.041351    0.003024   0.0072465     0.97842   0.0017248   -0.042449
0.069934    0.045249  -0.0021729    0.013093      0.9781   -0.027508   -0.061288
0.038103    0.042001  -0.0083442     0.01829     0.93944   -0.046022   -0.061288
0.015367    0.029333   -0.014516     0.01764      0.8852   -0.053168   -0.038227
0.009845    0.011144   -0.019063   0.0059473     0.83161   -0.054467  -0.0011985
0.013743  -0.0076946   -0.021012  -0.0093186     0.78516   -0.056091    0.035505
0.013418   -0.022311   -0.021986   -0.020687     0.73059   -0.061288    0.064737
-0.0031473   -0.031406   -0.023285   -0.021337     0.64387   -0.068758    0.086175
-0.036278   -0.036278   -0.020037  -0.0093186     0.49251   -0.078827     0.10014
-0.078827   -0.038876   -0.012242   0.0088706     0.26092    -0.09117     0.10469
-0.12203    -0.04927  -0.0047713    0.027709   -0.038551    -0.11163    0.094295
-0.15483   -0.070707  -0.0028225    0.042975    -0.38577    -0.14184    0.064088
-0.174    -0.10189  -0.0083442    0.049472    -0.76774    -0.17984    0.020564
-0.17919    -0.13437   -0.020362    0.045899     -1.1546    -0.22012   -0.029782
-0.1662      -0.161   -0.029457    0.033881     -1.4901    -0.25877   -0.072006
-0.12592      -0.174   -0.028157    0.021538     -1.7055    -0.28703   -0.088896
-0.062912     -0.1714    -0.01549    0.013743     -1.7418    -0.29645   -0.073306
0.00010078    -0.15711   0.0023744    0.015042     -1.5934    -0.27956   -0.030431
0.042326    -0.13632    0.018615    0.019264     -1.3131    -0.24318    0.020888
0.052395    -0.10774    0.031932    0.022512    -0.98536    -0.20323    0.063438
0.036479   -0.071357    0.042001    0.022837     -0.6729    -0.17789      0.0852
0.0062721   -0.022636    0.045249    0.016991    -0.41013     -0.1753    0.083576
-0.022311    0.031932    0.037454   0.0043233    -0.20615    -0.19024    0.065062
-0.038227    0.072533     0.01764   -0.013216   -0.063237      -0.212    0.044275
-0.040825    0.080978  -0.0073698    -0.03173    0.022837    -0.23084    0.029658
-0.034978    0.055643   -0.030106   -0.043748    0.067336    -0.23961    0.023487
-0.028482    0.016991   -0.044723   -0.045372    0.095594    -0.23603    0.023812
-0.020362   -0.011917   -0.052843   -0.036278     0.12807    -0.22369    0.022512
-0.0080194   -0.012567   -0.053492   -0.022311     0.17095    -0.20323    0.015692
0.0072465    0.014392   -0.046022   -0.011592     0.22097     -0.1753   0.0039985
0.019914    0.057592   -0.027833  -0.0037969     0.26807    -0.13827   -0.007045
0.027709     0.10534  -0.0015233   0.0046481     0.30087   -0.092145   -0.012567
0.024786     0.14854    0.028034    0.016341     0.31549   -0.038227   -0.010943
0.011144     0.18329     0.05142    0.029333     0.31289     0.01764  -0.0054209
-0.0089938     0.20148    0.057917    0.037454     0.29633    0.066362  -0.0028225
-0.028807     0.19531    0.046548    0.036479     0.26904     0.10274  -0.0089938
-0.039526     0.16543    0.021213    0.027385     0.23591     0.13197   -0.021012
-0.026209     0.12385  -0.0067202    0.016991     0.20311     0.15503   -0.034654
0.014717    0.085525    -0.02361    0.012119      0.1703     0.17387   -0.047971
0.071234    0.059216   -0.024585    0.014392     0.13814     0.18751   -0.055116
0.12743    0.049472   -0.016789     0.01829     0.10566     0.19953   -0.054142
0.16965    0.048822   -0.007045     0.01894    0.070584     0.20863   -0.047646
0.18459    0.050446   0.0026992    0.015692    0.032906      0.2122   -0.042124
0.16738    0.048822    0.009845    0.011469    0.003024     0.20993   -0.043423
0.12678      0.0433    0.016341   0.0075714    -0.01614     0.20278   -0.050569
0.078055    0.033231    0.022837     0.01017   -0.029132     0.19271   -0.062262
0.034206    0.016341    0.028034    0.017316   -0.027183     0.17745   -0.071357
0.0017248  -0.0044465     0.02706    0.023812  0.00075039     0.15276   -0.076879
-0.017764   -0.025234    0.017316    0.026085    0.065062     0.11833   -0.079152
-0.028157   -0.041799   0.0017248    0.020888     0.16413     0.07773   -0.078178
-0.035953   -0.050894   -0.012892   0.0075714     0.29145    0.037129   -0.074605
-0.043748   -0.053817    -0.02361   -0.014516     0.43989   0.0026992   -0.070707
-0.050569   -0.052193    -0.03303   -0.038551     0.59028   -0.020362   -0.070382
-0.055441   -0.053492   -0.045372   -0.060638     0.70396   -0.031406    -0.07428
-0.059014   -0.061288   -0.059664   -0.072656     0.74878   -0.031081   -0.080451
-0.059014   -0.071682   -0.071032   -0.069733     0.71955   -0.028157   -0.085973
-0.052843   -0.081426   -0.077528   -0.054792     0.64322   -0.022961   -0.085973
-0.038876   -0.089221    -0.07428   -0.036278     0.56689   -0.012567   -0.079477
-0.024585   -0.094418    -0.05804   -0.019063     0.52402   0.0026992   -0.070382
-0.01549   -0.095068   -0.037252  -0.0073698     0.51882    0.020239   -0.060963
-0.018738   -0.089871   -0.024585  0.00010078     0.53993    0.034855   -0.054467
-0.030431   -0.077528   -0.021012      0.0014     0.56981    0.044275   -0.053492
-0.044398   -0.063237   -0.024909 -0.00087364      0.5945    0.047847    -0.05804
-0.052193   -0.051868   -0.029132  -0.0028225     0.60035    0.047847   -0.061613
-0.053492   -0.043748   -0.026533 -0.00087364     0.57404    0.053694   -0.062912
-0.048945   -0.040825   -0.017439   0.0043233      0.5055    0.073182   -0.062262
-0.043423   -0.039851  -0.0060706    0.012443      0.3824     0.10469   -0.058365
-0.040825     -0.0405  -0.0024977    0.019914     0.19239     0.13684   -0.051868
-0.043748   -0.042124  -0.0083442    0.019589   -0.052843     0.15406   -0.046347
-0.050244   -0.044073   -0.017114    0.012443    -0.30262     0.14886   -0.043099
-0.056091   -0.046022   -0.025234   0.0026992    -0.50303     0.12093   -0.039526
-0.059339   -0.043748   -0.028807  -0.0041217     -0.6245    0.079679   -0.034329
-0.059664   -0.035953   -0.024585  -0.0041217    -0.66965    0.036154   -0.024909
-0.052518   -0.026533   -0.013541 -0.00054884    -0.65601  0.00010078   -0.010943
-0.036278   -0.017114  -0.0050961   0.0059473    -0.60014    -0.02361   0.0065969
-0.012892  -0.0073698  -0.0041217    0.015367    -0.51699   -0.038876    0.026735
0.010495  -0.0028225  -0.0050961    0.027385     -0.4228    -0.05739     0.05207
0.028359  -0.0021729  -0.0037969    0.036154    -0.33802   -0.086298    0.083576
0.036804  -0.0034721  0.00042559    0.038753    -0.26787    -0.12495     0.11086
0.038428  -0.0044465   0.0046481     0.03583    -0.19673    -0.17497     0.12905
0.039078  -0.0044465   0.0046481    0.031282    -0.10189    -0.23701      0.1323
0.036804  -0.0047713  0.00042559    0.025111    0.029333    -0.30457     0.12288
0.031932  -0.0050961  -0.0037969    0.020888     0.17095    -0.36498     0.11086
0.020888  -0.0054209  -0.0054209    0.019589     0.27911    -0.40916     0.10209
0.0072465  -0.0034721 -0.00054884    0.020564     0.32069    -0.42994    0.098193
-0.0057458  0.00075039   0.0065969    0.026735     0.28626     -0.4254    0.094295
-0.015815   0.0065969    0.016341    0.034206     0.18719    -0.39811    0.088773
-0.02426    0.015692    0.027385    0.040377    0.053694    -0.35167    0.080653
-0.034654    0.027385    0.039402     0.04395   -0.076229     -0.2945    0.067011
-0.044723    0.041027     0.05272    0.046223    -0.17237    -0.22791    0.049147
-0.046347    0.054019    0.063438    0.050771    -0.22434      -0.161    0.030633
-0.035953    0.063113    0.069285    0.056942    -0.23766   -0.096367    0.012768
-0.014516    0.063113    0.069934    0.063763    -0.22467   -0.038551 -0.00022403
0.014717    0.048172    0.059216    0.064737    -0.20096    0.011144   -0.008669
0.045574    0.014717     0.03518    0.057267    -0.17952    0.049796   -0.011917
0.067661   -0.032705   0.0026992    0.044924     -0.1662    0.078379   -0.013216
0.075456   -0.078503   -0.028157    0.032582    -0.15646     0.10306    -0.01484
0.066686    -0.10774   -0.047646    0.023162    -0.14509     0.12678    -0.01549
0.040052    -0.10903   -0.055116    0.013418     -0.1243     0.15309   -0.014191
-0.00054884   -0.085973   -0.051868   0.0059473   -0.089546     0.18622   -0.011592
-0.045047   -0.047646   -0.037902    0.003024   -0.039526     0.22909  -0.0044465
-0.081101  -0.0057458   -0.020362   0.0059473    0.017965     0.27261    0.008221
-0.096367    0.025436  -0.0034721    0.012119    0.073182     0.30477    0.020564
-0.089871    0.035505   0.0059473    0.021863     0.11638     0.31711    0.025436
-0.063886    0.023162   0.0069217    0.032582     0.14756     0.30899    0.023487
-0.026533  -0.0011985   0.0052977      0.0433     0.16965     0.28885    0.022512
0.017965   -0.025234   0.0049729    0.048172     0.18264     0.26904    0.025436
0.061165   -0.035953   0.0072465    0.049147     0.18687     0.25443    0.030308
0.097868   -0.022636    0.012119    0.044599     0.17712     0.24566    0.036479
0.1219    0.011794    0.017965    0.039078     0.14984     0.24111    0.040052
0.12645    0.060515    0.024137    0.038428    0.094945     0.23461    0.042975
0.11313     0.11313    0.030308    0.048497   -0.012242     0.22422      0.0433
0.086824     0.15763     0.03453     0.06084    -0.18796      0.2109    0.042001
0.056942     0.18427    0.034855     0.06831    -0.41533     0.19499    0.036804
0.029658     0.18719    0.030308    0.066362    -0.65471      0.1703    0.026085
0.012443       0.169    0.023487    0.056292    -0.85089     0.13684    0.011469
0.009845     0.14204    0.020239    0.043625    -0.94606    0.097868  -0.0060706
0.022512     0.11638    0.020564    0.032582    -0.91001    0.062464   -0.021986
0.042975    0.095594    0.021863    0.022837    -0.75605     0.03583   -0.029457
0.059541    0.080653    0.024461    0.019264    -0.53648    0.021863   -0.029457
0.059216    0.069934    0.025761    0.021213    -0.31854    0.016016   -0.023285
0.042651    0.059541    0.027709    0.022837    -0.16555    0.012119   -0.013866
0.017316    0.050121    0.026735    0.017965    -0.11748   0.0052977  -0.0044465
-0.0083442    0.041676    0.022837   0.0085458    -0.16977  -0.0050961   0.0023744
-0.026533    0.030633    0.015367  -0.0011985    -0.27664   -0.022311   0.0017248
-0.034978    0.016016    0.008221  -0.0083442    -0.38187    -0.04115  -0.0028225
-0.036278   0.0036737  -0.0011985   -0.012567    -0.46015   -0.058365  -0.0060706
-0.027508  -0.0037969   -0.010293   -0.015815    -0.51862   -0.064211  -0.0034721
-0.011917  -0.0031473   -0.013866   -0.017764    -0.57968    -0.05804     0.01017
0.0059473   0.0046481  -0.0096434   -0.017114    -0.65698   -0.042124    0.030308
0.019589    0.015692  0.00010078   -0.013216    -0.74533    -0.02426    0.046548
0.024461    0.026735    0.011469  -0.0099683    -0.83173  -0.0099683    0.052395
0.020239    0.032906    0.018615  -0.0073698    -0.90741  -0.0031473     0.05142
0.01017    0.034206    0.018615  -0.0054209    -0.97497  -0.0041217    0.047847
0.0014    0.032257    0.012768  -0.0024977     -1.0338   -0.014516    0.044599
0.00042559    0.030957    0.008221   0.0026992     -1.0588   -0.035953      0.0433
0.0049729    0.030957   0.0091954   0.0088706      -1.011   -0.064211    0.044599
0.0085458    0.026735    0.013093    0.010819    -0.87038   -0.096042    0.048172
0.0056225    0.019264    0.015692   0.0052977    -0.63847    -0.13047    0.051745
0.00010078    0.011794    0.016016   -0.008669    -0.30879    -0.16263    0.054668
-0.00054884    0.011469    0.017965   -0.028157     0.11573    -0.18439    0.057592
0.0056225     0.01764    0.025436    -0.04862     0.59385    -0.18634    0.059216
0.016666    0.023812    0.036479   -0.062912      1.0499    -0.16328    0.061165
0.027709    0.023162    0.048822   -0.068109      1.3987    -0.11748     0.06084
0.03453    0.014392    0.055968   -0.061288      1.5806   -0.058689    0.060515
0.027385  -0.0015233    0.050446   -0.044723      1.5777  -0.0034721    0.059216
0.0091954   -0.021012    0.029658   -0.026533      1.4176    0.036804    0.054668
-0.012892   -0.043423  -0.0015233   -0.010293      1.1554    0.056292      0.0433
-0.032705   -0.068109   -0.032055   0.0010752     0.85824    0.058241     0.02706
-0.046022   -0.090845   -0.052843   0.0078962     0.58118    0.050446    0.008221
-0.046022    -0.10611   -0.061937    0.009845     0.36453     0.04395  -0.0093186
-0.034654    -0.10871   -0.058689    0.010819     0.22779    0.042651   -0.020362
-0.016464   -0.093769   -0.047321    0.012119     0.16608    0.044275   -0.020362
0.0036737   -0.060638    -0.03173    0.014717     0.15698    0.042651   -0.014191
0.016016   -0.015165   -0.018413    0.014717     0.16088    0.031932  -0.0054209
0.013418    0.029009  -0.0080194    0.011469     0.12418    0.011144  0.00042559
-0.0011985    0.058241   0.0020496   0.0056225   0.0088706   -0.019063 -0.00087364
-0.019712    0.070259    0.011144  -0.0041217    -0.17465   -0.053817  -0.0096434
-0.038227    0.069285    0.016991   -0.012892    -0.36661   -0.087922   -0.028157
-0.053817    0.061165    0.020888   -0.022311    -0.50595    -0.11618    -0.04992
-0.065835    0.048497    0.023812   -0.030756    -0.56474    -0.13469   -0.068434
-0.074605    0.032257    0.021863   -0.038227    -0.54947    -0.14541     -0.0837
-0.079802    0.014068    0.009845   -0.048945    -0.48289    -0.14899   -0.096042
-0.081101  -0.0011985  -0.0099683   -0.067134    -0.37473    -0.14899    -0.10546
-0.076879   -0.014516   -0.029457   -0.086623    -0.22077    -0.14801    -0.10741
-0.06616   -0.025559   -0.046022    -0.10319   -0.027508    -0.14931    -0.10059
-0.047971   -0.034329   -0.057065    -0.11293     0.17355    -0.15418     -0.0837
-0.025884   -0.042124   -0.064211    -0.11553     0.33043    -0.16393   -0.062587
-0.0031473   -0.046996   -0.068758    -0.11033     0.39539    -0.18082   -0.042774
0.017965   -0.048945   -0.068109   -0.098641     0.35154    -0.20453   -0.026209
0.033881   -0.044723   -0.062912   -0.084674     0.22422    -0.23246   -0.016464
0.042651   -0.032055   -0.054142   -0.071682    0.070259    -0.25552   -0.013541
0.042326   -0.013541   -0.042774   -0.060313   -0.053817    -0.26689   -0.015815
0.03453  0.00042559   -0.030106   -0.051219    -0.11261    -0.26104   -0.019063
0.016991   0.0059473   -0.017114   -0.043099   -0.097341    -0.23474   -0.019388
-0.0034721   0.0033489   -0.010943   -0.035628   -0.031406    -0.19219   -0.018088
-0.021012 -0.00087364    -0.01549   -0.029457    0.053044    -0.14152   -0.017439
-0.032055   0.0020496   -0.025234   -0.024585      0.1297   -0.088896   -0.017764
-0.038876    0.015692   -0.029132   -0.015815     0.18297   -0.045697   -0.015815
-0.044723    0.036479   -0.020362  -0.0050961     0.21415   -0.012567   -0.010618
-0.055441    0.051745  -0.0021729    0.003024     0.23136    0.015692  -0.0041217
-0.069408    0.051096    0.016991     0.01017     0.24078    0.047198   0.0010752
-0.080451    0.033881    0.026735    0.020888     0.25183    0.080003    0.003024
-0.081426   0.0059473    0.020239    0.036804     0.26742     0.10989    0.003024
-0.073631   -0.019712   0.0052977     0.05207     0.28821      0.1297   0.0023744
-0.056741   -0.030756  -0.0089938     0.06019     0.31094     0.13944   0.0059473
-0.028482   -0.025884   -0.017439    0.061165     0.33238     0.13912    0.014068
0.009845   -0.012567   -0.020362    0.054668     0.34894     0.12743     0.02641
0.054344  -0.0021729   -0.017439    0.048822     0.35804     0.10469    0.036479
0.092021  -0.0011985   -0.014191    0.048497     0.35317    0.079029    0.039078
0.11606   -0.007045   -0.012892    0.055643       0.334     0.06019    0.032906
0.1232   -0.008669   -0.011592    0.064737     0.30574    0.053369    0.022188
0.11963      0.0014  -0.0057458    0.073832     0.27196    0.057267    0.015042
0.10956    0.022188   0.0017248    0.080978     0.24078    0.066362    0.015042
0.098193    0.047523    0.009845    0.083576     0.21805    0.075456    0.021213
0.090722     0.06831    0.016991    0.081952     0.21058    0.083576    0.030308
0.082927    0.080003    0.022837    0.079354     0.21447    0.090397    0.043625
0.069285    0.081627    0.028684    0.080003     0.22909    0.096893     0.06084
0.05207    0.075456    0.035505    0.083576     0.24663     0.10306    0.077405
0.034206    0.063113    0.038753    0.090072     0.25378     0.10566    0.091696
0.01894    0.048172    0.033556    0.093645     0.24501     0.10306    0.097543
0.0091954    0.031607    0.022188      0.0852      0.2161     0.09462    0.095269
0.011469    0.014717    0.008221    0.066686     0.17225    0.080978    0.088773
0.023812  -0.0057458  -0.0093186    0.047847     0.12353    0.066362    0.079354
0.036479   -0.029782   -0.029132    0.036479    0.067986    0.050121     0.06961
0.045574   -0.056091   -0.045372    0.029983   0.0069217     0.03518    0.058891
0.049147   -0.077528   -0.050569    0.027709   -0.048296    0.023487    0.044924
0.047847   -0.084674   -0.041799    0.030633   -0.084349     0.01764    0.032582
0.041027   -0.071682   -0.021012    0.039078   -0.091495    0.017316    0.023487
0.034206   -0.039526   0.0075714    0.051745   -0.064861    0.023487    0.021213
0.033231  0.00075039    0.039402    0.064413   -0.011267    0.036154    0.021863
0.042975     0.03583    0.066362    0.073182    0.058241     0.05207    0.020564
0.070584    0.056292    0.082602    0.073507     0.13295    0.065387    0.019589
0.11671    0.064088    0.082277    0.064088     0.20733    0.078055     0.02706
0.169    0.063438    0.062139    0.046223     0.27781    0.092021    0.049796
0.20733    0.057267    0.030957    0.024461     0.33595     0.10794    0.080328
0.22032    0.046548 -0.00022403   0.0046481     0.37558     0.12255     0.10404
0.2109    0.029658    -0.01549  -0.0047713     0.39799     0.13197     0.10989
0.18524    0.014068    -0.01549      0.0014     0.40773     0.13522    0.097868
0.14919   0.0062721  -0.0024977    0.021538     0.40481     0.13262     0.06961
0.11248     0.01017    0.018615    0.045574     0.38792     0.12872    0.034855
0.07773    0.024461    0.042651    0.067011     0.35706     0.13002   0.0062721
0.041676    0.044599    0.066362    0.083576     0.31484     0.14042  -0.0057458
-0.0047713    0.064413    0.084226    0.096569     0.26612     0.15698   0.0033489
-0.070382    0.074482    0.091696     0.10826      0.2135      0.1742    0.026085
-0.14964    0.067661    0.091047     0.11476     0.15536     0.18427    0.050121
-0.22369    0.042975    0.079354     0.10956    0.095269     0.18102    0.070259
-0.27014   0.0085458    0.061165    0.096244    0.042651     0.16023    0.081952
-0.27956   -0.021986    0.045899    0.078379   0.0043233     0.12743     0.08585
-0.24935   -0.037902    0.038103    0.064413   -0.026533    0.092671     0.08585
-0.18699    -0.03238    0.039727    0.056942   -0.072006    0.066686    0.083901
-0.10416  -0.0083442    0.048822    0.050771    -0.15483    0.050121    0.079354
-0.014191    0.023812    0.059216    0.040377    -0.28508    0.036804    0.071234
0.065712    0.053369    0.057917    0.022837    -0.46243    0.021213    0.058241
0.11866    0.073507    0.039402  0.00042559    -0.67647 -0.00022403    0.039727
0.14139    0.081952    0.011469   -0.018413    -0.90546   -0.020362     0.01829
0.14269    0.080978   -0.015815   -0.034004      -1.113    -0.03238 -0.00054884
0.13067    0.075456    -0.03238   -0.045372     -1.2517   -0.036602  -0.0089938
0.11021    0.067986   -0.034978   -0.056091     -1.2891   -0.034654  -0.0089938
0.081627    0.056942    -0.03303   -0.065835     -1.2186    -0.03238 -0.00087364
0.047198    0.037778   -0.035953   -0.075255     -1.0526   -0.040825   0.0088706
0.010819   0.0091954   -0.042774   -0.080776    -0.81224   -0.061937    0.012768
-0.025559   -0.025234   -0.047646   -0.077853    -0.51959   -0.090196   0.0095202
-0.06616   -0.055116   -0.045372   -0.067459    -0.20031    -0.11488   0.0023744
-0.11261   -0.076879   -0.038551   -0.054142     0.11054     -0.1308  -0.0060706
-0.16068   -0.090196   -0.029782   -0.041799     0.37006    -0.13469   -0.012892
-0.19511   -0.092145   -0.024909   -0.033679     0.54058    -0.12527   -0.017764
-0.20323   -0.081101   -0.028157   -0.029132     0.60911    -0.10611   -0.015165
-0.17822   -0.063237   -0.034978   -0.025884     0.58378   -0.086298  -0.0060706
-0.12268   -0.047321   -0.038551   -0.021012     0.49316    -0.07493 -0.00054884
-0.04927   -0.034004   -0.035303   -0.014516     0.37558   -0.076879  -0.0034721
0.023162   -0.025884   -0.025559  -0.0080194     0.26644   -0.088896  -0.0093186
0.076431   -0.026533   -0.010943  -0.0021729     0.18492    -0.10709   -0.014516
0.10079    -0.03303   0.0062721 -0.00022403     0.13522    -0.12657   -0.018413
0.096244   -0.041475    0.015692  -0.0037969     0.10566    -0.14866   -0.025559
0.067661   -0.046022    0.017316   -0.010618    0.079029      -0.174   -0.040825
0.025436   -0.043423    0.011794    -0.01614    0.044275    -0.19673   -0.065186
-0.016789    -0.03238   0.0023744   -0.017114 -0.00087364      -0.212   -0.093444
-0.051219   -0.013866  -0.0083442   -0.012242   -0.047971     -0.2159    -0.11586
-0.07493   0.0075714   -0.018413  -0.0031473   -0.092469    -0.20875    -0.12463
-0.088896    0.024461   -0.024909   0.0085458    -0.13957    -0.19608      -0.123
-0.09929    0.034206   -0.029782     0.01829    -0.19251    -0.18017    -0.11423
-0.11228    0.034206   -0.029782    0.022837    -0.25487    -0.16035    -0.10286
-0.12625    0.028684   -0.019712    0.019914    -0.32016    -0.13729   -0.090845
-0.13404    0.019914  -0.0044465    0.015042    -0.37278    -0.11715   -0.081751
-0.1295   0.0062721   0.0072465    0.011144    -0.39876    -0.10091   -0.075904
-0.11261   -0.012242    0.010495    0.011144    -0.39064   -0.089546   -0.072656
-0.088247   -0.028157   0.0049729    0.011144    -0.35394   -0.079152   -0.068758
-0.060638   -0.032055  -0.0044465   0.0095202    -0.30522   -0.064536   -0.062587
-0.032055    -0.02361   -0.013216    0.003024    -0.26234   -0.050569   -0.060313
-0.0037969  -0.0047713   -0.018088  -0.0047713    -0.23474   -0.036278   -0.059989
0.022512     0.01829   -0.021986   -0.012242    -0.22889    -0.02426   -0.058365
0.048172    0.036804   -0.022636    -0.01549    -0.23441    -0.01614   -0.055766
0.067336    0.044599   -0.018738   -0.014516    -0.23279  -0.0099683   -0.050569
0.075131    0.040377   -0.010618   -0.012567     -0.2159  -0.0024977   -0.046671
0.072208    0.030308  -0.0041217  -0.0089938    -0.17627   0.0056225   -0.043748
0.058241    0.018615  -0.0021729  -0.0015233    -0.11066    0.013743   -0.043423
0.037454    0.012443  -0.0044465   0.0049729   -0.027833    0.019914   -0.042774
0.015042    0.013093  -0.0073698    0.009845    0.065387    0.022512   -0.040825
-0.0037969     0.01894   -0.012567    0.011144     0.16803    0.022837     -0.0405
-0.017114    0.026735   -0.022636    0.011794     0.28008     0.01829   -0.039851
-0.023285    0.031932   -0.039526    0.011794     0.38792     0.01017   -0.037902
-0.023285    0.032582   -0.052843    0.008221     0.47107   0.0010752   -0.034004
-0.014516    0.027709   -0.055441  0.00010078     0.51427  -0.0054209   -0.026858
-0.00054884    0.019914   -0.045047   -0.008669     0.51265  -0.0063954   -0.019063
0.013418    0.010819   -0.022961   -0.014191      0.4714 -0.00022403   -0.012567
0.022188   0.0033489   0.0036737   -0.014191     0.40221    0.010819  -0.0076946
0.025111   0.0020496    0.022837  -0.0096434     0.31451    0.024461   -0.007045
0.024786   0.0072465    0.028034  -0.0044465     0.21772     0.03518   -0.010293
0.022837     0.01764    0.017965   0.0020496     0.12223    0.037778    -0.01614
0.023487    0.030308      0.0014   0.0091954    0.032582    0.031282   -0.020687
0.023812    0.037129   -0.014191    0.014392   -0.057065    0.022512   -0.023285
0.023487    0.036804   -0.021661    0.019264    -0.14736    0.015042    -0.02426
0.020564    0.029009   -0.021986    0.023162    -0.23181   0.0065969   -0.023935
0.017316     0.01764   -0.020362    0.023487    -0.30684 -0.00087364   -0.025559
0.016016   0.0059473   -0.020687     0.01894    -0.37343  -0.0089938   -0.026533
0.019914  -0.0044465   -0.025234    0.015367    -0.43157   -0.019388   -0.025884
0.028034   -0.012567   -0.031081    0.012119    -0.48094   -0.034329   -0.023935
0.03518   -0.018088   -0.034329   0.0072465    -0.52479   -0.053492   -0.019388
0.038103   -0.021661   -0.034329  -0.0037969    -0.54752   -0.069733   -0.013216
0.03583   -0.026858   -0.030106   -0.019063    -0.52122   -0.081101  -0.0076946
0.030633   -0.033679   -0.023285   -0.029457     -0.4267   -0.084999  -0.0076946
0.019589   -0.037577    -0.01614    -0.03303    -0.27339   -0.082725   -0.010943
0.0052977   -0.037902  -0.0063954   -0.031081    -0.10059   -0.073955   -0.017114
-0.013866   -0.034978   0.0033489   -0.026858    0.044275   -0.061937   -0.023935
-0.034978   -0.031081    0.008221   -0.019063     0.13684   -0.046671    -0.03173
-0.050244   -0.028807   0.0033489  -0.0083442     0.17745   -0.029457     -0.0405
-0.052193   -0.031081   -0.010943   0.0033489     0.18037   -0.013866   -0.048945
-0.040825   -0.038227   -0.027833     0.01017     0.16056  -0.0044465   -0.054142
-0.026209   -0.048296   -0.041799     0.01017      0.1284  -0.0041217   -0.056416
-0.01614   -0.052518    -0.04862   0.0023744      0.0865  -0.0096434   -0.055116
-0.013866     -0.0405   -0.045697  -0.0093186    0.032906   -0.011592    -0.04927
-0.018088   -0.010293   -0.037577   -0.020037   -0.028157  -0.0047713   -0.037577
-0.022311    0.032582   -0.026858   -0.021661   -0.077528    0.008221   -0.022961
-0.023285    0.072533   -0.017439   -0.014516   -0.096042    0.026735   -0.010293
-0.021012    0.099492  -0.0099683  -0.0028225   -0.075904    0.044275  -0.0021729
-0.020362     0.11086  -0.0021729     0.01017    -0.01484    0.057592  -0.0015233
-0.020362     0.11086    0.010495    0.024786    0.082277    0.064413  -0.0037969
-0.022961     0.10664    0.028034    0.038428     0.19563    0.067661  -0.0044465
-0.026533     0.10079    0.044924    0.046873      0.2973    0.072533  -0.0011985
-0.030756    0.092996     0.06019     0.05272     0.36551    0.076755      0.0014
-0.034978    0.083251    0.071234    0.059216     0.39377    0.074806  -0.0037969
-0.035953    0.073507    0.076106    0.061814     0.39182    0.061165   -0.016789
-0.029132    0.065712    0.076106     0.06019     0.37655    0.034855   -0.034329
-0.013216    0.056617    0.067661    0.054344     0.35706   0.0065969    -0.04992
0.010819    0.043625    0.050771    0.046223     0.33335    -0.01484   -0.061288
0.039078    0.022188    0.029009    0.041027     0.29925   -0.023935   -0.068109
0.063438  -0.0028225    0.009845    0.039402     0.24663   -0.021337   -0.071682
0.075781   -0.026858  -0.0028225    0.040377     0.16705   -0.010618    -0.06681
0.073182   -0.044073  -0.0083442    0.042326    0.057267   0.0062721   -0.051544
0.063438   -0.050244  -0.0073698    0.045574   -0.088896    0.029658   -0.023935
0.061489   -0.046022  -0.0018481    0.049147    -0.26104    0.057917    0.015367
0.072533   -0.038876   0.0033489    0.050446     -0.4267    0.083251    0.062464
0.098842   -0.034004   0.0049729    0.045249    -0.55759    0.098842     0.11086
0.13522   -0.034329  0.00042559    0.034855    -0.64399    0.099492     0.15016
0.16413   -0.034978  -0.0096434    0.023487    -0.70668    0.085525     0.16998
0.16965   -0.027508   -0.024585   0.0065969    -0.78106    0.057592     0.16543
0.14854  -0.0057458   -0.036278   -0.013541    -0.88078     0.02706     0.13814
0.10989    0.029333   -0.037252   -0.026533    -0.98731    0.013418     0.10274
0.068635    0.070259   -0.029457   -0.022961     -1.0562     0.03518    0.071883
0.036804     0.10956   -0.016789 -0.00022403     -1.0442    0.092996    0.053044
0.018615     0.13555  -0.0057458    0.030308    -0.93599     0.16998    0.046873
0.010819     0.14107  0.00075039    0.055643    -0.74403     0.24208    0.047523
0.0043233      0.1232   0.0062721    0.066037    -0.50303     0.29048    0.049796
-0.0073698    0.087149    0.010495    0.059216    -0.25812     0.30542    0.045574
-0.024585     0.04395    0.014068    0.041027   -0.047971     0.29015    0.031607
-0.039526   0.0036737    0.011794    0.016016     0.10664     0.25085    0.014717
-0.048296   -0.027508   0.0046481  -0.0047713     0.20635     0.19563   0.0023744
-0.050894   -0.045372  -0.0021729   -0.013541     0.26255     0.13425  -0.0018481
-0.046022   -0.045047  -0.0080194  -0.0093186     0.29405    0.079679   0.0026992
-0.036602   -0.029782   -0.010293   0.0023744     0.32101    0.033231    0.015692
-0.031081  -0.0083442  -0.0099683    0.013093     0.35901  -0.0063954    0.030308
-0.036278     0.01017  -0.0073698    0.016666     0.41358   -0.042774    0.042975
-0.051544     0.01764  -0.0037969    0.013418     0.47529   -0.078178     0.05272
-0.070707   0.0088706  -0.0011985   0.0043233     0.51752    -0.11456    0.055968
-0.0837   -0.017114  -0.0011985   -0.011592     0.50615    -0.15516    0.055318
-0.078178    -0.04992  0.00010078   -0.029457      0.4282    -0.19998    0.054344
-0.044398   -0.072656   0.0065969   -0.044723     0.30412    -0.24545    0.056292
0.011144   -0.070382    0.016016   -0.054467     0.18557    -0.28346    0.061165
0.067986   -0.041799    0.027709   -0.057715      0.1323    -0.31042    0.065062
0.10566   0.0065969    0.039727   -0.054467     0.18524    -0.32113    0.063763
0.11671    0.064413    0.050771   -0.044073     0.35414    -0.31301    0.061165
0.10274     0.12028     0.06084   -0.027833     0.61106    -0.28508    0.062789
0.074806     0.16023    0.067336  -0.0076946     0.90404    -0.23961    0.073182
0.042651     0.17192     0.06896    0.013418      1.1746    -0.18244    0.091047
