-0.10611     0.10436    0.036804    0.020888     0.54415     0.31419    -0.03303
-0.10838     0.11118    0.054344     0.05142     0.72605     0.23364   -0.017439
-0.10806     0.10761    0.068635     0.07708     0.91508     0.14984   -0.011267
-0.10546    0.092671    0.072208    0.091696      1.1087    0.058241   -0.023285
-0.094093    0.067336    0.062139     0.09397      1.2545   -0.034004   -0.052518
-0.072656     0.03518    0.044275    0.088448      1.2698    -0.12625   -0.089871
-0.047971   0.0023744    0.028034    0.080003      1.1025    -0.22954     -0.1217
-0.029457   -0.028482     0.01764     0.06961     0.78743    -0.35621    -0.13859
-0.017114   -0.055766    0.009845    0.055968     0.44639    -0.49166    -0.13762
-0.0034721   -0.076229 -0.00087364    0.043625     0.20473    -0.58358     -0.1204
0.016016   -0.084999   -0.010293    0.030957     0.12028    -0.56961   -0.092794
0.037778   -0.079477   -0.017764    0.019589      0.1677    -0.42052   -0.062912
0.047198   -0.062587   -0.018738    0.010819     0.25378    -0.16782   -0.033679
0.038753   -0.041475  -0.0099683   0.0039985     0.27846     0.12645  -0.0021729
0.013418   -0.025559   0.0020496  -0.0028225     0.20376     0.40319    0.028684
-0.020037   -0.020037   0.0075714   -0.012242    0.061489     0.61594    0.053044
-0.051544   -0.025884  0.00010078   -0.021986   -0.087597     0.73482    0.058566
-0.071682    -0.04115   -0.013866   -0.030106    -0.18277     0.74521    0.039078
-0.078827   -0.064211   -0.026858   -0.036602    -0.19381     0.62893  -0.0037969
-0.073955   -0.095068   -0.033679   -0.038551    -0.14152     0.38597   -0.059014
-0.061937    -0.12885    -0.03303   -0.036602   -0.081426    0.056942     -0.1191
-0.050894    -0.15938   -0.034329   -0.032055   -0.083375    -0.29645    -0.17692
-0.048945    -0.17659   -0.045047   -0.027833    -0.22142    -0.61443    -0.22694
-0.060638    -0.17107   -0.062587   -0.024909    -0.49328    -0.86519    -0.25845
-0.080776    -0.13794   -0.080127   -0.022636    -0.80087     -1.0448    -0.26462
-0.095068    -0.08305   -0.084349    -0.01484     -1.0198     -1.1682    -0.24026
-0.094743    -0.01484   -0.070707   0.0059473     -1.0614     -1.2689    -0.19121
-0.077528    0.052395   -0.044723    0.039402    -0.91813     -1.3706    -0.13697
-0.051544     0.10859   -0.017114    0.071234    -0.65439     -1.4664   -0.096367
-0.019712     0.15114   0.0046481    0.087799    -0.36661     -1.4937   -0.069408
0.014392      0.1768     0.01894    0.082277    -0.13892     -1.3667   -0.046022
0.048822     0.18264    0.024461    0.061814   -0.010618     -1.0256   -0.012892
0.078704      0.1742    0.025761    0.036804    0.025761    -0.48906    0.040377
0.10177     0.16283    0.026735    0.017965    0.015692     0.13555     0.10631
0.11346     0.15568    0.027709   0.0078962   0.0059473     0.69519     0.16868
0.11443     0.15211    0.023162   0.0052977    0.028359      1.0931     0.20765
0.11216     0.14367    0.013093    0.009845    0.095269      1.3312      0.2135
0.11476     0.12548  -0.0011985    0.015042     0.20278       1.465     0.19044
0.13067    0.096569    -0.01614    0.015367     0.32393      1.5374     0.15146
0.15536    0.066686   -0.027183    0.008221     0.41813      1.5585     0.11281
0.18199    0.053044   -0.029782    0.003024     0.43632      1.5238    0.097543
0.19986    0.069934   -0.018088   0.0072465     0.36518      1.4234      0.1219
0.20051     0.12158   0.0069217    0.024137     0.23916      1.2526     0.18427
0.18687     0.19109    0.044275    0.045899    0.082927      1.0242     0.26612
0.16868     0.25183    0.080328    0.064413    -0.11683     0.76112     0.34245
0.15828     0.27229    0.099167    0.071234    -0.36661     0.48634     0.39767
0.16218     0.23559    0.087474    0.061489    -0.63782     0.21447     0.41813
0.1781     0.14626    0.048172    0.042001    -0.86064   -0.030431     0.39052
0.18492     0.03453  -0.0041217    0.026085    -0.96165    -0.21492     0.31841
0.16868   -0.064211    -0.04927    0.023812    -0.90611    -0.31561     0.22324
0.12613    -0.12073    -0.06551    0.041027    -0.73331    -0.33055     0.13814
0.066037    -0.12333    -0.04862    0.079029    -0.52674    -0.26202    0.090072
0.00075039     -0.0824  -0.0047713      0.1323    -0.37927     -0.1308    0.089748
-0.056091   -0.021986    0.045249     0.18557    -0.36628    0.032582     0.12483
-0.090845    0.030957    0.081303      0.2187     -0.5027     0.19856     0.17485
-0.094093    0.063113    0.090722     0.21902    -0.73851     0.35414     0.22941
-0.067459    0.066686    0.078055     0.18557    -0.99933     0.49056     0.27619
-0.023285    0.045899    0.055318     0.13197     -1.2228      0.5958     0.30412
0.020564    0.016341    0.036479    0.078379     -1.3397     0.65134     0.30347
0.053369   -0.007045    0.031607    0.043625     -1.2426      0.6338     0.27554
0.073182   -0.017764    0.040052    0.037778    -0.81549     0.52174     0.22747
0.084551   -0.019388    0.056617    0.059216   -0.015815     0.31386      0.1755
0.094945   -0.012567     0.07773     0.10339      1.0632    0.033881      0.1362
0.10177    0.003024    0.099167      0.1664      2.2033    -0.26624     0.11573
0.10859    0.023812     0.12255     0.24111       3.165    -0.51115     0.10794
0.1206    0.045574     0.14529     0.31094      3.7273    -0.63003     0.10014
0.13749    0.061489      0.1664     0.35544       3.764    -0.59267    0.081627
0.15503    0.070259     0.18524     0.36648      3.2316    -0.41403    0.055968
0.16803    0.072533     0.19304     0.34375      2.1315    -0.14866     0.03453
0.16868    0.066362     0.17874     0.28008     0.52142     0.13652    0.019589
0.14821    0.046223     0.13782      0.1703     -1.3988     0.38435 -0.00022403
0.10047   0.0049729    0.065712   0.0078962     -3.2853     0.56299   -0.041475
0.022188   -0.056741   -0.034978     -0.2016     -4.8509     0.65719    -0.11391
-0.080127     -0.1295    -0.14834    -0.42637     -4.9695     0.65881    -0.21655
-0.19089    -0.19543    -0.25585    -0.61898     -4.9695     0.57046    -0.33315
-0.29547    -0.24091    -0.33835    -0.74501     -4.7096     0.41585    -0.43806
-0.3848    -0.26169    -0.38512     -0.7973     -3.1002     0.22812    -0.51212
-0.45658    -0.26137    -0.39519    -0.79113     -1.3485    0.024461     -0.5537
-0.50887    -0.25195      -0.377    -0.75378    0.096569    -0.19283    -0.57416
-0.53811    -0.24058    -0.34355    -0.70765      1.0005    -0.42377    -0.58715
-0.54428    -0.23441    -0.30684    -0.66965      1.4783    -0.66543    -0.59819
-0.53226    -0.23863    -0.28086    -0.64692      1.7697    -0.90546    -0.61151
-0.50725    -0.25487    -0.27241    -0.63847      2.0428     -1.1189     -0.6245
-0.47314    -0.27306    -0.27631    -0.63262      2.3364     -1.2777    -0.63165
-0.43319    -0.28248    -0.28573    -0.61411      2.5762     -1.3573    -0.62515
-0.38999    -0.27696    -0.29385    -0.57773      2.6164     -1.3482    -0.59819
-0.3442     -0.2591     -0.2919    -0.52511      2.3783     -1.2657    -0.55077
-0.2945    -0.23733    -0.27664    -0.46178      1.9535     -1.1507    -0.48841
-0.24286    -0.21557     -0.2474    -0.38772      1.5264     -1.0455    -0.41533
-0.19316    -0.19056    -0.20615    -0.30652      1.2542    -0.97984    -0.33737
-0.14639    -0.15548    -0.15386    -0.22142      1.2068    -0.95548    -0.25975
-0.10286    -0.10514    -0.09182    -0.13437      1.3536    -0.94574    -0.18634
-0.064861   -0.045372   -0.028482   -0.046022      1.5904    -0.90839    -0.12073
-0.034329    0.008221     0.02706    0.037454      1.7878    -0.80802   -0.064861
-0.010618    0.044275    0.067661     0.10761      1.8372    -0.64432   -0.024909
0.0043233    0.063113    0.090397     0.15601      1.6868    -0.43969  -0.0024977
0.014392    0.073182    0.098193     0.18004      1.3786    -0.22986   0.0069217
0.022837    0.078379    0.096244     0.18784      1.0148   -0.040825    0.014068
0.032906    0.079029    0.093645     0.19596     0.69909     0.11021    0.028359
0.048497    0.075131    0.092346      0.2083     0.47205     0.21155    0.051096
0.072858    0.068635    0.092671     0.22324     0.30574     0.25735    0.074806
0.097218     0.06019    0.089748     0.23396     0.14626     0.24695    0.089423
0.11443    0.054668    0.080978     0.23396   -0.041475     0.19109    0.090397
0.1258    0.058891    0.070909     0.22357     -0.2461     0.10599    0.079679
0.14042    0.074806    0.067011     0.21707    -0.42832    0.011794    0.063763
0.16315    0.096569    0.072858     0.22487    -0.54428   -0.062587    0.053694
0.18881     0.11768    0.087474     0.24793    -0.55824   -0.094093    0.053694
0.20733     0.13327     0.10891     0.27716    -0.47542   -0.075579    0.068635
0.2109     0.14269       0.131     0.30574    -0.35037   -0.013541     0.10112
0.20213     0.14659     0.14886      0.3327    -0.26364    0.078704     0.14821
0.18492     0.14659     0.15958     0.35674    -0.27436     0.17615     0.19986
0.1664     0.14302     0.16185      0.3759    -0.39811     0.24955      0.2489
0.15536     0.13814     0.15373     0.38727    -0.59819     0.27944     0.28203
0.15373     0.13717     0.13944     0.39409    -0.80932     0.26092      0.2895
0.16088     0.14269     0.12775     0.39669    -0.98114     0.20343     0.26904
0.17062     0.14984      0.1258     0.38922      -1.087      0.1232     0.23136
0.17225     0.15114      0.1323     0.36518     -1.0958    0.038428     0.19661
0.15861     0.14074     0.13912     0.32296    -0.96393   -0.031081     0.17842
0.13392     0.11963     0.13814     0.27586    -0.66998   -0.068434     0.18134
0.10469    0.091372     0.13067     0.23494    -0.23181   -0.071032     0.20083
0.080328    0.064737      0.1206     0.20505     0.29665   -0.042449     0.22747
0.066362    0.048822     0.11086     0.18914     0.81732     0.01017     0.24825
0.065712    0.046223     0.10242     0.19044      1.2107    0.087799     0.25995
0.07773    0.055643     0.10047     0.20376      1.3532     0.19791     0.26417
0.09397     0.06961     0.10859      0.2187      1.1853      0.3379     0.26287
0.10599    0.077405     0.12223     0.22519     0.76112     0.48341     0.25248
0.11183    0.073507     0.13035     0.21805     0.22389     0.58898     0.22909
0.11216    0.058891     0.12613     0.19304    -0.31626     0.61886     0.19141
0.10859    0.038103     0.10404     0.14886     -0.8012     0.56137     0.14269
0.097543    0.015042     0.06961    0.092346     -1.1634     0.43534    0.091047
0.081303  -0.0054209    0.033556    0.037454     -1.3063     0.27099    0.045249
0.067336   -0.021661   0.0052977   0.0010752     -1.2059     0.10306    0.014068
0.061814   -0.029457  -0.0089938  -0.0073698    -0.94606   -0.037252   0.0052977
0.061489   -0.024585   -0.010293    0.009845    -0.65601    -0.13957    0.020564
0.057592  -0.0050961  -0.0018481    0.042651    -0.43417    -0.21135    0.054019
0.044599    0.023162    0.013743    0.074482    -0.30522     -0.2565    0.093321
0.022188    0.051096    0.031932    0.091047    -0.24156    -0.26981     0.12775
-0.010618    0.072858    0.045574    0.091372    -0.19738       -0.25     0.15016
-0.054467     0.08585    0.054668    0.082927    -0.13697    -0.20648     0.15309
-0.10449    0.088773    0.061489    0.073182   -0.054467    -0.15158     0.13327
-0.14769     0.08585    0.064737    0.067011     0.02706    -0.10449    0.094295
-0.17594    0.079354    0.064413    0.060515    0.069934   -0.085648    0.045249
-0.18309     0.06831    0.060515    0.046548    0.047523    -0.10384  -0.0034721
-0.1701    0.054344    0.050446    0.026085   -0.037252    -0.14736   -0.045697
-0.14152    0.039402    0.038428   0.0059473    -0.15841    -0.18049   -0.073955
-0.10319    0.027709    0.026085   -0.010943    -0.27501    -0.17335   -0.084674
-0.052843    0.024137    0.016341   -0.021012    -0.35426    -0.11683   -0.073955
0.0091954    0.033231    0.013093   -0.020037    -0.38187   -0.022311   -0.047646
0.082602    0.044924    0.013418  -0.0067202    -0.36921    0.080653   -0.012892
0.16121    0.049472    0.011794    0.011144    -0.33737     0.16088    0.024137
0.23754    0.046548   0.0026992    0.025111    -0.29937     0.20538    0.059865
0.3012    0.044275   -0.010943    0.029333    -0.26819     0.21935    0.089098
0.33823    0.053369   -0.025559    0.024137     -0.2487        0.22     0.10794
0.3418    0.067336   -0.038551    0.015042    -0.23474     0.22357     0.11768
0.31094    0.073182   -0.047646   0.0052977    -0.21037     0.24143     0.11833
0.25475    0.066362   -0.050894  -0.0057458    -0.16295     0.27164     0.11346
0.18979    0.049796   -0.047646   -0.017764   -0.088572     0.31127     0.10306
0.1323    0.030308   -0.037902   -0.031406   0.0056225     0.35187     0.08585
0.089748    0.011794   -0.021012   -0.044073     0.10306     0.39409    0.064088
0.059216  -0.0073698 -0.00022403   -0.053168     0.18069     0.43307    0.042975
0.038103   -0.029457    0.014068   -0.056091        0.22     0.46685    0.022512
0.023162   -0.056091    0.016016   -0.057065     0.21188     0.49478   0.0043233
0.0088706   -0.082076   0.0036737   -0.058365      0.1677     0.51979   -0.010943
-0.00022403    -0.10189   -0.018088   -0.064861     0.10956     0.53896   -0.019712
0.00075039    -0.11098   -0.041475   -0.073955    0.051745     0.54903   -0.017439
0.0095202    -0.10579   -0.055116   -0.076554  0.00042559        0.55   -0.007045
0.019914   -0.089221   -0.053168   -0.066485   -0.038227     0.54545   0.0078962
0.019914   -0.064211   -0.034654   -0.043748   -0.055766     0.53506    0.021863
0.0017248   -0.036278   -0.007045   -0.017764   -0.042124      0.5146    0.029009
-0.032705  -0.0093186    0.021538      0.0014  -0.0093186     0.47757    0.026735
-0.068758    0.013418      0.0433   0.0078962     0.01764     0.41845    0.014392
-0.090521    0.031282    0.054668   0.0052977    0.030633     0.33368   0.0010752
-0.09182    0.043625    0.055643   0.0046481    0.027709     0.22909  -0.0041217
-0.074605     0.05142     0.05142   0.0088706     0.01017     0.11346   0.0017248
-0.054467    0.055968    0.045899    0.012768   -0.013216  -0.0099683    0.011469
-0.037577    0.058241    0.038428   0.0078962   -0.033354    -0.13957    0.014068
-0.024909    0.059541    0.024461  -0.0099683   -0.042124    -0.26364   0.0078962
-0.0093186    0.055643   0.0010752   -0.039201   -0.043099    -0.36953  -0.0037969
0.0046481    0.049147   -0.025234   -0.070058   -0.048296    -0.44651    -0.01614
0.012119    0.043625   -0.045697   -0.096042   -0.067134    -0.48256   -0.026209
0.0091954    0.040702   -0.055441    -0.11456    -0.10741    -0.47217   -0.036927
-0.0054209    0.040377   -0.055766    -0.12365    -0.16977    -0.42117   -0.045697
-0.024585    0.037129   -0.054142      -0.123    -0.23571    -0.34549   -0.056091
-0.042124    0.025436   -0.050894    -0.11488    -0.27631    -0.25682   -0.071032
-0.058365   0.0065969   -0.046022    -0.10189    -0.26462     -0.1701   -0.090845
-0.073955   -0.014516   -0.043748   -0.085973    -0.19251    -0.10351    -0.11456
-0.089221   -0.033354   -0.044073    -0.06681    -0.07428   -0.071032    -0.13729
-0.10286   -0.046996   -0.046022   -0.046996    0.065062   -0.070382    -0.15158
-0.11358   -0.053168   -0.046671   -0.032055     0.21123   -0.089546    -0.15386
-0.11748   -0.052518   -0.046671   -0.029132     0.35219    -0.11001    -0.14379
-0.11033   -0.046022   -0.049595   -0.035953     0.48147    -0.11131    -0.12138
-0.092794   -0.037577   -0.051868   -0.044723     0.57988   -0.079477   -0.092794
-0.068434    -0.03173   -0.051219   -0.048945     0.62536  -0.0063954   -0.061937
-0.042124   -0.027833   -0.046671   -0.044073     0.59937     0.10436   -0.034004
-0.018738   -0.024909   -0.041799   -0.034004     0.49413     0.23591  -0.0089938
-0.0044465   -0.021012   -0.040825   -0.027833     0.31062     0.37006     0.01894
0.00042559   -0.019063   -0.041799   -0.030106    0.069934     0.48731    0.056942
-0.0037969   -0.019388   -0.042124   -0.039201    -0.18309     0.56851     0.10144
-0.013541   -0.019712   -0.041475   -0.048945    -0.39974      0.5958     0.14269
-0.030431   -0.021337   -0.039526   -0.052843    -0.53908     0.56039     0.16543
-0.04862   -0.023935   -0.034654   -0.047971    -0.58423     0.47367     0.16445
-0.065186   -0.025559   -0.026209   -0.036927    -0.54785     0.34992     0.13912
-0.075904   -0.026209   -0.014516   -0.023285    -0.46405      0.2057    0.090397
-0.082076   -0.024585  -0.0034721  -0.0096434    -0.37343    0.057917    0.022512
-0.090521   -0.019388   0.0062721  0.00010078    -0.29937   -0.080127   -0.052193
-0.10189   -0.010293    0.011469     0.01017       -0.25    -0.19641    -0.11553
-0.11066   0.0010752    0.014717    0.018615    -0.22207    -0.29385    -0.15581
-0.11553    0.009845    0.017316    0.027385     -0.2029      -0.377    -0.16198
-0.11618    0.011144    0.023812     0.03453    -0.16653    -0.43449    -0.13957
-0.11553   0.0049729    0.036804    0.042326   -0.079477    -0.43352    -0.10026
-0.10968  -0.0047713    0.054993    0.057267    0.072533     -0.3403   -0.058365
-0.096042  -0.0096434    0.070909    0.084226     0.27067    -0.15093   -0.025559
-0.076554  -0.0041217    0.081952     0.11801     0.47075     0.11866  -0.0080194
-0.050244     0.01017    0.084226     0.15373     0.65784     0.43892  -0.0031473
-0.016789    0.024461    0.075781     0.18751     0.83713     0.76665 -0.00022403
0.021538    0.030957     0.06084     0.21837      1.0197      1.0414    0.012119
0.064413     0.02706    0.046548     0.24046      1.2055      1.1993    0.036804
0.10729    0.016341    0.040052      0.2515      1.3666      1.1957    0.074806
0.14886   0.0091954    0.042651      0.2528      1.4383        1.02     0.11606
0.18751    0.014392     0.05207     0.24858       1.299     0.69649     0.14951
0.22227    0.028684    0.065387     0.24273     0.85369     0.27132     0.15926
0.24825    0.044275    0.082602     0.24403     0.14432    -0.19446     0.14432
0.2619    0.059865     0.10794       0.258    -0.66251    -0.61573     0.11833
0.26287    0.076106     0.13944     0.28138      -1.356    -0.92203     0.10079
0.2541      0.0865     0.16445     0.29665     -1.7665     -1.0958     0.10209
0.24436    0.088124      0.1729     0.29243     -1.8571     -1.1741     0.12613
0.24663     0.07773     0.16283     0.26774     -1.7444     -1.2072     0.16575
0.26384    0.059541     0.13717     0.22259     -1.6103     -1.2332      0.2109
0.28528    0.035505    0.094945     0.15991     -1.5548     -1.2722     0.24825
0.29275    0.008221    0.041676     0.08585     -1.5155     -1.3076      0.2606
0.26384    -0.01549   -0.014516    0.008221     -1.3975     -1.2972     0.23234
0.19076   -0.027183   -0.067459   -0.072331     -1.2702     -1.2134      0.1703
0.083901   -0.021661    -0.11358    -0.15386     -1.3063     -1.0571    0.092671
-0.0405  -0.0018481    -0.14996    -0.23181     -1.5346    -0.85901    0.022837
-0.16328    0.020564    -0.17594    -0.29482     -1.7701    -0.66705   -0.024585
-0.27144    0.026085    -0.19413    -0.34225     -1.7298    -0.53128   -0.054792
-0.35816  -0.0015233    -0.20745    -0.37245     -1.2075    -0.47737   -0.078178
-0.41793   -0.060638    -0.21947    -0.39162    -0.23506    -0.49588    -0.10514
-0.43774    -0.12982    -0.23149    -0.41013     0.88715    -0.54882    -0.13502
-0.41078    -0.17789    -0.24253    -0.44034      1.7255    -0.60144    -0.16718
-0.34939    -0.18309       -0.25    -0.49426      1.9571    -0.65081    -0.20258
-0.28216    -0.15126    -0.25975    -0.57189      1.4487    -0.71805    -0.25033
-0.23506    -0.10416    -0.27631    -0.65991     0.40156    -0.80282    -0.30814
-0.2172   -0.070707    -0.30067    -0.73526    -0.66478    -0.86194    -0.36336
-0.22304   -0.063886    -0.32601    -0.77164      -1.216    -0.83271    -0.40461
-0.23474   -0.078503    -0.33932    -0.75345     -1.0529     -0.6742    -0.42182
-0.23798   -0.097017    -0.33315    -0.68589     -0.3403    -0.39357    -0.41435
-0.22954    -0.10319    -0.31009    -0.58845     0.57533   -0.035628    -0.38642
-0.21655   -0.086948    -0.27826    -0.48938      1.3896     0.33173    -0.34484
-0.20453   -0.049595    -0.24513    -0.41338      1.9515      0.6364      -0.288
-0.19316 -0.00087364     -0.2133    -0.36628       2.215     0.82186    -0.21687
-0.17952    0.044599    -0.17984    -0.33575      2.1753     0.85889    -0.14379
-0.161    0.070584    -0.14541    -0.30912      1.8385     0.76015   -0.084024
-0.14152    0.071558    -0.11358    -0.28053      1.3435     0.57793   -0.050244
-0.12008     0.05207   -0.085648    -0.24643     0.96023      0.3785   -0.041799
-0.097017    0.022837   -0.062912    -0.20453     0.80595     0.20148    -0.04862
-0.072656  -0.0011985   -0.043099    -0.15548      0.7634    0.055643   -0.057065
-0.044723  -0.0099683   -0.021337   -0.097017     0.67895   -0.075255   -0.053492
-0.012892  -0.0044465    0.008221   -0.027833     0.53993    -0.22694   -0.039201
0.01829   0.0088706    0.045249    0.049147     0.46393    -0.42377   -0.027833
0.041676    0.025111    0.080328     0.12937     0.55325    -0.63847    -0.03173
0.058566    0.039402     0.10729     0.20603     0.77217    -0.79828   -0.051868
0.071558    0.048497      0.1232     0.27294     0.97517    -0.82459   -0.078503
0.080003    0.053369     0.13295     0.32523      1.0177    -0.68167   -0.095068
0.084876    0.056617     0.14561     0.36291     0.81927    -0.39194   -0.090521
0.0865    0.057267     0.16673      0.3876     0.38825   -0.018413   -0.059989
0.091696    0.060515     0.19141     0.40384     -0.1597     0.36908   -0.010293
0.10599    0.067011     0.21252     0.41326    -0.65504     0.71533    0.042651
0.1258    0.072858     0.22552     0.41423    -0.95646     0.97842      0.0865
0.14399    0.074806     0.22162     0.41098     -1.0172      1.1311     0.11573
0.15568    0.072858     0.20116     0.40741    -0.88403      1.1636     0.13262
0.15828    0.065387      0.1729     0.40676    -0.66251       1.098     0.13847
0.15796    0.054344     0.14691     0.40546    -0.44651      0.9677      0.1349
0.15861      0.0433      0.1284     0.40741    -0.28768     0.81634     0.12548
0.15991     0.03583     0.12125     0.41748    -0.20063     0.68577     0.11768
0.16185    0.037454      0.1271     0.42787    -0.16328     0.60522     0.11638
0.1651    0.051096     0.14464     0.43145    -0.14314     0.57014     0.12093
0.17387    0.074157     0.16705     0.42722   -0.095068     0.55585      0.1271
0.18004    0.099167     0.18654     0.41066    0.044599     0.53408     0.13262
0.17647     0.11995     0.19953     0.38565     0.31419     0.47952     0.13327
0.1625     0.13067     0.20311     0.35901     0.67148     0.38337      0.1258
0.14107     0.13132     0.20148     0.33758     0.96673     0.27521     0.11281
0.11606      0.1219     0.19888     0.32523      1.0824     0.19271    0.097868
0.093645     0.10664     0.19596     0.32134      1.0551     0.16413    0.087474
0.082602    0.092671     0.19141     0.32231      1.0301     0.20083    0.085525
0.081627    0.082277     0.18524     0.32686      1.0772     0.29795    0.090722
0.088124    0.074482     0.17777       0.334      1.1334     0.43145    0.099167
0.095594    0.066037     0.16738      0.3379      1.0924     0.56137     0.10989
0.10209    0.053044     0.15503     0.33011     0.90696     0.64712     0.12125
0.10177    0.038103     0.14367     0.30542     0.63413     0.65296     0.12743
0.096244    0.025436     0.13132     0.26937     0.38565     0.57436     0.12255
0.084551    0.019589     0.11411     0.22877      0.2554     0.44184     0.10696
0.070259    0.023487     0.09397     0.18622     0.26677      0.3012    0.084226
0.062464    0.032906    0.075456     0.14724     0.37623     0.18784    0.066362
0.06831    0.041027    0.058241     0.11054     0.49738     0.12353    0.059865
0.083251    0.041027     0.04395    0.078055     0.56916     0.11281    0.062139
0.10079    0.031932    0.033231     0.05142     0.58346     0.14204    0.067986
0.11378    0.016341    0.022512    0.031282     0.54123     0.18719     0.06961
0.11866   0.0017248    0.010495    0.014068     0.45581     0.22454    0.063438
0.11573  -0.0096434  -0.0024977   0.0020496     0.33205     0.24371    0.047523
0.10826   -0.013541   -0.012567  -0.0060706     0.15016     0.24078    0.025436
0.10209  -0.0083442   -0.016789  -0.0093186    -0.11683      0.2174   0.0059473
0.09397   0.0078962    -0.01614  -0.0031473    -0.47379     0.17939   0.0023744
0.075131    0.032582  -0.0099683    0.012768    -0.89182     0.13522    0.030633
0.045249    0.060515  0.00010078    0.030308     -1.3189      0.0852    0.089423
0.0095202    0.084551    0.012768    0.044924     -1.6921    0.023487     0.16218
-0.021337    0.094295    0.027709    0.055318     -1.9604   -0.055766     0.22552
-0.042124      0.0865    0.038428    0.062139     -2.0751    -0.13892     0.26092
-0.051544    0.061814    0.042975    0.067336     -2.0079    -0.18959     0.26027
-0.048296     0.03453    0.039078    0.073507     -1.7808    -0.17237     0.23591
-0.032705    0.013093    0.029658    0.079354     -1.4901   -0.074605     0.21025
-0.0089938  0.00042559    0.020239    0.080328     -1.2796    0.083251     0.19986
0.014068  -0.0057458     0.01017     0.06831     -1.2433     0.24598     0.19856
0.02706   -0.010618  -0.0060706     0.03453      -1.404      0.3392     0.18622
0.026085   -0.015815   -0.029457   -0.018413     -1.6736     0.31094     0.14756
0.0075714   -0.021012   -0.054792   -0.084349     -1.8636     0.15341    0.087799
-0.018738   -0.027183   -0.075904    -0.14769     -1.8107   -0.098316    0.014717
-0.046347   -0.035953   -0.088572    -0.19348     -1.4804    -0.39064   -0.057715
-0.068434   -0.045372   -0.093444    -0.21525    -0.97465    -0.66835    -0.11358
-0.0824   -0.053168   -0.086948    -0.21525    -0.45366    -0.88305    -0.14314
-0.086623   -0.056091   -0.068109    -0.19868   -0.058689    -0.99024    -0.14736
-0.081751   -0.051219    -0.04115    -0.17172     0.15081    -0.96393    -0.13729
-0.073306   -0.040825   -0.016789    -0.14119     0.19434    -0.81354    -0.12527
-0.067134   -0.027508  -0.0011985    -0.11293     0.13327    -0.58163    -0.11163
-0.05804   -0.015165   0.0033489   -0.092145    0.029009    -0.32763   -0.095068
-0.040825  -0.0044465   0.0039985   -0.076229   -0.068758    -0.10416   -0.072656
-0.01614   0.0052977   0.0062721   -0.057715    -0.12463    0.056942   -0.044398
0.014068    0.014717   0.0078962   -0.033354     -0.1217     0.14529   -0.018413
0.042326    0.016991   0.0039985   -0.007045   -0.060313      0.1664 -0.00087364
0.062139    0.012443   -0.007045    0.013093    0.053044     0.14107   0.0023744
0.071558   0.0052977   -0.019388    0.026735     0.19661    0.097218  -0.0047713
0.075456  -0.0015233   -0.023285    0.037778     0.32978    0.058241   -0.012242
0.070584  -0.0044465   -0.021337    0.048497     0.41553    0.029009   -0.014516
0.057917  0.00042559   -0.015165    0.057917     0.43892   0.0023744   -0.014191
0.040377     0.01017  -0.0073698    0.061165     0.41326   -0.021986   -0.018088
0.025111    0.019264   0.0020496    0.054344     0.36616   -0.029132   -0.027833
0.013093    0.022512   0.0088706     0.03453     0.32231 -0.00022403   -0.044723
0.0033489     0.01894   0.0072465    0.008221     0.31127    0.057592   -0.063237
-0.0021729   0.0091954  -0.0057458    -0.01549     0.36096     0.11054   -0.077203
-0.0015233  -0.0034721   -0.028157   -0.030106     0.47789     0.11801   -0.086948
0.0020496   -0.013541    -0.04992   -0.034654     0.62373     0.06084   -0.091495
0.0026992   -0.019388   -0.060313   -0.034978     0.74131   -0.056091   -0.092794
0.0010752   -0.024909   -0.056416   -0.036278     0.78484    -0.20453   -0.088247
-0.0037969   -0.031081   -0.046022   -0.039851     0.74066    -0.35037   -0.075255
-0.013216   -0.038551   -0.037252   -0.046996     0.62828      -0.466   -0.055116
-0.019712   -0.046347   -0.034004   -0.053168     0.48374    -0.54915   -0.032055
-0.02361   -0.052193   -0.035303   -0.055116     0.34245    -0.60859   -0.011917
-0.025234   -0.053817   -0.036602   -0.056741     0.22682    -0.65309   0.0065969
-0.029132   -0.052193   -0.036278   -0.056416     0.15016    -0.68622    0.022188
-0.034004    -0.04862   -0.034329   -0.057715     0.10501    -0.71253     0.03583
-0.037577   -0.045047   -0.032055   -0.063561    0.081952    -0.73559    0.044599
-0.036278   -0.041475    -0.03173   -0.076229     0.06961    -0.75313    0.049472
-0.031081   -0.038876   -0.030106   -0.090196    0.062139    -0.75475    0.046548
-0.022311   -0.038551   -0.022961   -0.099615    0.058891    -0.72942    0.031932
-0.010943   -0.042124   -0.012567    -0.10221    0.058241    -0.66933   0.0069217
0.0056225    -0.04862  -0.0083442    -0.09994    0.064088    -0.57383   -0.023285
0.020888   -0.055116   -0.013541   -0.096692    0.076431     -0.4543   -0.055441
0.02706   -0.062262   -0.022311   -0.093444    0.084876    -0.33023   -0.084674
0.023162   -0.067459   -0.024909   -0.086623    0.070909    -0.22077    -0.11196
0.012768   -0.068758   -0.022636   -0.072656    0.036804    -0.13989    -0.13697
-0.0044465   -0.062912   -0.016789   -0.056741   0.0065969   -0.073955    -0.15483
-0.027183   -0.055116    -0.01549   -0.045372   0.0049729  -0.0037969    -0.16165
-0.054792   -0.053168   -0.021986   -0.044723    0.034855    0.069285    -0.15776
-0.084674   -0.063237   -0.037577   -0.052193    0.077405      0.1297    -0.14931
-0.11261   -0.082076   -0.055766   -0.062912     0.10956     0.18004    -0.14022
-0.13015    -0.10254   -0.068758   -0.070058     0.11703     0.24143    -0.12365
-0.12657    -0.12105   -0.069083   -0.067134     0.10047     0.33465   -0.090196
-0.095717    -0.13664   -0.060963   -0.053492    0.073182     0.46555   -0.040825
-0.042774    -0.14281   -0.051219   -0.034654    0.049796     0.61431   0.0095202
0.022188    -0.13047   -0.045697   -0.019063    0.032906     0.74066    0.041027
0.08585   -0.091495   -0.046022    -0.01614    0.015042       0.804    0.042326
0.12807   -0.027833   -0.051219   -0.030431   -0.014516     0.78029    0.010495
0.13587    0.053044   -0.059014   -0.054467   -0.059664     0.66433   -0.038876
0.11411     0.12905   -0.062587   -0.075904    -0.11521     0.48244   -0.085973
0.077405     0.18199   -0.059989   -0.091495    -0.17432     0.26872    -0.11131
0.032257     0.19369   -0.058365    -0.10514    -0.22661    0.046873    -0.11748
-0.021337     0.16185   -0.067134    -0.11975    -0.26169    -0.16945    -0.11488
-0.079477    0.095269   -0.086948    -0.13404    -0.27371    -0.36076    -0.10384
-0.13567    0.011469    -0.11293    -0.14152    -0.25877    -0.50173   -0.070382
-0.18277   -0.069083    -0.13762    -0.13859    -0.21914    -0.57351 -0.00022403
-0.21427     -0.1295    -0.15353    -0.12625    -0.15581    -0.57091     0.10859
-0.22986    -0.15288    -0.15646    -0.10481   -0.069733    -0.49263     0.23883
-0.22954    -0.13145    -0.13729    -0.07493    0.023487    -0.34939     0.36356
-0.20843   -0.072981   -0.096692   -0.039851     0.10891    -0.15841     0.46295
-0.16165   0.0062721   -0.045372  -0.0015233     0.17517    0.054993     0.52369
-0.084349    0.089423   0.0026992    0.031607     0.21707     0.25865     0.54253
0.01894     0.16803    0.040702    0.050771     0.23429     0.42073     0.51914
0.131     0.24046    0.065062    0.052395     0.23331     0.52531     0.45418
0.22584      0.2986    0.080328    0.045574     0.22877     0.57923     0.35154
0.28268      0.3366    0.088448    0.039727     0.22974     0.60847     0.21642
0.29178     0.34829    0.091696    0.040702     0.23948     0.65199     0.06961
0.26449     0.33368    0.098193    0.050446     0.25475     0.74911   -0.060638
0.22194     0.29535     0.10729    0.066037     0.26904     0.91768    -0.15581
0.18719     0.24078     0.11606    0.079354     0.28008      1.1366     -0.2042
0.1703     0.17745     0.11541    0.082602     0.29633      1.3617    -0.20031
0.16933     0.11736     0.10501    0.080003     0.33985      1.5459    -0.15158
0.17192    0.073182    0.089423    0.078379     0.42787      1.6381    -0.06681
0.16283    0.053044    0.072533     0.08585     0.56039      1.5959    0.037129
0.13262    0.053694    0.059216     0.10469     0.70721      1.3939     0.14886
0.082602    0.066686    0.054019     0.12807     0.82641       1.057     0.24988
0.024461    0.081627    0.054993     0.14529     0.87318     0.66141     0.32004
-0.027183    0.088448    0.059865     0.14756     0.82316      0.2947     0.35122
-0.054467    0.089098    0.065387     0.13425     0.67927  0.00010078     0.34797
-0.050244      0.0852    0.068635     0.10859     0.45191    -0.24578     0.32556
-0.018738    0.072533    0.067986    0.080003     0.10989    -0.50108     0.29892
0.029333    0.048172    0.062789    0.053694    -0.39032    -0.82394     0.28268
0.082927    0.017965    0.054993    0.033881    -0.97562     -1.2147     0.28496
0.12418  -0.0041217    0.051745    0.030308     -1.4706     -1.5879     0.31451
0.14009  -0.0076946    0.064413    0.054993     -1.7191     -1.8276     0.36778
0.12807   0.0091954    0.096893     0.10859     -1.6788     -1.8646      0.4282
0.10047    0.041027     0.13944     0.17939     -1.4401     -1.7211     0.47659
0.075456    0.076106     0.17452     0.25053     -1.2131     -1.4859     0.49186
0.062139     0.10826     0.19596     0.30997     -1.1621     -1.2576     0.46977
0.063113     0.13197     0.20668     0.35576     -1.2546     -1.0948     0.41391
0.080328     0.14302     0.21025     0.39344     -1.3478    -0.99868       0.334
0.10469     0.14367     0.20993     0.41553      -1.381    -0.93502     0.24436
0.12743      0.1362      0.2044     0.41261     -1.3807    -0.85869     0.15861
0.14042     0.12125     0.19369     0.37298     -1.3706    -0.72877    0.083251
0.13749     0.10274     0.18102     0.30055     -1.2839    -0.51894    0.021538
0.11833    0.079354       0.169      0.2148     -1.0149    -0.21849   -0.031406
0.084551     0.05207     0.15438      0.1323    -0.54817     0.15763   -0.083375
0.040052    0.020564     0.13165    0.062789  -0.0028225     0.56981    -0.14022
-0.015815   -0.015815     0.09397  -0.0011985     0.46847     0.96153    -0.21167
-0.084024   -0.056091    0.037129   -0.082725     0.74521      1.2714    -0.30294
-0.16523    -0.09929   -0.041475    -0.20355     0.74001        1.45    -0.41046
-0.24903    -0.14704    -0.13567    -0.36726     0.49771      1.4689    -0.51927
-0.32698    -0.19738    -0.23116     -0.5498     0.17907      1.3156    -0.60989
-0.39194     -0.2487    -0.31334     -0.7109    0.019589      1.0028    -0.67258
-0.43709     -0.2958    -0.37083    -0.81776     0.26287     0.59547    -0.70571
-0.4608    -0.32698    -0.40006    -0.85317      0.9232     0.17907    -0.71837
-0.46307    -0.33348    -0.39909    -0.82523      1.6985    -0.18309    -0.72454
-0.45106    -0.31659    -0.37375    -0.75215      2.1786    -0.47152    -0.73007
-0.42994     -0.2854    -0.33348    -0.65569      2.1149    -0.69336    -0.73689
-0.39616     -0.2526    -0.29255    -0.55597      1.5595    -0.86746    -0.74078
-0.34809    -0.22986    -0.26299     -0.4647     0.80432      -1.013    -0.73884
-0.28833    -0.22174     -0.2435    -0.38837     0.10566     -1.1341    -0.73039
-0.22856    -0.22986    -0.23149    -0.33802    -0.41403     -1.2043    -0.71448
-0.18829    -0.25195    -0.22499    -0.32243    -0.76352     -1.1903    -0.68719
-0.18114    -0.27501    -0.21947     -0.3377    -0.99478     -1.0695    -0.64464
-0.20193    -0.27858    -0.20745    -0.35816     -1.0828    -0.85219    -0.58358
-0.22791     -0.2487    -0.18277    -0.35491    -0.90416    -0.58553     -0.5066
-0.23376    -0.18179    -0.14639    -0.30749    -0.34744    -0.32925     -0.4202
-0.20355   -0.093444    -0.10319    -0.20778     0.54545    -0.12268    -0.33445
-0.13827   -0.013216   -0.065835   -0.069733      1.5761    0.021213    -0.25455
-0.051219    0.033556   -0.040825    0.073507       2.494     0.10209    -0.18212
0.037778    0.040052   -0.025559     0.18751      3.0939     0.13327    -0.12105
0.11411    0.014068   -0.016789     0.25378      3.2911     0.14724   -0.073631
0.16608   -0.020687   -0.013541     0.27391      3.1153     0.17582   -0.046022
0.18914   -0.036927    -0.01484      0.2593      2.6544     0.22974   -0.034329
0.18297   -0.020687   -0.017439     0.22617      1.9376     0.29015   -0.036927
0.15309    0.022188   -0.017764     0.18459     0.88033     0.32458    -0.04862
0.10566    0.070909   -0.014191     0.14172     -0.5459     0.30412    -0.06551
0.047847     0.10274  -0.0050961     0.10534      -2.002     0.22389   -0.075579
-0.0073698     0.10729   0.0065969      0.0852     -3.0076     0.11963   -0.064536
-0.046996    0.086824     0.01894    0.084876     -3.2347    0.046548   -0.024909
-0.059989    0.056292    0.033231     0.10404     -2.6588    0.047198     0.03453
-0.04862    0.025761     0.05207      0.1323     -1.5564     0.13002    0.096244
-0.023935   0.0043233    0.076755     0.16478    -0.35491     0.26774     0.14074
0.0026992  -0.0028225     0.10177     0.19726     0.55974     0.42105     0.15568
0.026085   0.0020496     0.11736     0.22357      1.0301     0.55617     0.14496
0.045574    0.014392     0.11638     0.23916      1.1005     0.65491     0.11995
0.066037    0.027709    0.097543     0.23851     0.90372     0.71403    0.092346
0.090722    0.037129    0.070909     0.22682     0.60782     0.74748    0.073507
0.1206    0.042001    0.045899     0.20895     0.31711     0.77737    0.069285
0.15081    0.044924    0.031932     0.19499     0.06896     0.82219    0.082927
0.18199    0.045574    0.031282     0.19044    -0.13502     0.88065     0.10956
0.207    0.046223    0.041676     0.19563    -0.32113     0.92483     0.13814
0.2187    0.046873    0.057917      0.2057    -0.50985     0.92905     0.16121
0.21415    0.049472    0.073507     0.21642    -0.68232     0.88228     0.17387
0.19304    0.054019    0.082927     0.22227    -0.80315     0.79815     0.17387
0.15828    0.061814    0.087799     0.22259    -0.90839     0.68902     0.16705
0.11671    0.073507    0.095594     0.21902     -1.0896     0.56494     0.16121
0.072858    0.086824     0.10761        0.22     -1.3923     0.42625      0.1651
0.030957    0.097543     0.11995     0.22779     -1.7409     0.26449     0.17517
-0.0047713     0.10242     0.13035     0.24566      -1.966    0.089098     0.19109
-0.029782     0.10079     0.13847     0.27229     -1.8792   -0.055766     0.20895
-0.037902    0.099167     0.14756     0.30347     -1.4339    -0.12138     0.23039
-0.027183     0.10242     0.16088     0.33303    -0.75897   -0.090521     0.25215
-0.0044465     0.11118     0.17582     0.35771   -0.048296  -0.0024977     0.26839
0.024786      0.1206     0.18557     0.36876     0.53149    0.071234     0.27456
0.056617     0.12613     0.18589     0.36129     0.89949    0.073832     0.27132
0.084876      0.1245      0.1768     0.33498      1.0755   -0.010293     0.26644
0.10371     0.11054     0.15406     0.29633        1.12    -0.15938     0.26742
0.10696      0.0865     0.12515     0.25183      1.0609     -0.3377     0.27294
0.092346    0.059216    0.098193     0.21447     0.90794    -0.52186     0.27391
0.063438    0.031932    0.078704     0.19336     0.69486    -0.70603     0.26027
0.032906    0.012443    0.070584     0.19239     0.48959     -0.8772     0.23006
0.014068   0.0010752    0.074482     0.21058     0.36876     -1.0055     0.19531
0.016016  0.00010078    0.087149     0.23201     0.32686     -1.0617     0.16803
0.038103   0.0046481    0.095594     0.23396     0.26644     -1.0396     0.15049
0.069934    0.010495    0.088773     0.19628     0.11801    -0.95321     0.14042
0.10209    0.015692    0.065062     0.12743   -0.071357    -0.82978     0.13067
0.131    0.023162    0.031607    0.051096     -0.1662    -0.70408     0.11606
0.15373     0.03518 -0.00022403  -0.0067202    -0.10091    -0.60502    0.093321
0.16478     0.05142   -0.020362    -0.03303    0.055643    -0.53811    0.072858
0.15991    0.069934   -0.028157   -0.028482     0.23429    -0.48549     0.06831
0.14367    0.089098   -0.024909  -0.0060706     0.42008    -0.43482      0.0865
0.12353     0.10501   -0.013866    0.021538     0.59093    -0.38317      0.1258
0.10534     0.11801   0.0036737    0.044924     0.68869    -0.32828     0.17907
0.0865     0.13327    0.025761    0.062464     0.66141    -0.25552     0.23754
0.066686     0.15471    0.049147    0.075781     0.50453    -0.15841     0.28788
0.044599     0.18297    0.069934    0.083576     0.26417   -0.040175     0.32004
0.026735      0.2083    0.080328    0.081303    0.029009    0.091696     0.32686
0.016666     0.22292     0.07708    0.066037   -0.090196     0.22877     0.30867
0.011794     0.22162    0.063763    0.042326   -0.022636     0.36973     0.27132
0.0069217     0.20311    0.051096    0.016666     0.19174      0.5133     0.22584
-0.0031473       0.169    0.041676  -0.0050961     0.39669     0.65524     0.18134
-0.018088     0.12483     0.03583   -0.016464     0.45093     0.78451     0.14367
-0.032055    0.081627    0.036804   -0.014516     0.31451     0.88065     0.11248
-0.040825    0.047523    0.043625  0.00075039     0.02641     0.91638    0.084551
-0.041799    0.025111    0.050446    0.023162    -0.30132     0.87838    0.058241
-0.033354    0.013743    0.053369    0.042326    -0.53453     0.78808    0.033556
-0.017764    0.010819    0.051096    0.053369    -0.58683     0.68707    0.016016
0.0059473    0.012768    0.047523    0.054344    -0.46307     0.61204    0.013418
0.036479    0.023162    0.047523    0.051745    -0.23993     0.58216     0.03453
0.073182    0.044599    0.049147    0.053369   -0.018088      0.5893    0.083901
0.11346    0.073182    0.050121    0.061489     0.13295      0.5984     0.14984
0.15146    0.097868    0.047523    0.073182     0.18102     0.57436     0.20928
0.17387     0.11021    0.042001    0.080653     0.13684     0.50095     0.24501
0.1781     0.10566    0.034855    0.079354    0.042326     0.38467     0.25313
0.15926    0.088448    0.024461    0.072208   -0.051868      0.2502     0.23299
0.11573    0.066362    0.010495    0.061165    -0.10838     0.12775     0.19466
0.056942    0.049472  -0.0015233    0.049472    -0.11196    0.022188     0.15211
-0.00022403    0.040377  -0.0073698    0.036804   -0.064211   -0.086623     0.10989
-0.043748    0.036154  -0.0067202    0.022512   0.0059473    -0.22402    0.066037
-0.064211    0.033231  -0.0076946   0.0059473    0.047847    -0.40071    0.019589
-0.060313    0.026085   -0.016789   -0.011917    0.011469    -0.60242    -0.02361
-0.035953    0.014717   -0.031406   -0.026209    -0.12755    -0.79275   -0.054142
0.0023744   0.0010752   -0.044398   -0.035953    -0.38577    -0.92593   -0.069083
0.049472   -0.011592   -0.052193   -0.043099    -0.71058    -0.97205   -0.067459
0.099167   -0.026858   -0.054792   -0.049595    -0.99284    -0.93112   -0.053817
0.14334   -0.040825    -0.04927   -0.054467     -1.1588    -0.83336   -0.036927
0.17485   -0.047321   -0.039851   -0.055116     -1.2192    -0.71253   -0.027183
0.18557   -0.048296   -0.029132   -0.054467     -1.2238    -0.60047    -0.03173
0.17355   -0.046671    -0.02361   -0.055766     -1.1965    -0.51699   -0.046671
0.14009   -0.044723   -0.027833   -0.058689     -1.1328    -0.47087   -0.058689
0.092671   -0.043099   -0.036602   -0.059339    -0.96555    -0.45171    -0.05804
0.042975   -0.040175   -0.044398   -0.060963    -0.61411    -0.42735   -0.042124
0.00042559   -0.035628   -0.044723   -0.068109    -0.09929    -0.35719   -0.014191
-0.025234   -0.026858   -0.040825   -0.083375     0.43827     -0.2081    0.026735
-0.03238   -0.014516   -0.035953    -0.10838     0.83063    0.013093    0.079029
-0.022961  -0.0044465   -0.034004    -0.13924     0.98687     0.26092      0.1323
-0.0063954   -0.007045   -0.036927     -0.1675     0.91021      0.4701     0.16608
0.0075714   -0.023935   -0.044073    -0.18342     0.67992      0.5958     0.17355
0.01764   -0.048945   -0.053168    -0.18082     0.40449     0.63575     0.16153
0.025436   -0.069733   -0.058689    -0.16068     0.18492     0.60944     0.13977
0.034855   -0.078503   -0.055441    -0.13145    0.083576     0.54285     0.11638
0.04395   -0.071682   -0.042449    -0.09994     0.10859      0.4662    0.093321
0.051096   -0.053817   -0.025884   -0.076229     0.21252     0.41228    0.066362
0.05142   -0.032055   -0.015165   -0.064211     0.31354     0.40124     0.02641
0.046873   -0.010943  -0.0083442   -0.060638       0.347     0.42397   -0.029132
0.034855   0.0062721  -0.0060706   -0.056416     0.29243     0.45873   -0.097017
0.0088706    0.013743  -0.0060706   -0.045047     0.17485     0.48212    -0.16588
-0.030106   0.0091954   -0.010618   -0.032705    0.039727     0.49738    -0.22499
-0.073306   -0.010943   -0.019063   -0.027508    -0.06551     0.53668    -0.26429
-0.11131   -0.046022   -0.030431    -0.03303   -0.099615     0.64712    -0.27404
-0.12722   -0.089871   -0.043748   -0.046347   -0.064211     0.84687    -0.25162
-0.11358    -0.13047   -0.057065   -0.056416   -0.026858      1.1031    -0.20583
-0.075904    -0.15353   -0.061937   -0.055441   -0.076554      1.3432    -0.15256
-0.03173    -0.14834   -0.055766   -0.040175    -0.24968      1.4858    -0.10449
-0.0041217    -0.11456   -0.040175   -0.021986    -0.48711       1.466   -0.077203
-0.0044465   -0.063561   -0.022636    -0.01614    -0.64497      1.2555   -0.076879
-0.028807   -0.011267   -0.014191   -0.029457    -0.60079     0.86506    -0.10286
-0.062262    0.028684   -0.014191   -0.056416    -0.35979     0.33075    -0.14411
-0.089221    0.053044   -0.019063   -0.086623   -0.031406    -0.28346    -0.19056
-0.096692    0.067336   -0.025884    -0.10774     0.26807    -0.89962    -0.23506
-0.079802    0.069285   -0.037577    -0.11521     0.44671     -1.4505    -0.27046
-0.044723    0.060515   -0.055441    -0.11228     0.45808     -1.8763    -0.28833
-0.0054209      0.0433   -0.073631   -0.097666      0.3418     -2.1323    -0.27534
0.016341    0.023487   -0.084674   -0.073306      0.1755     -2.1979    -0.22564
-0.0018481   0.0023744     -0.0837   -0.047321   -0.054142     -2.0969    -0.15581
-0.063561   -0.019063   -0.071032   -0.033679    -0.46665     -1.8939   -0.098316
-0.15548   -0.040175   -0.056741   -0.043099       -1.05     -1.6684     -0.0824
-0.25325   -0.059339   -0.046671   -0.070058     -1.5723     -1.4752    -0.10514
-0.32601   -0.076554   -0.044723    -0.10091     -1.7766     -1.3115    -0.13502
-0.34095   -0.094743    -0.04992    -0.11748     -1.5697     -1.1218    -0.13957
-0.28411    -0.12073   -0.059339    -0.11391     -1.0445    -0.85382    -0.10546
-0.17205    -0.14801   -0.068434   -0.097666    -0.39811    -0.50173    -0.04115
-0.043099    -0.15905   -0.073306   -0.084999     0.17972    -0.11715    0.028359
0.071234    -0.13632   -0.067459   -0.080127     0.61788     0.20798    0.082927
0.16283   -0.067134   -0.046347   -0.077853     0.94464     0.39572     0.11346
0.23591    0.036154   -0.014516   -0.069083      1.1558     0.42397     0.12158
0.28885     0.14496    0.019589   -0.045372      1.1454     0.32718     0.11541
0.31484     0.22487    0.047198   -0.015165     0.75853     0.16185    0.098517
0.30672     0.25605    0.062139   0.0078962   -0.039526    -0.01484    0.070584
0.26319     0.23526    0.059216   0.0039985     -1.1403    -0.17075    0.030957
0.18946     0.17517    0.033556   -0.043099     -2.3245    -0.30587   -0.025884
0.096569     0.09462   -0.016464    -0.13794     -3.3165    -0.44683   -0.098316
0.0023744    0.016341     -0.0837    -0.25975      -3.807    -0.59625    -0.17335
-0.07428   -0.042774    -0.15093    -0.37408     -3.6043    -0.70018    -0.22856
-0.12333   -0.072656    -0.19998    -0.44976     -2.7832    -0.68622    -0.24968
-0.14541   -0.076554    -0.21947    -0.47282     -1.6772    -0.53031    -0.24123
-0.15061   -0.067459    -0.21167    -0.44456    -0.66316    -0.28865    -0.21882
-0.14866   -0.062262    -0.18439     -0.3757    0.011794   -0.054792     -0.2042
-0.14834   -0.068109    -0.14899    -0.28281     0.31484     0.12093     -0.2068
-0.15158   -0.084674    -0.11456    -0.18082     0.36681      0.2528    -0.22369
-0.15386    -0.10156     -0.0837   -0.087272     0.34732     0.38662    -0.23538
-0.15029    -0.11228   -0.057065   -0.017114     0.41456     0.55195    -0.23409
-0.14476    -0.11683   -0.037252    0.012768     0.69129     0.71922    -0.22402
-0.14574    -0.11813   -0.030431  -0.0028225      1.2922     0.82024    -0.21752
-0.15646     -0.1204   -0.039851   -0.059664      2.2432     0.81732    -0.22629
-0.17984    -0.12657   -0.061288    -0.14639       3.368     0.74618    -0.25162
-0.2107    -0.14119    -0.09182    -0.24221      4.3662     0.69584    -0.28865
-0.24253    -0.16003    -0.12495    -0.32048      4.9589     0.74099    -0.31918
-0.25845    -0.17627    -0.14541    -0.36238      4.9589     0.89267    -0.32568
-0.25455    -0.18114    -0.14314    -0.35199      4.6481      1.0885    -0.29677
-0.23181    -0.17205    -0.12235     -0.2971       3.866      1.2357    -0.24091
-0.19706    -0.15256   -0.093119    -0.22304      2.8665      1.2578    -0.18082
-0.15678     -0.1256   -0.062587    -0.15288      1.8294      1.1421    -0.13599
-0.11748   -0.093444   -0.035628   -0.095393     0.94399     0.94172    -0.11326
-0.081101   -0.060963   -0.012892     -0.0405     0.33368     0.74911    -0.10156
-0.047646   -0.030106    0.011469    0.022188    0.029009     0.64192    -0.09117
-0.016464   -0.007045    0.038753    0.095269   -0.015165     0.63997   -0.070707
0.013093   0.0078962     0.06961      0.1742     0.11118     0.68707   -0.035303
0.042975    0.016341     0.10339     0.25313     0.27164     0.69681    0.012768
0.074482    0.024786     0.13587     0.32816     0.34407     0.62211    0.070259
0.10826    0.036804     0.16218     0.39507     0.30672     0.44151      0.1336
0.14334    0.046548     0.17874     0.44411     0.22389     0.15471     0.19109
0.16445     0.05207     0.18297     0.46717     0.14074    -0.20388     0.22812
0.16348    0.053694     0.17874     0.46003    0.008221    -0.58163     0.24078
0.14399    0.052395     0.17095      0.4295    -0.24448    -0.94054     0.23526
0.11281     0.05272      0.1716     0.39377     -0.5865     -1.2511     0.22097
0.082602    0.058241     0.18329     0.36843    -0.90189     -1.4736      0.2096
0.056617    0.070584     0.20473     0.36064     -1.0864     -1.5798     0.21025
0.033231     0.08585     0.22584     0.36031     -1.0656     -1.5723     0.22812
0.011469    0.099167     0.23396     0.35219     -0.7619     -1.4758     0.25248
-0.011592     0.10242     0.21772     0.31841    -0.16945     -1.3222     0.26384
-0.039526    0.089423     0.17452      0.2541     0.58638      -1.127     0.24695
-0.069408    0.055643     0.11183     0.16868      1.2928    -0.90351     0.19856
-0.098641   0.0095202    0.044924    0.082602      1.7209    -0.66478     0.12872
-0.11845   -0.036927   -0.010943    0.013743      1.6582    -0.43352    0.055968
-0.1269    -0.06681   -0.046671   -0.028482      1.0749    -0.24415  -0.0067202
-0.1269    -0.06551   -0.060638   -0.042124     0.24273     -0.1191   -0.048945
-0.11943   -0.033354   -0.054467   -0.029457    -0.47607   -0.056091   -0.067459
-0.10351    0.016016   -0.037577  -0.0057458    -0.87233   -0.030756   -0.063561
-0.073955    0.065062   -0.015165    0.020888    -0.99284   -0.017439   -0.039201
-0.030431    0.099817   0.0078962    0.047523     -1.0451      0.0014   0.0033489
0.01829     0.11671    0.030957     0.07708     -1.1867    0.038753    0.056292
0.064088     0.11995    0.048822     0.10989     -1.4161     0.11054     0.10859
0.094945     0.11443    0.058891     0.14529     -1.6265     0.22454     0.15211
0.11086     0.10534    0.059541     0.18264     -1.6954     0.38565     0.18102
0.11768    0.096569    0.056942     0.21642     -1.5677     0.57956     0.19531
0.11866    0.084551    0.058566     0.24338     -1.2816     0.76632     0.19953
0.11508    0.071558    0.067661      0.2606    -0.92463     0.89397     0.19693
0.11118    0.061165    0.082602     0.27261    -0.57156     0.92613     0.19076
0.11216    0.056292     0.10501     0.28658    -0.28021     0.86831     0.18849
0.12028    0.063763     0.13262     0.30315   -0.090196     0.75658     0.20213
0.13197    0.080978     0.15763     0.31029  -0.0041217      0.6286     0.22941
0.14269    0.099167     0.16705      0.2908   -0.011267      0.5094     0.26092
0.14009     0.10664     0.15016     0.23624    -0.10871     0.40936     0.27749
0.11833     0.10209     0.11021     0.15568    -0.26949     0.31386     0.26222
0.08585    0.091372    0.060515    0.073182    -0.44976     0.19531     0.21805
0.053694    0.080003    0.019264    0.010819    -0.61703    0.048172     0.16056
0.034206    0.072208  0.00075039   -0.019063     -0.7645    -0.12235     0.10794
0.031607    0.065387   0.0043233   -0.017114    -0.90904    -0.30165    0.071234
0.038103     0.06019    0.019589   0.0026992     -1.0455    -0.46275    0.052395
0.047847    0.055318    0.035505    0.026085     -1.1468    -0.57189    0.045249
0.049796    0.050446    0.048497    0.047198     -1.1734    -0.59949      0.0433
0.047198    0.047198    0.056292    0.062789     -1.0997    -0.53518    0.044924
0.051745    0.050446    0.055968    0.070584    -0.92365    -0.39324     0.05272
0.069934    0.059865     0.05272    0.072208    -0.68135    -0.20713    0.066686
0.095594    0.073507    0.046223    0.072208    -0.42767  -0.0099683    0.078704
0.11995    0.086175    0.040702    0.074806    -0.21265     0.16705    0.080978
0.13327    0.092346    0.039727    0.082602   -0.072981     0.30802    0.071558
0.1323    0.089423    0.042975    0.097218   -0.027183     0.41553    0.059541
0.11931    0.081627    0.048822     0.11346   -0.086948     0.50615     0.05207
0.098842    0.075131    0.054019     0.12385    -0.27566      0.5945     0.05207
0.074157    0.074482    0.055643     0.13002    -0.59105     0.68155    0.057267
0.044275    0.075131    0.053694     0.13555    -0.95678     0.75138    0.063438
0.0085458    0.073507    0.049147     0.14496     -1.2312     0.78516    0.067336
-0.026533    0.064413    0.046873     0.15244     -1.2676     0.75885    0.062139
-0.053168    0.049796    0.046548     0.14789     -1.0101     0.66953    0.041676
-0.065186     0.03583    0.047523     0.13262    -0.53713     0.54318    0.008221
-0.056416    0.024137    0.046223     0.11118    0.016991     0.41553   -0.029132
-0.026533    0.019589    0.040377    0.087474     0.54415     0.30282   -0.059664
0.012119    0.024137    0.031932    0.063113     0.98167     0.20895   -0.071032
0.053044     0.03518    0.020888    0.038428      1.2867     0.12775   -0.057715
0.090397    0.048822   0.0078962    0.016016      1.4172    0.048497   -0.022636
0.1245    0.055643   -0.007045  -0.0073698        1.31    -0.04862    0.017316
0.14984     0.05207    -0.02361   -0.030756     0.94367    -0.16977    0.044599
0.16835    0.031607   -0.041475   -0.050569     0.43924     -0.2984    0.053369
0.18394  -0.0011985    -0.05804   -0.063886    0.029333    -0.41143    0.050771
0.19563   -0.036927   -0.069408   -0.065186    -0.13664    -0.50108    0.043625
0.19011   -0.063237   -0.069733   -0.054467   -0.099615    -0.56636    0.036154
0.16218   -0.069408    -0.05804   -0.035953  -0.0054209    -0.60502    0.033556
0.12125   -0.051544   -0.039201   -0.012242    0.023162    -0.60729    0.041676
0.080328   -0.016789   -0.021661    0.008221   -0.038227    -0.56799    0.066362
0.054019    0.024461  -0.0073698    0.019914     -0.1204    -0.49588     0.10826
0.044599    0.059216   0.0026992    0.022188    -0.10676    -0.40558     0.16185
0.041351    0.080003   0.0095202    0.019264     0.12807    -0.32341      0.2044
0.030633    0.086175    0.015042    0.016016     0.62503    -0.26949      0.2135
0.0026992    0.080978    0.019589    0.014068      1.2604    -0.24383     0.18329
-0.039201    0.073182    0.030633    0.014392      1.8301    -0.22077     0.13067
-0.079802    0.068635    0.044924    0.018615      2.1698    -0.17107    0.074482
-0.10611    0.061165    0.055643    0.028034      2.2296     -0.0837    0.025111
-0.11748      0.0433    0.056942    0.041676      2.0542     0.03518   -0.017439
-0.123   0.0078962    0.045249    0.053369      1.7278      0.1716   -0.051868
-0.13372    -0.04862    0.023812    0.056617      1.3269     0.31159   -0.076554
-0.15483    -0.11943   -0.010293    0.049796     0.90079     0.43892   -0.085648
-0.17692    -0.18731   -0.051219     0.03518     0.47692     0.53636   -0.075255
-0.18634    -0.23603   -0.088896    0.020239    0.035505     0.58638   -0.054142
-0.1714    -0.24968    -0.11651    0.008221    -0.51309     0.57241   -0.037252
-0.12917    -0.22467    -0.13177  -0.0015233     -1.1582     0.49511   -0.034004
-0.062912    -0.16523    -0.13567   -0.010943     -1.7032     0.37915     -0.0405
0.016666   -0.086623     -0.1295   -0.026209     -1.9101     0.25053   -0.047971
0.09462  -0.0047713    -0.11813   -0.051544     -1.6889     0.11736   -0.053817
0.15958     0.06896    -0.10514   -0.087272     -1.1094    -0.02426   -0.064536
0.2044     0.12807   -0.093769    -0.12755    -0.30717    -0.18049   -0.084674
0.22941     0.17127   -0.084674     -0.1623     0.55682    -0.32178    -0.09929
0.23883     0.19823    -0.07428    -0.17919      1.3091    -0.40136   -0.086623
0.23429       0.207   -0.062262     -0.1753       1.755    -0.39844   -0.038227
0.21642     0.19693   -0.048945    -0.15256      1.7258    -0.34549    0.031607
0.19434      0.1716   -0.034004    -0.11748      1.2422    -0.29223     0.10014
0.16933     0.13555   -0.020687   -0.080451     0.54026    -0.26722     0.14724
0.13879    0.095594  -0.0099683   -0.055116    -0.11001    -0.27111     0.16348
0.097543    0.062464  -0.0028225   -0.052193    -0.57806     -0.2971     0.14529
0.047198    0.037778  -0.0044465   -0.077203    -0.87038     -0.3429     0.10274
-0.012892    0.019589   -0.019063     -0.1243     -1.0568    -0.40071    0.050446
-0.073631   0.0049729   -0.042774    -0.17594     -1.2293    -0.44391    0.011469
-0.13307  -0.0089938   -0.060963    -0.21297     -1.4456    -0.44456   0.0059473
-0.18536   -0.021661   -0.068434    -0.22954     -1.6831     -0.3796    0.027385
-0.22597   -0.034004   -0.068434    -0.22759     -1.8318     -0.2474    0.055318
-0.25292   -0.046022   -0.069408    -0.22012     -1.7714    -0.10026     0.06084
-0.26429   -0.054142   -0.075904    -0.22012     -1.4908   -0.018088    0.025111
-0.26267   -0.054142   -0.087922    -0.23506     -1.1003   -0.044073   -0.043748
-0.25098   -0.042449    -0.09994    -0.25845    -0.76742    -0.15873     -0.1282
-0.23279   -0.020037    -0.10676    -0.27696    -0.61411    -0.30262     -0.2029
-0.21297   0.0052977    -0.10806    -0.28151    -0.61963     -0.4215    -0.25292
-0.19283    0.022837    -0.10546    -0.26787    -0.61476    -0.48419    -0.27664
-0.1753    0.023487    -0.10449    -0.24091     -0.4163    -0.48256    -0.27728
-0.15516    0.009845    -0.10546    -0.20355   0.0046481    -0.42475    -0.26332
-0.13145  -0.0096434    -0.10481    -0.16425      0.5068    -0.33185    -0.23279
-0.10449   -0.025234    -0.10384     -0.1243     0.92093    -0.22109    -0.18829
-0.077203    -0.03173    -0.10026   -0.085648       1.159    -0.10611    -0.13502
-0.053168    -0.03173   -0.089546   -0.053168      1.2431   0.0065969   -0.084024
-0.038227   -0.025559   -0.073955   -0.031406      1.2487     0.11541   -0.046022
-0.034329   -0.017439   -0.052193   -0.025559      1.2198     0.23006   -0.028482
-0.0405   -0.011592   -0.029782   -0.034329      1.1262     0.34862   -0.033354
-0.054142   -0.012892    -0.01484   -0.056416     0.87903     0.45126   -0.056741
-0.072981   -0.021337   -0.011917   -0.084999     0.43697     0.51719   -0.092794
-0.090196   -0.034654   -0.017439    -0.11358     -0.1243     0.53733    -0.13177
-0.10091    -0.04862   -0.027508    -0.13567    -0.62808     0.52531      -0.161
-0.09929   -0.059339   -0.035953    -0.14379    -0.88175     0.52044    -0.17335
-0.080127   -0.063886   -0.034004     -0.1269    -0.78333     0.56884    -0.16912
-0.04862   -0.060638   -0.021337   -0.084024    -0.38674     0.68804    -0.15223
-0.014191   -0.053817 -0.00087364   -0.020687     0.12613     0.85077    -0.12527
0.015367   -0.046996    0.023487    0.050121     0.54383      1.0141   -0.093444
0.033881     -0.0405    0.047523     0.11118     0.71955      1.1473   -0.061937
0.043625    -0.03238    0.067986     0.15211     0.62308      1.2366   -0.029132
0.050121   -0.022311    0.082927     0.16608     0.32718      1.2669   0.0020496
0.057917   -0.014191    0.087474     0.15796   -0.062912      1.2136    0.026085
0.067986   -0.011917    0.082602     0.13425     -0.4634      1.0658    0.037129
0.080328    -0.01484    0.073832     0.10924     -0.8064     0.84493    0.038753
0.091696   -0.021012    0.065062    0.092346     -1.0591     0.58346    0.038428
0.10306   -0.023285     0.06019    0.091047      -1.239     0.31646    0.042651
0.11411   -0.013866    0.062789     0.10631     -1.3508    0.073182    0.058241
0.12385   0.0088706    0.073182     0.13782     -1.3751    -0.12463     0.08585
0.13197    0.039078    0.091696     0.17874     -1.2982    -0.27566     0.12418
0.14042    0.067986     0.11183     0.22032     -1.1137    -0.40721     0.16413
0.15114    0.090397     0.13165     0.25995    -0.82101    -0.56604     0.19239
0.1625     0.10534     0.15114     0.29827    -0.45495     -0.7999     0.20116
0.1729     0.11248     0.17127     0.33498   -0.079802     -1.1241     0.18784
0.17777     0.11378     0.18751     0.36681     0.23916     -1.5015     0.15373
0.17387     0.11183     0.19434     0.38207     0.45581     -1.8649     0.10501
0.16153     0.10566     0.18524     0.37428     0.59547     -2.1491    0.047847
0.14691    0.095594     0.16738     0.34602     0.69779     -2.3077  -0.0057458
0.1323    0.083576     0.14659     0.30737     0.74326     -2.3129   -0.047646
0.12028    0.072208     0.12678     0.26839     0.68772     -2.1482   -0.076879
0.11118    0.059541     0.10924     0.23721     0.53051     -1.8016   -0.090845
0.10534      0.0433    0.090722      0.2096     0.31094      -1.291    -0.09182
0.09462    0.019589    0.071234     0.18037     0.12548    -0.66543   -0.087922
0.074157  -0.0089938    0.053044     0.13555      0.1349  -0.0028225   -0.084024
0.039727   -0.040175    0.032257    0.065712     0.48244     0.58313   -0.085973
-0.0093186   -0.068758   0.0020496   -0.030431      1.1649     0.98557    -0.10351
-0.06616   -0.090196   -0.042449    -0.14346      2.0029      1.1525    -0.13632
-0.12105    -0.10579   -0.093444    -0.25325      2.7451      1.0957    -0.17789
-0.16295    -0.11358    -0.14087    -0.33867      3.1592     0.87838     -0.2172
-0.18244    -0.11358    -0.16555    -0.38447      3.1319      0.5945    -0.24318
-0.17757    -0.10838    -0.16263    -0.38642       2.696     0.32588     -0.2513
-0.15386    -0.10351    -0.14054    -0.34972      1.9921     0.11378    -0.23961
-0.12203    -0.10319    -0.11228    -0.28995       1.197   -0.035303     -0.2042
-0.083375    -0.10806   -0.094093    -0.22694     0.43307    -0.13892    -0.15223
-0.043099    -0.11845   -0.086948    -0.17919    -0.25975    -0.20453   -0.090196
-0.0050961     -0.1295   -0.084024    -0.15386    -0.87396    -0.23149   -0.028482
0.026735    -0.13664   -0.077853    -0.14249     -1.3807    -0.23441    0.030957
0.04395    -0.13762   -0.065186    -0.13177     -1.7204    -0.23538    0.083901
0.045574     -0.1295   -0.046022    -0.11326     -1.8555    -0.26072     0.12548
0.034206    -0.11683   -0.025234   -0.084349     -1.7919    -0.31561     0.14302
0.016341    -0.10254  -0.0093186   -0.047646     -1.5489    -0.36953      0.1323
0.00075039   -0.090521 -0.00054884  -0.0060706     -1.1725     -0.3783    0.096244
-0.0041217   -0.077853  0.00010078    0.036479     -0.7554    -0.32666    0.051096
0.0046481   -0.061288  -0.0018481    0.067986    -0.40071    -0.23409   0.0091954
0.026735   -0.034978 -0.00022403    0.084226    -0.17594    -0.12917   -0.014516
0.060515   0.0010752   0.0075714    0.087799   -0.096692    -0.03303   -0.016464
0.098842    0.039402    0.016991    0.090722    -0.11553    0.048172  0.00010078
0.12645     0.06831    0.024137    0.098517     -0.1636     0.11346    0.034206
0.13425    0.080978    0.028034     0.11021    -0.19381     0.17192    0.081303
0.12028    0.081952    0.032257     0.12288     -0.2172     0.24468     0.12807
0.087799    0.080003    0.040052     0.13782     -0.2919     0.35252     0.16868
0.044924    0.082602    0.054344     0.15309    -0.44066     0.50225     0.19986
0.00042559    0.092996    0.070909      0.1638    -0.59235     0.66628        0.22
-0.038227     0.10079    0.084876     0.16575    -0.62288      0.8001     0.22454
-0.065835    0.099167    0.094295     0.16185    -0.45755     0.86441     0.20993
-0.079802    0.088448    0.098517     0.15926    -0.13404     0.84915     0.17582
-0.081426    0.070909     0.09462     0.16153     0.22389     0.77737     0.12872
-0.07493    0.048822    0.086824     0.16998     0.47854     0.68252    0.082927
-0.067134    0.024786    0.071883     0.17712     0.55325     0.59222    0.047198
-0.059339    0.003024    0.050121     0.17745     0.44866     0.51719    0.024786
-0.045047   -0.014191    0.023162     0.16803      0.2187     0.44769   0.0065969
-0.016789   -0.025884  -0.0057458     0.15016   -0.056091     0.36778   -0.012892
0.032582   -0.026858   -0.031081      0.1232     -0.2984     0.27424   -0.031081
0.099492  -0.0076946   -0.042449     0.09462    -0.46632     0.17582   -0.036278
0.16933    0.034855   -0.036278    0.076106    -0.54135    0.094295   -0.018088
0.22519    0.095919   -0.014191    0.072208    -0.50822    0.047523    0.030957
0.2567     0.15861    0.017316      0.0865    -0.35686    0.037454     0.10339
0.26092      0.2096    0.044599     0.11054   -0.096367    0.054993     0.18167
0.24436     0.23721    0.059541     0.13035     0.24728    0.093645     0.24825
0.21577     0.23818    0.065062     0.13327     0.59807     0.16608      0.2895
0.17907     0.21837    0.065712     0.12385     0.85077     0.27067     0.29957
0.13425     0.19076    0.063438     0.11021      0.9219      0.3889     0.28171
0.079679     0.16185    0.056292     0.10014     0.78581     0.48699     0.24858
0.023487     0.13457    0.050771    0.095269     0.49738     0.54188     0.20863
-0.022961     0.10761    0.046873    0.092996     0.16803        0.55     0.17452
-0.050244    0.083901    0.046223    0.092996    -0.10416     0.51817     0.15341
-0.053817    0.066686    0.049472    0.095269    -0.31106     0.44411     0.14432
-0.037902    0.059541    0.054344    0.097543    -0.52349     0.32263     0.13522
-0.012567    0.058241    0.058891    0.095269    -0.77034     0.15633     0.10989
0.013418    0.055643     0.06084    0.088448    -0.95938   -0.047321    0.066037
0.025761    0.049796    0.056617    0.077405     -0.9662    -0.29158    0.010819
0.022188    0.039402    0.042326    0.062139    -0.75345    -0.55889   -0.040825
0.0049729    0.023487    0.022512    0.044599    -0.39324    -0.80542   -0.081426
-0.018738  0.00010078   0.0017248    0.029983  -0.0073698    -0.98861    -0.10806
-0.034978   -0.027183   -0.013866     0.02641     0.30282     -1.0939    -0.12008
-0.040825   -0.050569    -0.02426    0.036804     0.49576     -1.1117    -0.11748
-0.034654   -0.063561   -0.028157    0.055318     0.57826     -1.0305    -0.10156
-0.022961   -0.063561   -0.024909    0.069285     0.61431    -0.84375   -0.072981
-0.020687   -0.051544   -0.016464    0.068635     0.70266    -0.56376   -0.035628
-0.038227   -0.034329  -0.0063954    0.053369     0.93977    -0.21979   0.0023744
-0.070707   -0.019063  0.00075039    0.027709      1.3643     0.15373    0.036154
-0.10514   -0.010293   0.0072465  -0.0067202      1.8986      0.5133    0.063438
-0.12982  -0.0057458    0.011469   -0.044073      2.3767      0.8105    0.079679
-0.13534   0.0010752    0.016991   -0.079477      2.6197      1.0125    0.086824
-0.11748   0.0091954    0.023162    -0.10676      2.5622      1.1122    0.087474
-0.084024    0.014068    0.023487    -0.12138       2.266      1.1142    0.080003
-0.048296    0.013743    0.014717    -0.12982       1.834      1.0252    0.062464
-0.015815   0.0023744  -0.0047713    -0.13859      1.3256     0.86117    0.040377
0.011469   -0.017114   -0.029782    -0.15126     0.74391     0.65069    0.020239
0.034855   -0.037252   -0.050894    -0.16653    0.087149     0.42462    0.012768
0.056292   -0.047321   -0.066485    -0.18179    -0.60502     0.20928    0.015042
0.07708   -0.045047   -0.073631    -0.19738     -1.3163    0.014717     0.01829
0.0865   -0.035628   -0.073955    -0.21979     -2.0985    -0.16458    0.012768
0.067336   -0.021986   -0.072006       -0.25     -2.8852    -0.34484  -0.0024977
0.011144   -0.011917   -0.071357    -0.27501     -3.4494    -0.53291   -0.025234
-0.079802  -0.0076946    -0.07428    -0.28898     -3.6251    -0.69174   -0.050244
-0.18342   -0.011267   -0.078178    -0.29223     -3.4006    -0.75475    -0.07493
-0.27306   -0.016464   -0.078503    -0.28086     -2.8631    -0.67842   -0.096692
-0.32601   -0.019712    -0.07428       -0.25     -2.1498    -0.46275    -0.11423
-0.33737   -0.019388   -0.067134    -0.19868     -1.4362    -0.15029    -0.12008
-0.31431   -0.016464   -0.059339     -0.1334    -0.88695     0.18329    -0.11391
-0.27209   -0.012567   -0.054142   -0.067784    -0.58228     0.44639    -0.09994
-0.22142  -0.0099683   -0.052193    -0.01614    -0.52479     0.55487   -0.085324
-0.16653  -0.0080194   -0.052193    0.014392    -0.69239     0.46133   -0.081101
-0.11098  -0.0083442   -0.049595    0.017316     -1.0516     0.15991   -0.096692
-0.062262   -0.011917   -0.046022  -0.0037969     -1.5103    -0.31496    -0.13469
-0.028157   -0.023285   -0.045697   -0.042774     -1.8377    -0.88273    -0.19283
-0.013541   -0.044723   -0.052193   -0.085973     -1.7314     -1.4307    -0.26104
-0.011267   -0.073631   -0.063561    -0.11423     -1.0289     -1.8347    -0.31821
-0.0096434   -0.096367   -0.070382    -0.11033     0.15341      -2.002    -0.34452
0.00010078   -0.097991   -0.061613   -0.069733      1.4169     -1.9114    -0.32763
0.017316   -0.077528   -0.035303  -0.0080194      2.3394     -1.6116    -0.26754
0.029658   -0.047646  -0.0024977    0.054668      2.6941     -1.1936    -0.18991
0.022512    -0.02426    0.024137    0.096569      2.4839    -0.74241    -0.12592
-0.0073698   -0.013541    0.038753    0.096244      1.8538    -0.31691   -0.090521
-0.050894   -0.016464    0.040052    0.047847      1.0008    0.051096   -0.077853
-0.09182   -0.027508    0.029333   -0.034004     0.14204     0.35641   -0.067134
-0.1178   -0.037902    0.014392    -0.11423    -0.52316     0.59612   -0.044398
-0.12105   -0.045697   0.0039985    -0.15905    -0.88857     0.76242  -0.0096434
-0.10124   -0.054792  0.00010078    -0.15678    -0.99024     0.86311    0.033556
-0.06681   -0.062912  -0.0011985    -0.11943    -0.96523     0.92353    0.079354
-0.026533   -0.064211  -0.0037969   -0.072331    -0.92625     0.97615     0.11995
0.011469   -0.051544   -0.012242   -0.039201    -0.91943      1.0362     0.15114
0.041676   -0.025234   -0.025884   -0.032705    -0.93145      1.1005       0.169
0.058891   0.0091954   -0.039201   -0.044723    -0.91618      1.1447     0.16965
0.068635    0.043625   -0.049595   -0.059014    -0.84375      1.1424     0.15601
0.082602     0.06831   -0.048945   -0.054792    -0.72682      1.0827     0.14172
0.11086    0.079029   -0.030756   -0.017439     -0.5969     0.97257     0.14237
0.15081    0.080978   0.0043233    0.050771    -0.46113     0.82933     0.16575
0.18784    0.083576    0.051096     0.13522    -0.27566      0.6718     0.20376
0.21447    0.090397    0.098193     0.21837    0.010495     0.50777     0.23786
0.22065     0.10014     0.13392     0.28073     0.39149      0.3392     0.25475
0.20733     0.10826     0.15081     0.30834     0.83648     0.16445     0.24566
0.17874     0.11118     0.14984     0.29795      1.3273   -0.013216     0.21025
0.14107     0.10436     0.13392      0.2554      1.8284    -0.18309     0.15471
0.097218    0.086824     0.10566     0.19466      2.2195     -0.3299    0.087149
0.055318    0.061489    0.074157     0.13457      2.2864    -0.44424    0.022188
0.020564     0.03583    0.048172    0.090072      1.8762    -0.51699   -0.030431
-0.0015233    0.014392    0.033881    0.064413      1.0414    -0.54655   -0.069083
-0.012892  -0.0031473    0.032257    0.056292  -0.0076946    -0.53258   -0.089871
-0.022636   -0.016464    0.037778    0.059541    -0.96653    -0.48061   -0.097991
-0.035303   -0.027183     0.04395    0.068635     -1.5703    -0.40396    -0.10416
-0.048945   -0.038551    0.046548    0.079354     -1.6837    -0.32406    -0.11196
-0.054467   -0.052193    0.040377    0.092021     -1.3085    -0.25942     -0.1204
-0.042449   -0.071032    0.028684     0.10924    -0.56896    -0.20972    -0.12268
-0.0060706   -0.091495    0.015042     0.13717     0.35414     -0.1675    -0.10709
0.049147    -0.11586   0.0026992      0.1755      1.2561    -0.12722   -0.071032
0.10859    -0.14054  -0.0057458     0.20895      1.9746   -0.093119   -0.021661
0.15406     -0.1636    -0.01484     0.21967       2.404   -0.071357    0.027709
0.17192     -0.1753   -0.026533       0.207      2.5047   -0.057065    0.065712
0.15698    -0.16523    -0.04115     0.18004      2.3036   -0.040175    0.087799
0.11086    -0.12268   -0.053817     0.14919      1.8746   -0.014516    0.096893
0.046548   -0.048296   -0.056416     0.11963      1.2971    0.014717    0.095919
-0.020037    0.050771   -0.048945    0.089423     0.62471    0.035505    0.089748
-0.072656     0.16121    -0.03238    0.053694    -0.10189    0.026085    0.075781
-0.10416     0.26417   -0.011917   0.0078962    -0.75573    -0.03173    0.055643
-0.10774     0.33887    0.008221   -0.043748     -1.1695    -0.13275    0.029333
-0.081426     0.37233    0.021538    -0.09117     -1.2335    -0.25065  -0.0015233
-0.031081     0.35934    0.025761    -0.12138    -0.94087    -0.34874   -0.034004
0.031932     0.30737    0.015692    -0.12755    -0.39292    -0.39097   -0.061613
0.092996     0.23689  -0.0093186    -0.11261     0.23656    -0.35296   -0.081426
0.14334     0.16803   -0.039851   -0.085973      0.7621    -0.24286   -0.095393
0.1755     0.11378   -0.065835   -0.058365      1.0703   -0.094093    -0.10644
0.18394    0.076755   -0.077853   -0.038227      1.1415    0.050771    -0.11293
0.16543    0.049796   -0.075904   -0.024909      1.0353     0.15406    -0.10936
0.11931    0.028359   -0.062912   -0.013541     0.84947     0.19369   -0.088896
0.052395    0.013093   -0.044073  0.00010078      0.6731      0.1638   -0.044073
-0.02361   0.0085458   -0.020687     0.01764     0.54578    0.075131    0.015367
-0.091495    0.016341   0.0026992    0.037778      0.4727   -0.043748    0.070259
-0.13372    0.031282    0.022837    0.058566     0.42527    -0.15256     0.10501
-0.14281    0.046223    0.040377    0.079679     0.36129    -0.22402     0.11411
-0.1191    0.053369    0.058566     0.10306     0.24176     -0.2526    0.099817
-0.069408    0.051745    0.079029      0.1297    0.055318    -0.25098    0.070584
-0.0083442    0.042651     0.10274     0.15698    -0.17367    -0.23311      0.0433
0.047847    0.035505     0.12613     0.17972    -0.39162    -0.20453    0.032257
0.089423    0.039402     0.13977     0.19466    -0.54752    -0.16458    0.039078
0.11183    0.058566     0.14009     0.19823    -0.61443    -0.11066    0.060515
0.11281    0.080978       0.131     0.19141    -0.59202   -0.037902    0.091372
0.099167    0.098193     0.11995      0.1781    -0.50368    0.049472     0.12255
0.080653     0.10014     0.11151      0.1625    -0.40299     0.13652     0.14302
0.063113    0.083901     0.10144     0.14854    -0.33543     0.20343     0.14496
0.045899    0.054344    0.092671     0.13587    -0.30652     0.23818      0.1284
0.033556    0.021538      0.0852     0.12223    -0.29417     0.26417     0.10339
0.028034  -0.0076946    0.076755     0.10014    -0.26169     0.30867    0.080653
0.023162   -0.027508    0.061814    0.067336    -0.19089     0.37655    0.067661
0.014717   -0.035953    0.039727    0.029009   -0.084999     0.45256    0.062789
0.0078962   -0.035628    0.015692  -0.0024977     0.06084     0.51102    0.057592
0.008221    -0.03173  -0.0041217   -0.019712     0.24988     0.51362      0.0433
0.015367   -0.027833   -0.015815   -0.022636     0.46717     0.43112    0.016016
0.027385   -0.023935   -0.016464    -0.01549     0.69389     0.26644   -0.018413
0.039078   -0.017764   -0.008669  -0.0057458     0.89884    0.056617   -0.052518
0.046223   -0.012242 -0.00054884 -0.00087364      1.0418    -0.13892   -0.079152
0.048822  -0.0093186  -0.0011985  -0.0057458      1.0843    -0.26884   -0.095717
0.046223   -0.010618    -0.01549    -0.02426      1.0112    -0.31626    -0.10416
0.039727   -0.012892   -0.039526   -0.055441      0.8472    -0.30717    -0.10286
0.028684   -0.013216   -0.065186   -0.094418     0.61756    -0.28833   -0.089546
0.016341   -0.014516   -0.086623    -0.13242     0.31094    -0.29028    -0.06616
0.0039985    -0.01549    -0.09929    -0.16263   -0.072331    -0.32925     -0.0405
-0.0031473    -0.01484   -0.099615    -0.18082    -0.47672    -0.39941   -0.022636
-0.0076946   -0.014516   -0.090845    -0.18309    -0.79665    -0.46762   -0.017764
-0.011917   -0.013216    -0.07493    -0.16588    -0.92982    -0.48873   -0.027508
-0.018088  -0.0076946   -0.056741    -0.13177    -0.82978    -0.42572   -0.044398
-0.022636   0.0033489   -0.036927   -0.086298    -0.53161    -0.26104    -0.05739
-0.020362    0.017316   -0.016464   -0.034004    -0.14964   -0.012892   -0.052193
-0.0083442    0.031607   0.0033489    0.017965     0.15828     0.26417   -0.030106
0.0062721    0.040052     0.01764    0.059541     0.25378     0.49836  -0.0011985
0.015692    0.039727    0.025761    0.084551    0.072858     0.63283    0.018615
0.01894    0.029658     0.02706    0.089098    -0.34387     0.64874    0.027385
0.01894    0.012119    0.022188    0.074482    -0.89215     0.57858    0.025111
0.015692  -0.0096434    0.011469    0.041676     -1.4986      0.4662    0.013418
0.010819   -0.032055  -0.0018481  -0.0047713     -2.1277     0.34602  -0.0054209
0.00042559   -0.052843    -0.01484   -0.055766      -2.726     0.23104   -0.030431
-0.01549   -0.072981   -0.030431   -0.098641     -3.1941     0.12743   -0.059664
-0.035628   -0.092794    -0.04862    -0.12657     -3.4399     0.04395   -0.092794
-0.057715    -0.10676   -0.064211    -0.13729     -3.4328   -0.027183    -0.12592
-0.079152    -0.11033   -0.073631    -0.13404     -3.1866    -0.11423    -0.15321
-0.10124   -0.097666   -0.076879    -0.12657     -2.7189    -0.24415    -0.16847
-0.12008   -0.078503    -0.07428    -0.12755     -2.0407     -0.4241    -0.16425
-0.13145   -0.059664   -0.069733    -0.13567     -1.2108    -0.64724    -0.13534
-0.13827   -0.047321   -0.064536    -0.13989    -0.35816     -0.8785   -0.084024
-0.14249   -0.039201   -0.059664    -0.13275     0.36843     -1.0604   -0.022961
-0.14249   -0.028807   -0.055116    -0.11586     0.86994      -1.138    0.032257
-0.13145   -0.016464   -0.047646    -0.09994      1.1454     -1.0939    0.069285
-0.10189  -0.0054209   -0.039201   -0.088247      1.2535    -0.96035    0.084226
-0.054467  -0.0015233   -0.028807   -0.077203      1.2766     -0.7921    0.079354
-0.0015233  -0.0054209   -0.020687   -0.059014      1.2746    -0.62093    0.063113
0.045899   -0.017114   -0.019063   -0.036927      1.2737    -0.45203    0.046548
0.080328   -0.035953   -0.027183   -0.019063      1.2707    -0.28151    0.031932
0.099167   -0.054792   -0.044398   -0.014191      1.2237    -0.11553    0.017316
0.10534    -0.06551   -0.067784   -0.027833       1.098    0.055968 -0.00022403
0.10274   -0.059014   -0.088247   -0.051219       0.893     0.25215   -0.025234
0.095269   -0.028482   -0.094093   -0.070058      0.6796     0.47529   -0.055116
0.088124    0.023812   -0.082076   -0.073306     0.56104      0.7137     -0.0824
0.07773    0.082277    -0.05804   -0.059989     0.57696     0.94074   -0.095393
0.057592     0.12645   -0.029782   -0.041475     0.64777      1.1252   -0.094743
0.031282     0.14529  -0.0037969   -0.025884     0.63348      1.2253   -0.086948
0.0046481     0.14074     0.01829  -0.0099683     0.44054      1.2224   -0.078827
-0.011592      0.1206    0.032906   0.0078962    0.092671      1.1249   -0.080127
-0.014191    0.096244    0.037778    0.026085     -0.2945     0.95991   -0.089221
-0.008669    0.080003     0.03583    0.044924    -0.61671     0.75528   -0.095717
0.0010752    0.074157    0.030308    0.066686    -0.85219     0.52304   -0.089546
0.0095202    0.075131    0.030308    0.091047     -1.0659     0.27261   -0.068758
0.015042     0.07773    0.036804      0.1219     -1.3472    0.026085   -0.036602
0.014717    0.074806    0.051096     0.15991     -1.6856    -0.18342   0.0062721
0.0052977    0.063763    0.067336     0.19921     -1.9497    -0.35004    0.057267
-0.012567    0.044275     0.07773     0.22617     -1.9923    -0.50108     0.10631
-0.024585    0.022837    0.076755     0.22812     -1.7873    -0.66056     0.14789
-0.018088   0.0062721    0.067336     0.21025     -1.4388    -0.82199     0.18362
0.0065969  -0.0018481    0.054668      0.1781     -1.0896    -0.94964     0.21512
0.040052  -0.0011985    0.044599     0.13522    -0.84407     -1.0049     0.24046
0.067986   0.0039985    0.039078    0.084551    -0.72974    -0.97627     0.25183
0.077405    0.010495     0.03453    0.031932    -0.69466     -0.8863     0.24143
0.064413    0.014392    0.025111   -0.015815    -0.64367    -0.76157     0.20668
0.037129    0.015042    0.011469   -0.051868    -0.47704    -0.60891     0.15763
0.0049729    0.012119  -0.0044465   -0.074605    -0.15841    -0.41435     0.11476
-0.02361   0.0069217   -0.014191   -0.082725     0.25735    -0.17042    0.089748
-0.048945 -0.00087364   -0.013216   -0.078503     0.66141     0.10014    0.080978
-0.070382   -0.011592  -0.0034721   -0.069408     0.97582     0.34602    0.078704
-0.089546   -0.023935   0.0075714   -0.054467      1.2155     0.51492    0.071883
-0.10026   -0.035953    0.013093   -0.034329      1.5173     0.57631    0.054668
-0.10156   -0.045047     0.01017    -0.01484      2.0292     0.53473    0.026085
-0.098316   -0.054142   0.0046481  -0.0041217      2.7207     0.43015  -0.0080194
-0.093769   -0.061937   0.0017248  -0.0041217      3.3836     0.33335   -0.029782
-0.084349   -0.064536   0.0049729  -0.0044465      3.7611     0.31516   -0.023935
-0.059339   -0.055116    0.015042    0.013093      3.6457     0.41326    0.016016
-0.010293   -0.032055    0.031607    0.057267      2.9874     0.61918    0.082602
0.058891   0.0049729    0.054019     0.12905      1.9554     0.87643     0.15991
0.13425     0.05142    0.080328     0.21382     0.84947      1.1087     0.23526
0.19434    0.097543     0.11216      0.2973   -0.012892      1.2548     0.29762
0.22941     0.13327     0.14789     0.36908    -0.45463      1.2779      0.3379
0.23754     0.15503     0.18297     0.42332    -0.52901      1.1691     0.35057
0.22584     0.15991     0.21155     0.45386    -0.41013     0.94919      0.3366
0.20733     0.15179     0.22162     0.44898    -0.30132     0.65654     0.30022
0.19011      0.1284     0.20668     0.40546     -0.3822     0.33108      0.2476
0.17322    0.092021     0.16445     0.32101    -0.65016   0.0059473     0.18492
0.15309    0.048822     0.10047     0.20473    -0.83823    -0.30587     0.11476
0.12775   0.0039985    0.029333    0.068635    -0.58293    -0.61249     0.03583
0.10014   -0.036278   -0.033354   -0.063561      0.2554    -0.90611   -0.045047
0.072858   -0.065186   -0.077853    -0.16945      1.4244     -1.1559    -0.12105
0.042326   -0.079152    -0.10384    -0.23636      2.4615     -1.3449    -0.18082
0.0072465   -0.082076    -0.11748    -0.26657      2.9269     -1.4765    -0.21785
-0.030756   -0.080451    -0.12138    -0.27241      2.6327     -1.5496    -0.22759
-0.072006   -0.080451     -0.1217    -0.27209      1.7843      -1.546     -0.2146
-0.1191   -0.086948    -0.12463    -0.28703     0.82706     -1.4407    -0.19836
-0.16815    -0.10059    -0.13307     -0.3286     0.16056     -1.2131    -0.19089
-0.22012    -0.11651    -0.14476    -0.39227   -0.060963    -0.85512    -0.19024
-0.27046    -0.13112    -0.15646    -0.45723    0.080328    -0.38512    -0.18764
-0.31171    -0.14119    -0.16198    -0.49036     0.41098     0.14854    -0.17627
-0.33478    -0.14736    -0.15451    -0.46892     0.76015     0.66271    -0.15873
-0.33672    -0.15256    -0.13275    -0.39876     0.89852      1.0648    -0.14411
-0.32308      -0.161    -0.11293    -0.31561     0.47984      1.2766    -0.13664
-0.30067    -0.17075    -0.10676     -0.2578    -0.66998      1.2639    -0.14022
-0.27176    -0.17107    -0.11293    -0.23766     -2.2083      1.0681    -0.14476
-0.23668    -0.15548    -0.12235    -0.23506     -3.5617     0.77542    -0.13957
-0.19803    -0.12235    -0.12463    -0.22207     -4.2822     0.47237    -0.11683
-0.15386   -0.080127    -0.11845    -0.19283     -4.2308     0.21577     -0.0837
-0.10221   -0.043748    -0.11001    -0.15386      -3.588    0.031282    -0.04927
-0.044398   -0.023935    -0.10156    -0.11423     -2.7072   -0.080451   -0.024585
0.009845   -0.021012   -0.088247   -0.076554      -1.899    -0.13047   -0.010943
0.047198   -0.029132    -0.06681   -0.043423     -1.2949    -0.12917   -0.007045
0.055643   -0.036602   -0.036927  -0.0073698    -0.85772   -0.094743  -0.0060706
0.041676    -0.03173  -0.0018481    0.037454    -0.48354   -0.038551  -0.0037969
0.01829   -0.010618    0.033881    0.093321    -0.10124    0.031607   0.0046481
0.0046481    0.024461    0.069285     0.15146     0.30834     0.10956     0.02641
0.015367    0.063113    0.098193     0.20116     0.71435     0.19304    0.058566
0.054019    0.092346      0.1206     0.23331      1.0564     0.28821    0.092671
0.10242     0.10274     0.12937     0.24208      1.2743     0.39637     0.11573
0.14042    0.092671     0.11801     0.23071      1.3455     0.52694     0.11995
0.15763    0.067336    0.090397     0.21058      1.2896     0.68999     0.10924
0.15893    0.040702    0.059865     0.19499      1.1395     0.88683    0.092996
0.15309    0.024786    0.039078     0.18881     0.93879      1.1041    0.084876
0.14496    0.020239    0.030957     0.18654     0.72085       1.301    0.089098
0.12937    0.019264    0.036154     0.18427     0.50648      1.4302     0.10339
0.10631    0.019589    0.050446     0.18687     0.31971      1.4539     0.12255
0.080653    0.023162    0.066362     0.19888     0.17517      1.3607     0.13912
0.064413    0.031932    0.081303     0.21252    0.079029      1.1714     0.14659
0.064737    0.047198    0.096569     0.22552    0.039727      0.9258     0.14399
0.086175    0.070584     0.11476     0.23461    0.067011     0.66336     0.13165
0.12515    0.099492     0.12905     0.23786     0.14529     0.42982     0.10859
0.16965     0.12678     0.13944     0.23721     0.23429     0.25995    0.073507
0.20408     0.14367     0.14561     0.23754     0.26904     0.15861    0.029009
0.21642     0.14756     0.15146     0.24306     0.19856     0.10014   -0.014516
0.20603     0.13814     0.15471     0.24728    0.011144    0.040702   -0.047971
0.18719     0.11736     0.14951     0.23786    -0.25325   -0.060963   -0.064861
0.16738    0.089748     0.13035     0.20668    -0.48711    -0.23051    -0.06681
0.15211    0.058241     0.10209     0.15731    -0.58228    -0.47087   -0.056416
0.13749    0.028034    0.074482     0.10371    -0.50595    -0.75962   -0.038227
0.12028   0.0039985    0.055643    0.066037    -0.26202     -1.0487   -0.020037
0.096893  -0.0099683    0.050121    0.057267     0.14496     -1.2809  -0.0076946
0.066362   -0.011267    0.052395    0.077405     0.64679      -1.405  -0.0031473
0.031607   0.0010752    0.058241     0.11216      1.0963     -1.3982  -0.0067202
-0.0011985    0.029009    0.064088     0.14626      1.3338     -1.2738   -0.017114
-0.025884    0.066362     0.06831     0.17062      1.2597     -1.0874   -0.030756
-0.036278     0.10566     0.06961     0.18492     0.87318    -0.91163   -0.040825
-0.03303     0.13717    0.067986     0.18751     0.28138    -0.79275   -0.045697
-0.020362     0.15471    0.062139     0.17712    -0.33672    -0.73656   -0.046022
-0.0021729     0.15211    0.054019     0.15471    -0.81062    -0.72649   -0.047646
0.01764      0.1297    0.044275     0.12515     -1.0669    -0.73721   -0.056091
0.029009    0.098842    0.033231    0.094295     -1.1296    -0.74728   -0.073955
0.022188    0.070584    0.021863    0.065387     -1.0575    -0.74371   -0.097341
-0.0073698    0.053369    0.013093    0.041351    -0.88435    -0.72747    -0.11423
-0.04927    0.045899   0.0072465    0.022512    -0.59397    -0.70278    -0.11456
-0.09117    0.043625  0.00010078   0.0088706    -0.16718    -0.66186   -0.089871
-0.1191    0.032906   -0.012242 -0.00087364     0.37038     -0.5917   -0.044723
-0.1321   0.0023744   -0.029457    -0.01549     0.92385    -0.49263    0.010819
-0.13145   -0.047646   -0.047646   -0.035628      1.3721    -0.37862    0.066686
-0.11423    -0.10026   -0.056741   -0.052518      1.6202    -0.26364     0.11995
-0.076554     -0.1308   -0.048945   -0.051219      1.6433    -0.15256     0.16835
-0.024585    -0.12008   -0.024585   -0.032055      1.4637   -0.050244     0.20603
0.033556   -0.064536    0.010495  -0.0028225      1.1051    0.020239     0.22194
0.086824    0.015692    0.047523    0.023812     0.57566    0.036479     0.20928
0.12905    0.087149    0.071883    0.037778   -0.079152  -0.0021729     0.17452
0.15601     0.12223    0.074157    0.040702    -0.74241   -0.056091     0.12905
0.169     0.11313    0.055643    0.040052      -1.278   -0.063886    0.089423
0.169    0.073182    0.027709    0.040052     -1.6135    0.027709    0.065062
0.15633    0.033231   0.0036737    0.039402     -1.7185     0.23006    0.057267
0.13457    0.022188  -0.0080194    0.029983     -1.5668     0.49608    0.058241
0.10826     0.05207  -0.0099683    0.003024     -1.1351     0.73417    0.053694
0.078704     0.10631   -0.008669    -0.04115    -0.45918      0.8472    0.031282
0.041676     0.16088  -0.0083442   -0.091495     0.34212     0.78776  -0.0099683
0.0017248     0.19239  -0.0096434    -0.13015      1.0798     0.58703   -0.060638
-0.036602     0.19693   -0.011592    -0.14801       1.567     0.34375    -0.10449
-0.066485     0.18004   -0.013866    -0.14444      1.6521     0.15211    -0.12787
-0.079152     0.15536    -0.01614    -0.12787      1.2474    0.057267     -0.1243
-0.073631     0.13295   -0.021661    -0.11098      0.3837    0.040702   -0.095393
-0.052518     0.11118   -0.030756   -0.098641    -0.72227    0.039727   -0.042774
-0.030106    0.088124   -0.037902   -0.089546     -1.7123   -0.010618    0.023812
-0.019388    0.063113   -0.037252    -0.07428     -2.3119    -0.12787     0.08585
-0.026533    0.038103   -0.028157   -0.055766     -2.4684    -0.27988      0.1219
-0.051219    0.016016   -0.020037   -0.044398      -2.359    -0.41858      0.1206
-0.085648  -0.0041217   -0.023935   -0.047321     -2.3168    -0.52316    0.080328
-0.11748   -0.024909   -0.040175   -0.060313     -2.5626    -0.60372    0.010495
-0.13599   -0.041799   -0.061937   -0.072981     -2.9842     -0.6716   -0.069083
-0.13567   -0.048296   -0.080127   -0.073631     -3.2025    -0.71772    -0.13957
-0.11586   -0.042124   -0.085324   -0.055116     -2.8969    -0.72162    -0.18536
-0.08305   -0.026533   -0.072331   -0.019712     -1.9734    -0.67193    -0.19706
-0.044398  -0.0083442   -0.046022    0.018615    -0.52544    -0.57936    -0.18114
-0.010943   0.0023744   -0.020687    0.039078      1.1782    -0.48711    -0.15288
0.016341   0.0026992   -0.007045    0.030957      2.7135    -0.44683    -0.13502
0.039727  -0.0076946  -0.0057458   0.0033489      3.7685    -0.49491    -0.13697
0.055643   -0.021661   -0.018738   -0.036602      4.1593    -0.62353    -0.15873
0.058566    -0.04115   -0.044398   -0.085324      3.8432    -0.77911    -0.19283
0.045249   -0.068109   -0.082076    -0.13827      2.8821     -0.8811    -0.22824
0.016016    -0.10319     -0.1243    -0.18601      1.4575    -0.85479     -0.2552
-0.024909    -0.13859     -0.1623    -0.21979   -0.097991    -0.66803    -0.26851
-0.069408    -0.16653    -0.18731    -0.23766     -1.3183    -0.36173    -0.26364
-0.10838    -0.18212    -0.19608    -0.24578      -1.913   -0.032705    -0.23928
-0.13567    -0.18407    -0.19413    -0.25422     -1.8675     0.22682    -0.20388
-0.15548    -0.17627    -0.18764    -0.26884     -1.3621      0.3759     -0.1662
-0.1727    -0.16653    -0.18374     -0.2906    -0.69466     0.43274    -0.13892
-0.19381    -0.16718    -0.18536    -0.31561    -0.16458     0.44346    -0.13177
-0.21979    -0.17887    -0.19446     -0.3403    0.091047     0.45256    -0.14639
-0.25065    -0.19771    -0.20745    -0.36206     0.13035     0.48894    -0.17789
-0.27891     -0.2107    -0.21492    -0.37343      0.1219     0.56689    -0.21037
-0.30002     -0.2107     -0.2107    -0.36173     0.20603     0.68317    -0.22109
-0.31009    -0.19283    -0.19024    -0.31951     0.39084     0.82641    -0.19803
-0.30392    -0.15353    -0.15841    -0.24968     0.54123      0.9742    -0.14899
-0.28313    -0.09994    -0.11975    -0.16393     0.50615      1.0967   -0.088247
-0.25195   -0.046996   -0.077203   -0.080776     0.23201       1.172   -0.027833
-0.21297  -0.0044465   -0.033354   -0.012242    -0.20128      1.1869    0.025761
-0.16425     0.01829      0.0014    0.036154    -0.61119      1.1499     0.07708
-0.10319    0.023487    0.022837    0.069285    -0.83595      1.0794      0.1336
-0.029457    0.019914    0.028684    0.091372    -0.82751     0.99661     0.19693
0.050771     0.01894    0.025761     0.10534    -0.64432     0.91671      0.2619
0.12223    0.025761    0.022837     0.11606    -0.37862     0.85045     0.31257
0.17192    0.035505     0.02641     0.12223   -0.094418     0.79003     0.33563
0.19239    0.038103    0.034206     0.12678     0.16933     0.71305     0.32718
0.18492    0.031932      0.0433     0.12807      0.3418     0.60587     0.29243
0.16153    0.020239    0.048172     0.12775     0.38175     0.46847     0.24306
0.13522   0.0091954    0.048822     0.12515     0.36616     0.31549     0.19466
0.11443   0.0052977    0.048497     0.12645     0.43404     0.17452     0.15796
0.10664    0.012119    0.053369     0.13327     0.64062    0.073832     0.13814
0.11151     0.02706    0.067986     0.14854     0.90761    0.035505     0.13587
0.12548    0.044924     0.08585     0.17095      1.0944    0.060515     0.14626
0.14172    0.061814     0.10339     0.19434      1.0885     0.12483     0.16153
0.15893    0.075131     0.11866     0.21317     0.86799     0.18979      0.1716
0.17225    0.083576     0.13002     0.22552     0.50193     0.22097     0.17225
0.17842    0.086824     0.13295     0.23006     0.11086     0.20343      0.1664
0.17712    0.085525     0.12645     0.22747    -0.18244     0.14432     0.15601
0.16738     0.07708     0.11638     0.21805    -0.31464    0.067661     0.14399
0.15211    0.063438     0.10729     0.20505     -0.2893   -0.010293     0.13295
0.13749     0.05142     0.10014     0.19499    -0.15808   -0.079152     0.12678
0.12905    0.045574    0.095919     0.18784   0.0010752    -0.13762     0.12548
0.12678    0.046223    0.092021     0.18264     0.11963    -0.18666     0.12548
0.1284    0.049472    0.091047     0.17745     0.17192    -0.22077     0.12158
0.13262    0.053369    0.091696     0.17322     0.19044    -0.23019     0.11248
0.131    0.055968    0.090722      0.1677     0.23429    -0.20583     0.10534
0.1258    0.056942      0.0852     0.15958     0.32946    -0.15061     0.10631
0.11995    0.056617    0.077405     0.14951     0.44444   -0.078827     0.10859
0.11443    0.058891    0.069285     0.13977     0.50615    -0.01549     0.10469
0.10859    0.064413    0.066686     0.13392     0.44704    0.020239    0.091047
0.10112    0.070909    0.066037     0.13782     0.25118    0.017965     0.06896
0.09462    0.074482    0.065387     0.15309   -0.031081   -0.017764    0.046873
0.089423    0.072858     0.06831     0.17192    -0.31139   -0.071357    0.028684
0.081952    0.066362    0.071234     0.18719    -0.51309    -0.12495    0.019264
0.070909     0.06084    0.072858     0.19856    -0.59982    -0.16685    0.014392
0.06019    0.058566    0.075131     0.20473    -0.56636    -0.19511    0.010819
0.050446    0.058241    0.079029     0.20018    -0.41111    -0.20518   0.0046481
0.038103    0.053694    0.083901     0.18199    -0.14476    -0.19933  -0.0067202
0.021863    0.042975    0.084226     0.14432     0.20083    -0.19056    -0.02426
0.0010752    0.028359    0.073832    0.087799     0.58573    -0.19478   -0.047971
-0.020687    0.016016    0.049796    0.023812      0.9755    -0.22402    -0.07428
-0.035628   0.0091954    0.020564   -0.031406      1.3416    -0.27046   -0.097666
-0.038551   0.0056225  -0.0015233   -0.061937      1.6524    -0.31171    -0.10903
-0.025234 -0.00054884   -0.010293   -0.063237      1.8629    -0.31431    -0.10189
0.00010078  -0.0093186  -0.0073698   -0.042124      1.9431    -0.25487   -0.075255
0.028359   -0.019388  0.00075039   -0.012567      1.8869    -0.13469   -0.037902
0.048822   -0.024909   0.0065969    0.014717      1.7161    0.012443  -0.0011985
0.054993   -0.021012    0.011794    0.034206      1.4562     0.13847    0.023812
0.044599   -0.010293    0.013093    0.040052      1.0999     0.19304    0.028359
0.023812   0.0046481   0.0072465    0.028684     0.61139     0.14269    0.013093
-0.0011985    0.019589   -0.007045 -0.00087364     0.03518    -0.01549   -0.012892
-0.025884    0.030633   -0.026209   -0.039851    -0.48419    -0.24578   -0.035628
-0.044723     0.03453   -0.045047   -0.075579    -0.81029    -0.50433   -0.043748
-0.052843    0.032582   -0.058689   -0.097341     -0.8876    -0.75215   -0.030106
-0.050569    0.029333   -0.061613    -0.10059    -0.76287    -0.94834  0.00010078
-0.043423    0.029658   -0.052193   -0.086623    -0.56961     -1.0532    0.027709
-0.037252    0.028684   -0.032705   -0.063561    -0.44586     -1.0526    0.034206
-0.034329    0.028684   -0.011592   -0.043423    -0.45853    -0.95906    0.015042
-0.033354    0.029658   0.0043233   -0.030106    -0.57968     -0.7986   -0.020037
-0.03303    0.029983    0.013743   -0.021661    -0.72097    -0.59917   -0.053817
-0.029457    0.028034    0.019264    -0.01614    -0.79925    -0.38902   -0.071682
-0.021986    0.024461    0.023487  -0.0089938    -0.78009    -0.19186   -0.068109
-0.01484    0.020239    0.028034  -0.0041217    -0.69434   -0.026209   -0.047646
-0.011267    0.015692    0.033231  -0.0015233    -0.60274    0.094295   -0.021661
-0.0096434    0.010819    0.032257  -0.0015233    -0.54395     0.16445 -0.00054884
-0.0063954   0.0043233    0.028359  0.00075039    -0.51374     0.18654    0.012119
0.003024  -0.0034721    0.025761   0.0049729    -0.49945     0.17062    0.016341
0.01894   -0.011267    0.031282    0.011469    -0.47899      0.1271    0.021538
0.042001   -0.017439    0.042001    0.019589    -0.39519    0.072533     0.03453
0.067336   -0.017439    0.051096    0.032582    -0.18114    0.026735    0.054668
0.088124  -0.0080194    0.056942    0.053044     0.17972   0.0052977    0.076431
0.097868    0.013418    0.064088    0.084876     0.61269    0.014717    0.092346
0.099492    0.042975    0.076106     0.12678     0.98005    0.045899     0.10047
0.10079    0.075456    0.093645     0.16933      1.1571    0.080978     0.10209
0.10956     0.10339     0.11183     0.20051      1.0866     0.09397     0.10144
0.12937      0.1206     0.12385     0.21123      0.7673     0.06831     0.10404
0.15211     0.12613     0.12613     0.20538     0.24825  -0.0037969     0.10599
0.16348     0.11671     0.12223     0.19434    -0.40396    -0.10676    0.098517
0.15503    0.096244     0.11508     0.18849     -1.1422    -0.20908    0.083576
0.12743    0.070259     0.10696     0.18362     -1.9679    -0.26624    0.065062
0.083901    0.045249    0.096244     0.16608     -2.8679    -0.24286    0.044924
0.036154    0.020564    0.079679      0.1258      -3.756    -0.14574    0.022512
-0.0096434  -0.0041217    0.055643    0.063438      -4.429   -0.025884  -0.0031473
-0.054142   -0.027833    0.025111  -0.0093186     -4.6349    0.059216   -0.032705
-0.099615    -0.04927  -0.0054209   -0.080127     -4.2266    0.095269   -0.061288
-0.15223   -0.065186   -0.032705    -0.14281     -3.2275     0.10924   -0.085324
-0.20615   -0.073955   -0.054142    -0.19446     -1.8312      0.1362    -0.10871
-0.25325   -0.075255   -0.068109    -0.23668    -0.37018     0.18784    -0.13567
-0.28476   -0.072331   -0.079802    -0.27274     0.77477      0.2476    -0.16458
-0.29677    -0.07428   -0.094093    -0.30067      1.3854     0.29827    -0.19024
-0.2958   -0.086298    -0.11131    -0.32373      1.5157     0.35512     -0.2133
-0.29158    -0.10546    -0.12885    -0.34095      1.3789     0.44996    -0.23279
-0.28605    -0.11845    -0.14931    -0.36076      1.1814     0.58573    -0.24545
-0.27014    -0.11553    -0.18017    -0.38739     0.99888     0.72442    -0.24578
-0.23214   -0.096692    -0.22759     -0.4228     0.83161     0.81277    -0.23181
-0.16458   -0.076879    -0.28346     -0.4634     0.70136     0.80205    -0.20518
-0.076879   -0.067784    -0.33153    -0.48938     0.68642     0.66596     -0.1714
0.012768   -0.069408    -0.35004    -0.47834     0.87903     0.41033    -0.13859
0.083251   -0.074605    -0.33023    -0.41728      1.2945    0.076755    -0.11131
0.12158   -0.076554    -0.27664    -0.31561      1.8499    -0.27664   -0.090196
0.1258   -0.077528    -0.20745    -0.19998      2.3858    -0.59397   -0.073955
0.10469   -0.081101    -0.14184   -0.098641       2.722    -0.83823    -0.05804
0.073507   -0.087922   -0.094418   -0.027508      2.7334    -0.97237   -0.033679
0.044599   -0.089221   -0.066485    0.014392      2.4277    -0.95938   0.0085458
0.022512   -0.075579   -0.050894    0.039727      1.9418     -0.7934    0.064737
0.0023744   -0.044723   -0.034978    0.061489      1.4562    -0.51699     0.12255
-0.01484  -0.0021729   -0.011592    0.083576      1.1148    -0.21362     0.16835
-0.025884    0.044599     0.01764     0.10177     0.97355    0.023487     0.19628
-0.030106     0.08585    0.050446     0.11898     0.98459     0.14367       0.207
-0.026209     0.11183    0.078704     0.13652      1.0437     0.15926     0.20733
-0.015165     0.11898    0.097218     0.15763      1.0512     0.11898     0.20181
0.0039985     0.11086     0.10339     0.17745     0.95926    0.064088     0.19466
0.026735    0.093645     0.10242     0.19174     0.76957    0.020239     0.18264
0.049472    0.073832     0.10014     0.19758     0.51167  -0.0028225     0.16088
0.070584    0.055968    0.098517     0.20148     0.21123  -0.0021729     0.13295
0.089748    0.041027    0.095269     0.20928    -0.10514     0.02641     0.10306
0.10566    0.024786    0.089423     0.22747    -0.36141    0.087149    0.080003
0.12158   0.0085458     0.08585       0.258    -0.48061     0.17712    0.071234
0.14074   0.0026992     0.09462     0.29957    -0.42702     0.27846    0.079029
0.1677    0.016991     0.11833     0.34635    -0.21817     0.36681    0.096569
0.20278    0.055643     0.14756     0.39052    0.080003     0.43177     0.11508
0.23786     0.10989     0.17517     0.42365     0.36096     0.47724      0.1284
0.26547     0.17355     0.19661     0.43859     0.51914     0.50842     0.13814
0.27944     0.23429     0.20181      0.4269     0.51102     0.53279     0.14529
0.27326     0.27944     0.18751     0.38272     0.36551     0.55617     0.14496
0.25118     0.29568     0.15601     0.30347     0.13555     0.57826     0.13425
0.21772     0.27424     0.11378     0.19921    -0.16295      0.5958     0.11606
0.17745     0.22162    0.067336    0.083576    -0.58163     0.61496    0.099817
0.1323     0.15503    0.023812   -0.032055     -1.1422     0.64354    0.092021
0.075781    0.091696   -0.013866    -0.14509     -1.7613     0.67667    0.091696
0.0059473    0.046548   -0.045372    -0.25065     -2.3655     0.69129    0.092346
-0.072656     0.02641   -0.072331    -0.34452      -2.966     0.66303    0.086175
-0.14866    0.027709   -0.095068    -0.41305     -3.4809       0.588    0.068635
-0.21135    0.037778    -0.11293    -0.44521     -3.7274     0.48406    0.037129
-0.2565    0.044275    -0.12463    -0.44001     -3.5725     0.36583  -0.0076946
-0.28411    0.037454    -0.12755    -0.40656     -3.0248     0.23429   -0.060313
-0.29677    0.014717    -0.12105    -0.35686     -2.2365    0.074157    -0.10806
-0.2854   -0.019712    -0.10611    -0.29385     -1.4096    -0.12105    -0.13794
-0.24545   -0.055766   -0.087272    -0.22044    -0.71123    -0.34127    -0.14346
-0.18407     -0.0824   -0.067459    -0.14411    -0.22791    -0.57156    -0.11878
-0.11358   -0.093444   -0.051868   -0.076229    0.066362     -0.7999   -0.073306
-0.052843   -0.089221   -0.043423   -0.032055     0.23104     -1.0126    -0.03173
-0.017439   -0.071357   -0.038227   -0.018413     0.30185       -1.19   -0.012242
-0.016464   -0.047646   -0.034004   -0.031081     0.29048     -1.3089   -0.019063
-0.045697   -0.027833    -0.03303   -0.059339     0.18622      -1.344   -0.047646
-0.084024   -0.020037   -0.033354   -0.084999  0.00075039     -1.2809   -0.085324
-0.11228   -0.022636    -0.03173   -0.093119    -0.21947     -1.1231    -0.11748
-0.1204    -0.02426   -0.019712   -0.079802    -0.40786    -0.88792     -0.1334
-0.10903   -0.021337 -0.00022403   -0.052843      -0.504    -0.61086    -0.13567
-0.085973   -0.016464    0.019264   -0.028482    -0.48224     -0.3377    -0.12982
-0.059014   -0.016789    0.030957   -0.011267    -0.36044    -0.11098    -0.12722
-0.033354    -0.02426    0.030633   0.0026992    -0.14411    0.051096    -0.13047
-0.012567   -0.034329    0.023812    0.017965     0.17517     0.15438    -0.13404
0.0033489   -0.042449    0.020239    0.037778     0.57014      0.2187    -0.13145
0.013743     -0.0405    0.024461    0.062139     0.95991     0.26384    -0.11748
0.023487   -0.021986     0.03583    0.089423      1.2308     0.29795   -0.098965
0.038428   0.0088706    0.049796     0.11963       1.286     0.31874   -0.084674
0.056942    0.037778    0.058566     0.14691      1.1116     0.31776   -0.081101
0.069934    0.056292    0.058891       0.169     0.79263     0.28561   -0.090845
0.071234    0.058891    0.055643     0.18589      0.4636     0.20993    -0.10709
0.057917    0.048822    0.053369     0.19271     0.21967    0.089748    -0.11748
0.034206    0.030957    0.056942     0.18654    0.041027    -0.04862    -0.11651
0.0069217    0.009845    0.065062     0.17127    -0.14541    -0.13827    -0.10481
-0.014516   -0.010618    0.072533     0.15016    -0.35004    -0.12073   -0.093444
-0.02361   -0.029457    0.073182     0.13002    -0.48679      0.0014   -0.088572
-0.020362   -0.045372    0.067661     0.11021     -0.4634     0.17452   -0.090196
-0.0080194   -0.060313    0.056942     0.09462    -0.27176     0.32946   -0.093444
0.0088706   -0.073306    0.045574    0.088124    0.012443     0.41131   -0.093444
0.028359   -0.078178    0.035505    0.092021     0.30022     0.39409   -0.087597
0.048172   -0.071682    0.032582     0.10339     0.54545     0.28366   -0.076229
0.067661   -0.052843    0.039402     0.11671     0.76697     0.11281   -0.057715
0.089423   -0.028807    0.052395       0.131      1.0109   -0.056416   -0.024585
0.11606  -0.0060706    0.071558     0.14854         1.3     -0.1623    0.035505
0.14334    0.013743     0.09462      0.1729      1.5874    -0.18114      0.1245
0.15893    0.026085     0.11801     0.20278      1.7755    -0.14639     0.22227
0.15114    0.027709     0.13425     0.23136      1.7658    -0.11033     0.30152
0.1206    0.018615     0.13879     0.25053      1.5066    -0.11261      0.3431
0.081627   0.0049729      0.1297     0.25378      1.0401    -0.17432     0.34245
0.050771  -0.0041217     0.11183     0.24501     0.46165    -0.29158     0.30477
0.031932  -0.0018481    0.090072     0.23559     -0.1753    -0.41858     0.24793
0.022188   0.0072465     0.06961     0.23266    -0.79925    -0.48419     0.19563
0.016991    0.014717    0.051096     0.23818     -1.3154    -0.41825      0.1664
0.013093    0.014068    0.034206     0.23786     -1.6902    -0.20972     0.15731
0.0085458   0.0052977    0.017965        0.22     -1.9565    0.078055     0.15438
0.0065969  -0.0067202 -0.00054884     0.18167     -2.1131     0.35284     0.14724
0.012443  -0.0044465   -0.017764     0.13035     -2.0832      0.5513     0.13749
0.030308    0.022188   -0.024585    0.081952     -1.7961     0.66076      0.1349
0.051745    0.074157    -0.01614    0.050771     -1.2702     0.70169     0.13879
0.06961     0.13555   0.0049729    0.039727    -0.66381     0.70363     0.14529
0.079029     0.18524    0.027709    0.039078    -0.18212     0.68837     0.14496
0.080653     0.20798    0.040052    0.032906    0.072208     0.65589      0.1297
0.072533     0.19693    0.036804    0.012768     0.20668     0.60035    0.097868
0.05272     0.16153    0.020239   -0.018088     0.41553     0.52856    0.058566
0.028359     0.11054  -0.0031473   -0.055116      0.8001     0.45743    0.019914
0.0085458    0.053369   -0.028482   -0.094093      1.3636     0.40806    -0.01549
-0.0037969  0.00010078   -0.049595    -0.13112      2.0204     0.39507   -0.045372
-0.012892   -0.038876   -0.064861    -0.16912      2.5589     0.41715   -0.069083
-0.01614   -0.064211    -0.07428     -0.2068      2.7298     0.45678   -0.082725
-0.008669   -0.075904   -0.079802    -0.23603      2.4118     0.49186   -0.084349
0.011144    -0.07493   -0.080127    -0.24058      1.6868     0.50323   -0.069083
0.041676   -0.059989   -0.073306    -0.20972     0.77834     0.48309   -0.035953
0.076755   -0.036278   -0.059989    -0.14801   -0.053168     0.42917    0.014392
0.10859   -0.014191   -0.042774   -0.075904     -0.6297     0.33887    0.075456
0.12613  -0.0031473   -0.024909   -0.015165    -0.92463      0.2135      0.1284
0.12872  -0.0054209   -0.010618     0.01829     -1.0558    0.053694     0.15536
0.11541   -0.013216  -0.0057458    0.021863     -1.2244    -0.15093     0.14626
0.087149    -0.02361   -0.011267   0.0017248     -1.5236    -0.40104     0.10631
0.048172    -0.03238   -0.023935   -0.031081     -1.7818    -0.67745    0.049147
0.0036737    -0.04115   -0.039851    -0.06616     -1.6064    -0.95061   -0.012242
-0.039851   -0.050569   -0.056416   -0.098641    -0.69239     -1.1884   -0.070058
-0.075579   -0.061937   -0.075579     -0.1256     0.90534     -1.3488    -0.12008
-0.095068   -0.073631    -0.09182    -0.14087       2.746     -1.3949    -0.16133
-0.096042   -0.081751   -0.097341    -0.13827      4.3837     -1.3001    -0.19056
-0.089221   -0.077528   -0.092469     -0.1191      4.9589      -1.064    -0.20875
-0.084024   -0.062262   -0.078827   -0.090845      4.9586    -0.71448    -0.21362
-0.084349   -0.039201   -0.060313   -0.062587      4.9586    -0.31594     -0.2016
-0.089546   -0.016464   -0.045372   -0.041799      4.9586    0.053694    -0.17627
-0.097341  -0.0024977   -0.042449   -0.039526      4.3522     0.32361    -0.14509
-0.10156      0.0014    -0.04992   -0.057065      2.8746     0.45743    -0.11131
-0.094418  -0.0018481   -0.061613   -0.084024      1.1135     0.45126   -0.078827
-0.07493  -0.0080194   -0.068434    -0.10124    -0.69206     0.31646   -0.053168
-0.041799   -0.010293   -0.066485   -0.095393     -2.1495    0.095594   -0.037252
-0.0021729  -0.0073698   -0.054792   -0.068758     -3.0261    -0.15808   -0.034654
0.039402   0.0017248   -0.034329   -0.031406     -3.2811    -0.39519   -0.044723
0.075781    0.016991  -0.0099683   0.0026992     -3.0463    -0.58845   -0.061937
0.10534    0.033556    0.010495    0.026735     -2.5211     -0.7213   -0.079477
0.12353    0.048172    0.024461    0.044275      -1.899    -0.77944   -0.088572
0.13165    0.058241    0.032582    0.059541     -1.3313     -0.7502   -0.088572
0.131    0.063113    0.036479    0.079354    -0.87168    -0.64107   -0.085648
0.11736    0.059216    0.037454    0.097218    -0.45008    -0.46925   -0.085648
0.084226    0.045249    0.034206     0.10079    0.022837    -0.26364    -0.09182
0.031932    0.022837    0.021538    0.078704     0.51265   -0.059014   -0.098316
-0.035953  -0.0028225  -0.0021729    0.028684     0.86246     0.11866    -0.09929
-0.10481   -0.030431   -0.035303   -0.038227     0.92548     0.25605    -0.09182
-0.16263   -0.055441   -0.068758    -0.10384     0.64549     0.35804   -0.078178
-0.19543   -0.073631   -0.091495    -0.14964    0.055968     0.43957   -0.060313
-0.19836   -0.082076   -0.096367    -0.16523    -0.70343     0.51979   -0.039201
-0.17724   -0.080127   -0.085973    -0.15158     -1.4258     0.61626   -0.011917
-0.14801   -0.069408   -0.065186    -0.11715     -1.9104     0.73352     0.02706
-0.1243   -0.056091   -0.045047   -0.076229     -2.0358     0.85012    0.074806
-0.11748   -0.046022   -0.032705    -0.04115     -1.8419      0.9336     0.11931
-0.12755   -0.042124   -0.028157   -0.025884     -1.5372     0.94562     0.14432
-0.14574   -0.046022   -0.025884   -0.027833     -1.3673     0.85662     0.14042
-0.15776   -0.059989   -0.021986   -0.038551     -1.4391     0.67018     0.10794
-0.15711    -0.08305   -0.020037   -0.042774     -1.6584     0.42008    0.054668
-0.14411    -0.10709    -0.02361   -0.039526     -1.8503     0.14821  -0.0034721
-0.11845    -0.11845   -0.029782   -0.028482     -1.8997    -0.10644   -0.046671
-0.082725    -0.10774   -0.029782   -0.012567     -1.8075    -0.31236   -0.068434
-0.042449   -0.070707   -0.019063   0.0075714     -1.6486    -0.44294   -0.067459
-0.0047713   -0.022636  0.00042559    0.035505     -1.4826    -0.48614   -0.045372
0.024137    0.022512    0.024786    0.073507     -1.3154    -0.45073  -0.0057458
0.036804    0.053694    0.048497     0.11703     -1.1383    -0.35881    0.042326
0.032257     0.06961    0.069285     0.15536    -0.94444    -0.22629     0.08585
0.017316    0.076755    0.084876     0.18102    -0.73039   -0.062912     0.11216
0.003024    0.078704    0.096569     0.19304     -0.4962     0.12288     0.12223
-0.0034721    0.082927     0.10534     0.19304    -0.26754     0.31322     0.12028
0.0010752    0.090722     0.10891     0.18459   -0.090521     0.48276     0.11216
0.014068     0.10112     0.10761     0.17225  -0.0060706     0.60132     0.10631
0.032906     0.10924     0.10144     0.15828   -0.028482     0.63705     0.10631
0.053694     0.10761    0.092021     0.14204    -0.12982     0.55812     0.10404
0.069285    0.092671    0.078379     0.12515    -0.25422     0.36778    0.089748
0.072858    0.069285    0.065062     0.10729    -0.32958     0.11118    0.057917
0.061814    0.044275    0.053694    0.089748    -0.31106     -0.1597    0.014717
0.042975    0.023812    0.042975    0.069934    -0.22272    -0.40428   -0.025234
0.024786    0.009845    0.032582    0.048822    -0.13534    -0.61184   -0.050894
0.020888   0.0059473     0.02706    0.029333   -0.081751    -0.78041   -0.059989
0.045899    0.015692     0.02706     0.01829  -0.0099683    -0.89409   -0.054792
0.10144    0.042326     0.02706    0.015692     0.14009    -0.92105   -0.034978
0.16933    0.080003    0.021863    0.017316     0.36583    -0.83271  -0.0037969
0.22259     0.11606    0.010495    0.023162     0.62503    -0.63425     0.03453
0.24793     0.13555  -0.0018481    0.033881     0.86571    -0.35004    0.073182
0.24695     0.12937  -0.0089938     0.05207      1.0398   -0.019712     0.10664
0.22844     0.10144   -0.010293    0.074806      1.1178     0.31451     0.12937
0.19791    0.066037  -0.0063954    0.099167      1.0872     0.60911     0.13684
0.15698    0.034206   0.0026992      0.1232     0.94886     0.82609      0.1362
0.10956    0.012119     0.01764     0.14626     0.72182     0.96933     0.13977
0.060515      0.0014    0.038103      0.1703     0.44379      1.0638     0.15861
0.01894   0.0026992    0.061165     0.19499     0.13587      1.1246     0.19109
-0.0034721    0.016991    0.080653     0.21415     -0.2146      1.1366     0.23169
-0.00087364    0.039402    0.090722     0.22065    -0.59397      1.0785     0.26677
0.021538    0.061489    0.090722     0.20765    -0.90092     0.93425     0.27911
0.054668    0.079029    0.081303      0.1755     -1.0094     0.69486     0.25637
0.092021    0.091047    0.064413       0.131    -0.87038     0.36811     0.20376
0.131    0.091372      0.0433    0.082277    -0.52771   -0.011592     0.14074
0.16608    0.077405    0.020888    0.037129   -0.074605     -0.3809    0.089423
0.18459     0.05272   0.0039985   0.0049729     0.37915    -0.70343     0.06084
0.18037    0.026735  0.00010078  -0.0024977     0.75625     -0.9623    0.057592
0.15503   0.0095202    0.010495    0.022188      1.0444     -1.1241    0.071883
0.11963    0.008221    0.031932    0.071883      1.2275     -1.1286     0.10242
0.082277    0.021863    0.058891       0.131      1.2763    -0.93697     0.15244
0.051745    0.042651    0.087149     0.17777      1.1623    -0.58033      0.2174
0.029658    0.063113     0.10761     0.19011      0.8079    -0.15353     0.27684
0.013418    0.074157     0.11411     0.15471     0.15049     0.22812      0.3051
-0.00054884    0.072858     0.10306    0.076431    -0.74241     0.48082     0.28528
-0.019063    0.058891    0.079679   -0.020037     -1.7045     0.57209     0.22194
-0.046347    0.038428    0.047847    -0.10644     -2.5126      0.5029     0.13002
-0.078178    0.011469    0.011794     -0.1727     -2.9397     0.28561    0.024137
-0.10871   -0.019712   -0.025234    -0.22694     -2.8881   -0.059014    -0.08305
-0.13437   -0.050894   -0.061937    -0.28216     -2.4343    -0.47509    -0.18536
-0.15353   -0.076879   -0.094418    -0.33867      -1.763    -0.87526    -0.27339
-0.16653   -0.096367      -0.123    -0.39064     -1.0406     -1.1754    -0.34225
-0.17692    -0.11163    -0.15029    -0.43449    -0.36109     -1.3193    -0.38772
-0.19316     -0.1256    -0.17335    -0.46567       0.258     -1.2972     -0.4137
-0.21947    -0.14249    -0.19121    -0.48776     0.80725      -1.139     -0.4267
