-0.10156     0.15114   -0.018088   -0.015165    0.074806     0.19596    -0.01549
-0.1191     0.18167    0.013743   -0.013866     0.28333     0.22065    0.013743
-0.12235     0.19466    0.046223  0.00042559     0.43404     0.24566    0.025436
-0.11748     0.19011    0.071558    0.024137     0.49186     0.26482    0.012443
-0.11066      0.1703    0.085525     0.05272     0.43957     0.26677   -0.024909
-0.09929     0.14204    0.088773    0.086175     0.27554     0.23786   -0.077853
-0.079477     0.11541    0.086824     0.11638     0.01829     0.17257    -0.12722
-0.047646    0.096569    0.083901      0.1349    -0.27956    0.082277    -0.15451
-0.010943    0.083251    0.081303     0.13652    -0.53843   -0.011917    -0.15678
0.021863    0.071558    0.074806      0.1206    -0.64107   -0.089546    -0.14574
0.04395    0.055968    0.063763    0.092996    -0.47899    -0.13599    -0.13599
0.050771    0.032582    0.048172    0.061814   -0.037577    -0.15646    -0.13372
0.0433   0.0023744    0.031282    0.030633     0.54643    -0.16815    -0.14346
0.025111   -0.027183   0.0095202  0.00075039      1.0638    -0.18601     -0.1623
-0.0028225   -0.049595   -0.012242   -0.023935      1.3584    -0.21427    -0.17984
-0.038227   -0.064536   -0.029132    -0.04115      1.3828    -0.23636    -0.18374
-0.079477   -0.071357    -0.03303   -0.048296      1.1795    -0.23376    -0.17237
-0.12105   -0.071357   -0.026533   -0.048296     0.85012    -0.20713    -0.15126
-0.15841   -0.067134   -0.019063   -0.043748     0.50518    -0.16653      -0.123
-0.18796   -0.069083    -0.01484    -0.03303     0.24273     -0.1217   -0.086298
-0.20128   -0.081426  -0.0093186    -0.01549     0.12678   -0.078178   -0.041475
-0.19316    -0.10059  -0.0028225    0.014717     0.19304   -0.046996   0.0078962
-0.161    -0.11683   0.0072465    0.055643     0.42397   -0.042774    0.054993
-0.11261    -0.12268    0.023162     0.10209     0.73774   -0.058689    0.090397
-0.054142    -0.10774      0.0433     0.15146      1.0226   -0.054792     0.11606
0.0085458   -0.067134    0.068635     0.20278      1.1814    0.012768     0.13879
0.074157   -0.010618    0.098517     0.25215      1.1603     0.15731     0.16218
0.13684    0.040377     0.12678      0.2973     0.93262      0.3418     0.18459
0.18199    0.069285     0.14432     0.32783     0.47562     0.50388     0.19499
0.19791     0.06896     0.14561     0.33368     -0.2029      0.5906     0.19141
0.17517    0.045899      0.1284     0.30769     -1.0188     0.57533      0.1755
0.10729    0.015042    0.097868     0.25215     -1.8315      0.4623     0.14886
-0.0021729  -0.0076946    0.063113     0.18037     -2.4353     0.28171     0.11606
-0.13762   -0.014516    0.033881     0.10989     -2.6386    0.086824    0.080328
-0.27144   -0.012242    0.015367    0.053044     -2.4158   -0.068109    0.045574
-0.36693  -0.0076946   0.0052977    0.014717     -1.9465    -0.15288    0.015042
-0.40169   -0.011592  -0.0067202   -0.012242      -1.507    -0.17042   -0.007045
-0.36693   -0.030106   -0.030756   -0.039201     -1.2718    -0.13697   -0.015165
-0.27111   -0.063237   -0.063886   -0.068109     -1.2381   -0.070382  -0.0060706
-0.13015   -0.096692   -0.096692   -0.091495     -1.2793   0.0062721    0.017965
0.036154    -0.11358     -0.1178    -0.10676     -1.1884    0.073832    0.053369
0.21512   -0.096692     -0.1282    -0.11261    -0.84895     0.12645    0.092671
0.39442     -0.0405    -0.13502    -0.12138    -0.34647     0.16705     0.12775
0.55162      0.0433    -0.13957    -0.13307     0.14691      0.2044     0.15796
0.65166     0.13197    -0.13827    -0.14087     0.56039      0.2515     0.18362
0.66596     0.19109     -0.1282    -0.14119      0.8852     0.31159     0.20083
0.588     0.20083    -0.11163    -0.13859      1.0869     0.37948     0.20668
0.44249     0.16283   -0.094093    -0.13632      1.1512     0.45061     0.19628
0.27261    0.095269   -0.079477    -0.14216      1.1181     0.52304     0.17192
0.11866    0.023487   -0.072656     -0.1636      1.0561     0.58833     0.14042
0.008221   -0.032055   -0.073955    -0.20128      1.0015     0.62308     0.10664
-0.052843   -0.064536   -0.083375    -0.24903     0.89072     0.60197    0.072208
-0.073631   -0.077203   -0.094743    -0.28248     0.64517      0.5146    0.038753
-0.065835    -0.07493   -0.095393    -0.27534     0.33011     0.38857    0.013743
-0.041799   -0.059339   -0.078178     -0.2146     0.10826     0.27424  0.00075039
-0.011917   -0.034978   -0.036927    -0.10871     0.14691     0.21382  -0.0034721
0.012119  -0.0099683    0.017965    0.013093     0.46717     0.20798   -0.011917
0.021863   0.0062721    0.064413     0.11118     0.91281        0.22   -0.030756
0.016991   0.0065969    0.085525      0.1625      1.3305     0.21577   -0.056091
0.0062721  -0.0076946    0.080653     0.17095      1.5803     0.17712   -0.080776
0.0033489   -0.027833     0.06019     0.15211       1.539     0.10014   -0.097017
0.0072465   -0.042124    0.036154      0.1258      1.1168   -0.011592    -0.10741
0.011144     -0.0405    0.016341    0.096893     0.23494     -0.1688    -0.11715
0.0020496   -0.020362   0.0065969    0.062464     -1.0685    -0.39097    -0.12982
-0.021337   0.0091954   0.0033489    0.013743     -2.5217    -0.69304    -0.14769
-0.053817    0.037778 -0.00087364   -0.054792     -3.6722     -1.0653    -0.17172
-0.081426    0.053369   -0.010943    -0.13957     -4.1051     -1.4638    -0.19868
-0.098641    0.050121   -0.025234    -0.21882     -3.6449     -1.8338    -0.22597
-0.10351    0.032257   -0.038227    -0.26689     -2.4379     -2.1271    -0.24838
-0.097666    0.011469   -0.043099    -0.26722    -0.86778     -2.2986    -0.25975
-0.082725  -0.0021729   -0.037577    -0.22369     0.54838     -2.3171    -0.25975
-0.061288  -0.0024977   -0.024909    -0.15191      1.3848     -2.1842    -0.24935
-0.037252     0.01017   -0.007045   -0.072656      1.5952     -1.9387    -0.22661
-0.01484    0.032257    0.014717   0.0020496      1.3776     -1.6243    -0.19576
-0.0018481    0.054019    0.041351    0.063438      1.0086     -1.2751    -0.15483
-0.0096434    0.068635    0.067986     0.10924     0.73904    -0.91716    -0.10221
-0.034329    0.075781    0.086824     0.14269     0.71598    -0.56799   -0.037577
-0.061288    0.079029    0.093645     0.16608     0.96575    -0.22369    0.029983
-0.076554    0.080003    0.089423     0.18232       1.438     0.11281    0.090397
-0.070058    0.081303    0.078704     0.19596      1.9915     0.41975     0.13132
-0.045372    0.080003    0.066686     0.20863      2.4326     0.65719     0.14919
-0.014516    0.073507    0.057917     0.22194      2.6028     0.78938     0.14724
0.014068    0.065062    0.056942     0.24208      2.4427      0.8001     0.13132
0.039727    0.054993    0.066037     0.27164      2.0201     0.70883     0.11248
0.070584     0.05142      0.0852     0.31679      1.4455      0.5526     0.10436
0.10664    0.058891     0.11378     0.37525     0.77996     0.37103     0.11086
0.14399    0.075456     0.14691     0.43307   -0.034329     0.19921     0.12613
0.16965    0.095269     0.17615     0.47562     -1.0143    0.064737     0.13847
0.16738     0.10469     0.19434     0.49381     -1.9582    -0.01484     0.14139
0.13977     0.10144     0.20213     0.48991        -2.6   -0.022311     0.14172
0.10469    0.087149     0.19791     0.46945      -2.804    0.062789     0.15406
0.081303    0.066362     0.18654     0.44054     -2.6315     0.24533     0.18816
0.074157    0.046873     0.17192     0.41293     -2.1992      0.5029     0.24273
0.081952    0.036804     0.15763     0.39247     -1.6402     0.76957     0.30087
0.090722    0.036804     0.14074     0.36453     -1.1354     0.95666     0.33075
0.0852    0.039727     0.11248      0.2999    -0.78463      1.0034     0.30607
0.060515    0.038103    0.066037      0.1768    -0.58488     0.90794     0.22552
0.023812    0.033556   0.0049729   0.0026992    -0.52122     0.72832     0.11671
-0.0041217    0.033881   -0.052518    -0.17952    -0.57253      0.5513    0.026735
-0.0060706    0.042001   -0.088896    -0.31756    -0.69888     0.43664   -0.013541
0.015042    0.056942   -0.098316    -0.37992    -0.84505     0.39377  -0.0018481
0.039727    0.072858   -0.090521    -0.36336    -0.90319     0.39182    0.032582
0.049472    0.080653   -0.076879    -0.29677    -0.78723     0.38825    0.066686
0.03518    0.074157   -0.069733    -0.23279    -0.48224      0.3431    0.088773
0.0046481    0.050446   -0.079477     -0.2068   -0.030756     0.24371     0.09462
-0.026209   0.0075714    -0.11066    -0.22564     0.46523     0.12807    0.086175
-0.048945   -0.044723    -0.15191    -0.27111     0.86701    0.047847    0.073182
-0.059014   -0.091495    -0.18666    -0.31431      1.1187    0.041676    0.063438
-0.066485    -0.11131     -0.2029    -0.33413      1.2922     0.10177     0.06019
-0.079802   -0.095393    -0.19673    -0.31724      1.5335     0.18004    0.058891
-0.10124   -0.050244     -0.1675    -0.26819      1.9356     0.23429    0.056292
-0.1282    0.008221    -0.12365    -0.20323      2.4215      0.2606    0.050446
-0.15158    0.062789   -0.074605    -0.14119      2.7788     0.27424    0.037129
-0.16068    0.098193   -0.032705    -0.09117       2.824     0.27846    0.016341
-0.14704     0.11346  -0.0047713   -0.055441      2.5193     0.26904  -0.0044465
-0.10936     0.10599    0.009845   -0.023935      1.9869     0.24566   -0.012892
-0.058689    0.084226    0.015692     0.01764      1.4383     0.22324  0.00010078
-0.0083442    0.054668    0.015367    0.074806       1.085     0.21935    0.029983
0.040052     0.02641     0.01764     0.14691      1.0827     0.24825    0.070259
0.087799   0.0072465    0.033231     0.22779      1.4455     0.31322     0.11118
0.13035   0.0017248    0.065387     0.30639      2.0298     0.40708     0.15016
0.16056   0.0091954     0.10891     0.37168      2.6161     0.52272     0.18687
0.17517    0.023812     0.14919     0.41228      2.9636     0.64354     0.22065
0.17745    0.041676     0.17615      0.4217      2.8545     0.74099     0.24695
0.17452    0.062139     0.18654     0.39831      2.1594     0.77607     0.25735
0.16933    0.081627     0.18232     0.34732     0.85694      0.7228     0.24371
0.1651     0.09462      0.1638     0.27814    -0.96003     0.57793     0.20148
0.15633    0.096569     0.13587     0.19856     -2.9631     0.37168     0.13035
0.13392    0.088124    0.098193     0.11151     -4.7408     0.15016    0.037454
0.092021    0.067011    0.053044    0.013418     -4.9695   -0.039201   -0.069083
0.034855    0.034206  0.00075039   -0.087922     -4.9695    -0.17367    -0.17627
-0.027183  -0.0034721   -0.055116    -0.17919     -4.9691    -0.26462    -0.26624
-0.082076   -0.038227    -0.10546    -0.25292     -4.8564    -0.35167    -0.32373
-0.1217    -0.06551    -0.13794    -0.29905      -3.704    -0.47152    -0.33478
-0.13729    -0.08305    -0.14834    -0.31042     -2.3983    -0.63035    -0.30165
-0.1269   -0.095068    -0.13794    -0.28833     -1.0649    -0.79145    -0.24123
-0.090196    -0.10449    -0.11066    -0.23863     0.11183    -0.89832     -0.1753
-0.0405    -0.11391   -0.071032    -0.17952     0.95568    -0.90254    -0.12852
0.0088706    -0.12203    -0.03303    -0.13112      1.4202    -0.78463    -0.10936
0.05142    -0.12398  -0.0080194    -0.10059      1.5449    -0.56312    -0.11423
0.081952    -0.12138  -0.0011985   -0.085648      1.4007     -0.2932    -0.12885
0.091047    -0.11488   -0.013541   -0.082076      1.0827   -0.042124    -0.13632
0.074482    -0.10806   -0.033354   -0.083375     0.71728     0.15114    -0.12463
0.037454   -0.097341   -0.050244   -0.084674     0.42008     0.28463   -0.095068
-0.0028225   -0.075579   -0.059339   -0.087272     0.25637     0.36843   -0.055116
-0.026858    -0.04115   -0.059664   -0.087597     0.21675     0.40773   -0.019388
-0.027508 -0.00087364   -0.051868   -0.079152     0.22747     0.41066   0.0065969
-0.015165    0.034206   -0.034004   -0.052193     0.19921     0.40091    0.032257
-0.0099683    0.054993  -0.0076946   -0.007045    0.088448     0.40611    0.070909
-0.02426     0.06084    0.022188    0.046873   -0.092469     0.44574     0.12255
-0.050894    0.062464    0.046873    0.095269    -0.30132     0.51817     0.17615
-0.076554    0.066362    0.062789     0.12645    -0.46145     0.59385     0.21447
-0.091495    0.070259    0.069934     0.13717    -0.49588     0.63348     0.22259
-0.094093     0.06831    0.070584     0.13457    -0.36303      0.5971     0.19628
-0.09117    0.057267    0.072208     0.12807   -0.079802     0.43989     0.13977
-0.089221    0.037454    0.076106     0.12807      0.2593     0.15276    0.066362
-0.092145    0.016016    0.083576      0.1336     0.53538    -0.20193  -0.0076946
-0.096042  0.00042559    0.090722     0.14496     0.68415    -0.51342    -0.06681
-0.10059  -0.0060706    0.096569     0.15373     0.69779    -0.68232    -0.10124
-0.10514  -0.0044465     0.09397     0.15309     0.60847     -0.6807    -0.10546
-0.10936   0.0023744    0.079679     0.14367     0.45613    -0.55337   -0.087922
-0.10579   0.0075714    0.058891     0.12645     0.28626    -0.37927   -0.054467
-0.089221   0.0075714    0.041027     0.10631     0.15309    -0.22109  -0.0047713
-0.062912   0.0036737    0.033556    0.093321    0.099492    -0.10449    0.062139
-0.033354  -0.0028225    0.036154    0.089098     0.14594   -0.028482     0.13457
-0.0076946  -0.0073698    0.045899    0.091047     0.28008    0.023162     0.19304
0.011469  -0.0060706    0.055318    0.092996      0.4282    0.061489     0.22032
0.024137 -0.00054884     0.06084    0.089748     0.48147    0.075456     0.20765
0.029333   0.0078962    0.061489    0.078704     0.36616    0.042975     0.16445
0.024137    0.013418     0.06084    0.063763     0.10794   -0.064536     0.10501
0.014068    0.010819    0.061489     0.05207    -0.15678    -0.25162     0.04395
0.0049729  0.00010078    0.061489    0.044275    -0.28443    -0.47769   -0.010943
-0.0054209   -0.011592    0.057917    0.042651     -0.2448    -0.67582   -0.052193
-0.020362   -0.020362    0.050446    0.049472    -0.12885    -0.79275   -0.077528
-0.037577   -0.023285    0.038753     0.06019    -0.10709    -0.81224   -0.090845
-0.052518   -0.025884    0.027385    0.071883    -0.29353    -0.75248    -0.10189
-0.061937   -0.038227    0.020239    0.082277    -0.65244    -0.65536    -0.11326
-0.058689   -0.064211     0.01829    0.084226     -1.0698    -0.56604    -0.12365
-0.036927    -0.10254    0.014068    0.072533     -1.4284    -0.50692    -0.12852
0.0091954    -0.14119  0.00075039    0.042651     -1.6356     -0.4634    -0.12235
0.079354    -0.16425    -0.02361   -0.010293     -1.6412    -0.39292    -0.10806
0.15861    -0.15353   -0.052843   -0.081101      -1.431    -0.26624   -0.092145
0.23201   -0.099615   -0.077203    -0.15548     -1.0221   -0.087272   -0.080127
0.27391  -0.0041217   -0.088896    -0.20875    -0.46372     0.10924   -0.070058
0.27716     0.11508   -0.085324    -0.22694     0.17874     0.28431   -0.059664
0.2489     0.22974   -0.070382     -0.2107     0.84785     0.40059   -0.045047
0.20928     0.31451   -0.052843    -0.17594      1.4728      0.4295   -0.030106
0.16933     0.35479   -0.041475    -0.14314      1.9239     0.38013   -0.021986
0.13522     0.34829   -0.042774    -0.12982       2.088     0.28658   -0.024585
0.10956     0.30412   -0.055766    -0.14281      1.9561     0.19693   -0.035953
0.088773     0.24013   -0.072331    -0.17465      1.5933      0.1297   -0.050244
0.070584     0.18167   -0.079802     -0.2042      1.0898    0.064737   -0.059664
0.05272     0.14756   -0.066485    -0.20323      0.5578   -0.016789   -0.056416
0.041027     0.14367    -0.03303    -0.15711     0.11248    -0.11326    -0.03303
0.037129     0.16315    0.015367    -0.07493    -0.18277    -0.21102    0.009845
0.039727     0.18687    0.061814    0.021213    -0.31171    -0.29288    0.064088
0.049147     0.19693    0.093321     0.10339    -0.31886    -0.35816     0.11541
0.061814     0.18427     0.10599     0.15373    -0.29255    -0.43449     0.15016
0.070909     0.15438     0.10112      0.1651    -0.22791    -0.55012     0.15633
0.070584     0.11866      0.0865     0.14724   -0.018413    -0.71253      0.1323
0.056617    0.081952    0.066037     0.10891     0.36356    -0.89442    0.080978
0.030957    0.046548    0.038753    0.058241     0.68285      -1.052    0.010495
-0.0054209    0.012768   0.0033489  0.00075039     0.64452     -1.1377   -0.064861
-0.046996   -0.020362   -0.036927   -0.068434      0.2122     -1.1039    -0.12592
-0.088896   -0.052193   -0.076229    -0.14801    -0.36985    -0.93859    -0.16165
-0.12268   -0.084024    -0.10936    -0.22369     -0.7934    -0.68784     -0.1649
-0.13892    -0.10968    -0.12592    -0.27144    -0.88403    -0.43579    -0.13469
-0.13957    -0.12592    -0.12073    -0.26754    -0.62093    -0.25195   -0.076554
-0.12982    -0.13047   -0.093119    -0.20485   -0.084674    -0.16393  -0.0044465
-0.11521    -0.12787   -0.051219   -0.093769     0.61041    -0.15093     0.06961
-0.097991      -0.123   -0.008669    0.040052      1.3571    -0.16815     0.13132
-0.081101    -0.12138    0.025436      0.1664      2.0893    -0.15093      0.1677
-0.064211    -0.12365    0.045249     0.26709      2.7126   -0.039526      0.1781
-0.046671     -0.1269    0.055643     0.33108      3.0861     0.18524      0.1716
-0.031406     -0.1256     0.06019     0.35317      3.0552     0.48861     0.15406
-0.021986    -0.12235    0.055643     0.33205      2.5141     0.81504     0.12905
-0.021337    -0.11975     0.03583     0.25897      1.3922      1.1132    0.099167
-0.033354      -0.123  -0.0031473     0.12937    -0.31821      1.3367    0.065387
-0.055116    -0.13112   -0.057065   -0.040825     -2.3395       1.437    0.025761
-0.08305    -0.14476    -0.11878    -0.22337     -4.1818      1.3796   -0.022961
-0.11553    -0.16263    -0.17887     -0.3835     -4.9698      1.1587   -0.085648
-0.14704    -0.18114    -0.22629     -0.5001     -4.9698     0.83031    -0.16068
-0.1727    -0.19348    -0.24805    -0.56474     -4.9691     0.50648    -0.23603
-0.18666    -0.19836     -0.2474    -0.58228     -3.8014     0.29697    -0.29807
-0.18764    -0.19348    -0.23246    -0.56409     -2.3726     0.23948    -0.33867
-0.17335    -0.17562    -0.20713    -0.51634     -1.0568      0.2921    -0.35556
-0.14704    -0.14541    -0.17594    -0.44261    -0.16945     0.36778    -0.35394
-0.11618    -0.10903    -0.14249    -0.35232      0.1245     0.37395    -0.34777
-0.088572   -0.076554    -0.11391    -0.26267    -0.10676     0.26222    -0.34517
-0.068758   -0.052193   -0.093119    -0.19024    -0.59754    0.046873    -0.33965
-0.057065   -0.039526   -0.076879    -0.13989     -1.1039    -0.21135    -0.32308
-0.04862   -0.032705   -0.065186    -0.10741     -1.5434    -0.43936    -0.29417
-0.04115   -0.026858   -0.056091   -0.083375     -1.8861    -0.58358    -0.26462
-0.037902   -0.021661    -0.04862   -0.062912     -2.0377    -0.61671    -0.24513
-0.044073   -0.015165   -0.044073   -0.044398     -1.8766    -0.54395    -0.23928
-0.063561  -0.0067202   -0.040825   -0.028482     -1.3501    -0.39259    -0.24513
-0.091495  0.00042559   -0.039201   -0.013216    -0.53746    -0.20778    -0.25422
-0.12203   0.0059473   -0.043099  0.00075039     0.34017   -0.036927    -0.25585
-0.15256   0.0049729   -0.053168    0.013093      1.0278    0.080328    -0.23636
-0.18049  -0.0037969   -0.060963    0.023812      1.4254     0.12645    -0.19056
-0.19901   -0.019063   -0.064536     0.02641      1.5722     0.10696     -0.1243
-0.19998   -0.042124   -0.068434   0.0085458      1.5407    0.045249   -0.054467
-0.18147   -0.078827   -0.075579   -0.035953      1.4406   -0.037902  0.00075039
-0.14769    -0.12398   -0.089221   -0.099615      1.4111    -0.13275    0.032906
-0.11066    -0.16815    -0.10546     -0.1636      1.5338    -0.22467    0.039078
-0.0824    -0.20355    -0.11651     -0.2042      1.7632    -0.28248    0.029009
-0.066485    -0.22174     -0.1191     -0.2042      1.9681    -0.27891     0.01894
-0.055766    -0.21395    -0.11001    -0.16003      2.0305    -0.22044    0.022837
-0.040175    -0.17627   -0.089221   -0.088247      1.9197    -0.13892    0.039727
-0.008669    -0.10936   -0.061288   -0.008669      1.6852   -0.070058    0.061489
0.036154   -0.024585   -0.029132    0.062139      1.3939   -0.033354    0.085525
0.083576    0.062139   0.0065969     0.12418       1.097   -0.011267     0.11021
0.12515     0.13295    0.051745     0.18687     0.83226    0.027709     0.12937
0.15503     0.17517     0.10404      0.2554     0.62276     0.10924     0.13717
0.17062     0.18492     0.15373     0.32491     0.48406     0.22617     0.13327
0.1755     0.16283     0.18719     0.38402     0.41033     0.35089     0.12385
0.17485     0.12288     0.19499      0.4243     0.38402     0.45613     0.12418
0.17582    0.090397     0.18167     0.44411     0.40449     0.52694     0.14626
0.18069    0.088773     0.16121     0.44606     0.48536     0.56234     0.19499
0.17939     0.12483     0.14496      0.4295     0.64062     0.57241     0.26514
0.16478     0.18264     0.13262     0.39442     0.86019     0.56786     0.33952
0.14139     0.23266     0.11768     0.34764      1.1061     0.55617     0.39994
0.12125     0.24988    0.096893     0.29827      1.2834      0.5474     0.44021
0.10664     0.22552    0.076106     0.25767      1.2837     0.53831     0.45743
0.09462     0.17387    0.067986     0.23429      1.0629      0.5159     0.44898
0.081627     0.12093    0.075781     0.23331     0.68155     0.46295     0.41618
0.074806    0.091696    0.098517      0.2541     0.26319      0.3785     0.36941
0.079354    0.095919     0.13067      0.2921   -0.057715     0.28041     0.32296
0.093321     0.12418     0.16608       0.334    -0.19446     0.18914     0.28561
0.11411     0.15568     0.19239     0.36713    -0.12852     0.11476     0.25637
0.13197      0.1716     0.19791     0.38078    0.090722    0.058241     0.22909
0.14561      0.1638     0.18232     0.37006     0.36713    0.017965     0.20148
0.15146     0.13912     0.15666     0.33985     0.59255   -0.013866     0.16933
0.15016     0.11118     0.12807     0.30087     0.68577   -0.051544      0.1336
0.15503    0.095594     0.10729     0.26547     0.62665   -0.097017     0.10047
0.1729    0.099817    0.098193     0.24273     0.45386    -0.14346    0.079679
0.19791     0.12548     0.10209     0.23201     0.22162    -0.18179    0.073832
0.22097     0.16056     0.11411     0.23006   -0.035628    -0.20518    0.083251
0.23104     0.19271       0.131     0.23201    -0.30814    -0.20453     0.10242
0.22032     0.20798     0.14821     0.23299    -0.57286    -0.17042     0.12223
0.18459     0.20246     0.16153     0.23071    -0.77359   -0.093769     0.13717
0.12807     0.17874     0.16315     0.22227    -0.86584    0.039078     0.14691
0.066037     0.14984     0.15276     0.20505    -0.82881      0.2096     0.15276
0.017316     0.12645     0.13392     0.18004    -0.65081     0.35804     0.15179
-0.0089938     0.11378     0.11346     0.15211    -0.35556     0.43177     0.14009
-0.014516     0.11086    0.095594     0.12743   -0.011592     0.42755     0.11801
-0.0099683     0.10956    0.082602     0.10859      0.2908     0.38435    0.086824
-0.0054209    0.099167    0.071558    0.089423     0.48341     0.34472    0.050446
-0.010618     0.07708    0.061165     0.06961     0.54188     0.32231    0.013418
-0.026209    0.046223     0.05142    0.050121     0.47952     0.29113   -0.015815
-0.044073    0.011144    0.042001    0.032582     0.33952     0.20765    -0.03173
-0.053168   -0.019388    0.034206    0.018615     0.16803    0.042975   -0.034004
-0.045372   -0.037577    0.031607    0.014392   0.0062721    -0.19738   -0.027183
-0.027508   -0.047646    0.030633    0.017316    -0.10741    -0.48191   -0.023935
-0.007045   -0.055116    0.024137    0.020239    -0.15223    -0.77424   -0.034654
0.016666   -0.063237    0.011144    0.016666     -0.1295     -1.0442   -0.062912
0.047523   -0.067459  -0.0015233   0.0052977   -0.062262     -1.2647    -0.10091
0.088773   -0.055441  -0.0083442    -0.01484    0.026085     -1.4076    -0.13664
0.14367   -0.022636   -0.011267   -0.039851     0.11216     -1.4531    -0.15516
0.20538    0.025436  -0.0096434    -0.06551     0.16998     -1.3975    -0.14769
0.25702    0.073832   0.0010752   -0.080127     0.18329     -1.2592    -0.11456
0.27781     0.10956    0.017965   -0.077203     0.13814     -1.0734   -0.066485
0.26807     0.12223    0.037778   -0.056416    0.014068    -0.86259   -0.017439
0.24436     0.10859    0.054344    -0.02361    -0.21492    -0.62938    0.025111
0.22422    0.073832    0.063113     0.01017    -0.56214    -0.37408    0.061489
0.21285    0.033881    0.059216    0.034206     -1.0084    -0.10644    0.095269
0.19986   0.0059473    0.044275    0.033556     -1.5203     0.14561     0.12483
0.1755   0.0023744    0.023162   0.0043233      -2.026     0.33563     0.14269
0.14302    0.015367   0.0010752   -0.039526     -2.4493     0.43924     0.14691
0.11054    0.031932   -0.015165   -0.072656     -2.7387     0.48861     0.14854
0.083251    0.037778   -0.019712   -0.077528     -2.8744     0.55682     0.15179
0.058891     0.02641   -0.010618   -0.056416     -2.8543     0.69974     0.15179
0.029009  0.00010078   0.0078962    -0.02361     -2.7081     0.92743     0.14594
-0.018413   -0.033679    0.023812   0.0049729     -2.4957      1.2029      0.1336
-0.092469   -0.062587    0.026085    0.021863     -2.2732      1.4653     0.12028
-0.18991   -0.076229    0.017316    0.022837      -2.054      1.6488     0.11573
-0.29742   -0.072006    0.011794    0.017965      -1.788      1.7005     0.12385
-0.38772   -0.056416    0.019589    0.016991     -1.4073      1.5975      0.1336
-0.42865   -0.041799    0.035505    0.019589    -0.90092      1.3591     0.13197
-0.39681   -0.043099    0.044599    0.012768    -0.34809       1.045     0.11216
-0.29742   -0.073631    0.030957   -0.020037     0.15568     0.73579    0.070584
-0.16068    -0.13567   -0.010293   -0.084999     0.60847     0.49024   0.0078962
-0.020362    -0.21362   -0.070707    -0.17172      1.0921     0.31451   -0.070382
0.096244    -0.28248    -0.13632     -0.2552      1.6972     0.14821    -0.15516
0.17647    -0.32113    -0.18959    -0.30977      2.4651   -0.073955    -0.23798
0.21512    -0.32048    -0.21979    -0.32211      3.3765    -0.36693    -0.30879
0.21805     -0.2854    -0.22661    -0.29223      4.2999    -0.67842    -0.35524
0.19499    -0.22174     -0.2133    -0.24188      4.9589    -0.94444    -0.36596
0.15276    -0.14119    -0.18699    -0.19478      4.9586     -1.1247      -0.339
0.097868   -0.060313    -0.15776    -0.16263      4.9586     -1.2023    -0.28476
0.036154    0.008221    -0.13112    -0.14184      4.6978      -1.178    -0.21427
-0.028482    0.061489    -0.10546    -0.12495      3.6081     -1.0831    -0.14119
-0.085648     0.10404   -0.075579    -0.10059       2.455    -0.96977   -0.079477
-0.1256     0.14984   -0.034329   -0.062912      1.6186     -0.8759   -0.039201
-0.14216     0.20051    0.016341   -0.010943       1.196    -0.81776   -0.021337
-0.13957     0.24858    0.063113    0.039402      0.9638    -0.80152   -0.023285
-0.13112     0.26969    0.089423     0.06831     0.60587    -0.83141   -0.035303
-0.1282      0.2476    0.083251    0.055968   -0.047646    -0.90676   -0.048945
-0.13502     0.18004    0.045249  -0.0044465    -0.92463     -1.0149   -0.055116
-0.14509    0.080328   -0.012242    -0.10838     -1.7561     -1.1133   -0.053492
-0.15483    -0.02426   -0.081101    -0.23896     -2.2908     -1.1396   -0.054142
-0.1701    -0.10579    -0.14996     -0.3783     -2.4386     -1.0412   -0.065186
-0.19543    -0.14606    -0.20972    -0.50725     -2.2671    -0.80932   -0.088572
-0.22726    -0.14704    -0.25422    -0.61346     -1.9637    -0.48029    -0.12657
-0.25747    -0.12073     -0.2854    -0.68524     -1.7724    -0.11521    -0.17465
-0.27534   -0.084999    -0.30424    -0.71675     -1.8679     0.23039    -0.22272
-0.27826   -0.053492    -0.30619    -0.70571     -2.2953     0.52759    -0.25455
-0.26689   -0.036278     -0.2893    -0.65276     -3.0281     0.75918    -0.25845
-0.24545   -0.038227    -0.26007    -0.57026     -3.9262     0.90664    -0.23409
-0.22012   -0.055441    -0.22791    -0.47802     -4.7064     0.95081    -0.19868
-0.19803   -0.076879    -0.19966    -0.39487     -4.9691     0.87643    -0.17302
-0.17822    -0.09182    -0.17594     -0.3286     -4.8762     0.68317    -0.17335
-0.15743   -0.090196    -0.15191    -0.27111     -4.1753     0.38175    -0.19283
-0.13599   -0.074605    -0.12463    -0.20875     -3.1466   0.0072465    -0.21752
-0.11163    -0.04927   -0.094418     -0.1308     -1.9932    -0.36661    -0.22856
-0.081426   -0.018413   -0.059339   -0.038227    -0.96945    -0.64562    -0.21655
-0.04862    0.011144   -0.018413    0.054344    -0.34355    -0.75767    -0.18536
-0.02426     0.03518    0.022512     0.12255    -0.23993    -0.69986    -0.14769
-0.01614    0.047847     0.05142     0.15081    -0.52251    -0.53031    -0.11845
-0.02426    0.042975    0.062789     0.13749    -0.87233     -0.3338    -0.10579
-0.039201    0.022188    0.057592    0.098193    -0.99511    -0.17952    -0.11098
-0.051868  -0.0050961    0.049796    0.058891    -0.74826   -0.084349    -0.12268
-0.056741   -0.027183    0.046873    0.042326    -0.19056   -0.019712     -0.1243
-0.04927   -0.034978    0.056617    0.059865     0.48212    0.054993    -0.10156
-0.025884   -0.027508     0.07773     0.10599      1.0642     0.16803   -0.049595
0.0065969   -0.012242     0.10144     0.16088       1.438     0.32231    0.027385
0.03518   0.0046481      0.1206     0.20863       1.577     0.49803     0.11151
0.048172    0.019914     0.13132     0.23721      1.5137     0.65881     0.18329
0.050121    0.031282     0.13425     0.24728      1.3432     0.77704     0.23331
0.049147    0.035505     0.12872     0.24403      1.1934       0.842      0.2593
0.050121    0.036154     0.11736     0.23786      1.1675     0.86376     0.26222
0.055318    0.035505     0.10761     0.23559      1.2961     0.86896      0.2463
0.064088    0.035505     0.10274     0.24176      1.5442     0.87578     0.22097
0.075456    0.036154    0.098193     0.25215      1.8255      0.8839     0.19758
0.093321    0.037129    0.092671     0.26449      2.0565     0.87578     0.17712
0.11606    0.038753    0.091696     0.27619      2.1796     0.83226     0.15763
0.13912    0.040702    0.098842     0.27814      2.1695     0.74846      0.1362
0.15503    0.041027     0.11054     0.27261      2.0201     0.63607     0.10989
0.16023    0.036804     0.12288     0.26612      1.7271     0.51232    0.078704
0.15861    0.028359      0.1297     0.26125      1.2987     0.38825    0.044599
0.15179    0.016016     0.12645     0.26092     0.79036     0.26352    0.014717
0.14724    0.003024     0.11476     0.26612     0.29795     0.14561  -0.0060706
0.14626  -0.0031473    0.098842     0.27684   -0.094418    0.041676   -0.015165
0.14269  -0.0015233    0.083251     0.28853    -0.32308   -0.036602   -0.012892
0.12937   0.0085458    0.074482      0.3012    -0.34777   -0.090196   0.0010752
0.10339    0.023487    0.076106     0.31646    -0.16555    -0.13827    0.021538
0.068635    0.039402    0.090397     0.33563     0.19239     -0.2016    0.044924
0.029983    0.048822     0.11573     0.35349     0.65459    -0.29223    0.069285
-0.007045    0.046223     0.14172     0.36811      1.0967    -0.40428    0.091372
-0.036602    0.029333     0.16023     0.37753      1.3409    -0.52057     0.10924
-0.052843   0.0049729     0.16835     0.38175      1.2386    -0.61606     0.12418
-0.053168    -0.01549     0.16478      0.3785      0.7543     -0.6755      0.1362
-0.03238   -0.021986     0.15341     0.37103   -0.019388    -0.70311     0.14561
0.0046481   -0.008669     0.13782     0.35901    -0.86324    -0.71545     0.15893
0.048497    0.021213     0.12255     0.34407     -1.5187     -0.7083      0.1755
0.084876    0.051096     0.10826     0.32134     -1.8643    -0.63782     0.19174
0.10729     0.06831      0.0852     0.28138     -1.9507    -0.45171     0.20668
0.11768    0.067336    0.051096     0.21285     -1.8646    -0.12852     0.21967
0.11866    0.049796    0.011469     0.11476     -1.6288     0.28463     0.22552
0.11443    0.017965   -0.030756  -0.0041217     -1.1903     0.68252     0.21155
0.10436   -0.019063   -0.073306     -0.1269    -0.50465     0.95309      0.1677
0.084876   -0.055766    -0.11261    -0.23766      0.3314      1.0154    0.097543
0.061489   -0.084024    -0.13859    -0.32048      1.1012      0.8498    0.016341
0.033556    -0.09994    -0.14769    -0.35784       1.669     0.51492   -0.057715
0.0075714    -0.10091    -0.13827    -0.34322      2.0331     0.12093    -0.10903
-0.017114   -0.091495    -0.11261     -0.2854      2.2257    -0.22077    -0.13112
-0.043423   -0.075904   -0.077853    -0.20225      2.2608    -0.44878    -0.12755
-0.067784   -0.060963   -0.044723    -0.11521      2.1893    -0.56409    -0.10903
-0.0837   -0.050569   -0.021986   -0.043423      2.0945    -0.60307   -0.089546
-0.090521   -0.042124   -0.013541   0.0049729      2.0373    -0.60469   -0.082076
-0.092145   -0.032055   -0.013541    0.030633      2.0188    -0.59267    -0.08305
-0.09182   -0.016464    -0.01484    0.039078       1.971    -0.57091   -0.084674
-0.087272   0.0033489   -0.013541    0.029009      1.8155    -0.53161   -0.075904
-0.072331    0.029658   -0.012567  -0.0034721      1.5416    -0.45593   -0.055441
-0.041475    0.061165   -0.012567   -0.055766      1.2126    -0.33153   -0.028807
0.00075039    0.095269   -0.014516    -0.12138     0.91151    -0.15353  -0.0018481
0.042326     0.12255   -0.019712    -0.18147     0.69227    0.045574     0.01829
0.070909     0.12905   -0.029132    -0.21817     0.56169     0.20798    0.026735
0.081627     0.10631   -0.045697    -0.22012     0.50453      0.2934    0.023162
0.076755    0.054019   -0.069083    -0.19251     0.48959     0.30315    0.012443
0.064413   -0.019063   -0.091495    -0.14996     0.48212     0.26612  -0.0021729
0.050771    -0.09182    -0.10709    -0.10968     0.46295      0.2148   -0.021661
0.034855    -0.13729    -0.11033     -0.0824     0.42268     0.17842   -0.046347
0.010819    -0.13567    -0.10091   -0.069408     0.36973     0.18264   -0.073631
-0.019712   -0.090196   -0.080776    -0.06551     0.31127     0.23331    -0.09182
-0.049595   -0.020037   -0.056741   -0.062587     0.24078     0.32263   -0.095717
-0.070707    0.048172   -0.034978   -0.056416     0.15146      0.4295   -0.090845
-0.077203    0.095919   -0.022961   -0.046671    0.038103     0.52044    -0.09117
-0.068758     0.11736   -0.020687    -0.03303    -0.10156     0.56949    -0.10026
-0.045697     0.11216   -0.025559   -0.017439    -0.26722     0.56559    -0.11488
-0.015815    0.090722    -0.03303  0.00042559    -0.45983      0.5159    -0.11813
0.01894    0.069285   -0.034004     0.02641    -0.67355     0.45223   -0.090845
0.05272    0.061489   -0.017764    0.064088    -0.89539     0.41878   -0.017764
0.082927    0.073182    0.016991     0.11541     -1.1075     0.45093     0.09397
0.10274    0.099167    0.061165     0.16803     -1.2855     0.54285     0.21285
0.10144     0.12678    0.099167     0.20635     -1.4109     0.66108     0.30574
0.073507     0.13944     0.12028     0.22259      -1.471     0.76242     0.35836
0.027385     0.13165     0.12515      0.2187     -1.4658     0.80595     0.37428
-0.02361     0.10371     0.11833      0.2044     -1.3995     0.76307     0.36908
-0.066485    0.059865     0.10631     0.18427     -1.2835     0.62373     0.35447
-0.092469   0.0069217    0.091372     0.16315     -1.1471     0.40611     0.32718
-0.095717   -0.051868    0.072208     0.13782     -1.0003     0.14496     0.28496
-0.078503    -0.10676    0.049796     0.10404    -0.81744    -0.12235     0.22292
-0.049595    -0.13924     0.02706    0.064088    -0.58748    -0.36271     0.14659
-0.020687    -0.13047    0.010495    0.021863    -0.34484    -0.55727    0.072533
0.0043233   -0.073306   0.0072465   -0.017764    -0.13697    -0.69791    0.011794
0.026735    0.017316    0.016016   -0.047321    0.017965    -0.78723   -0.029132
0.044924     0.12255    0.029333   -0.064861     0.13067    -0.83076   -0.056091
0.055318     0.21772    0.040052   -0.067459     0.20863    -0.83206   -0.074605
0.049796     0.28983    0.044924   -0.056091     0.23169    -0.78366   -0.086623
0.027709     0.32783    0.042975   -0.032705     0.15926    -0.66965   -0.093444
0.00010078     0.32913    0.031932  -0.0018481    -0.04927    -0.49815   -0.093119
-0.012892     0.29892     0.01829     0.03453    -0.34127    -0.30002   -0.079802
0.0049729     0.25183    0.014392    0.075131    -0.59722    -0.11358    -0.04927
0.054019      0.2044     0.02641     0.11411    -0.75183    0.028359  -0.0083442
0.12418     0.16315    0.047847     0.14334    -0.86324    0.094945    0.029009
0.19921     0.12937    0.064413     0.15731     -1.0422    0.070909    0.048822
0.26384    0.098193    0.065712     0.15471     -1.3589   -0.035953    0.050771
0.30932    0.070909    0.054993     0.14107     -1.8055    -0.19186    0.038103
0.33011    0.050446    0.039078     0.11703     -2.3229    -0.35784    0.014717
0.32556    0.036804     0.01829    0.079679      -2.788     -0.5079   -0.012242
0.29178    0.025111  -0.0060706    0.027385     -3.0092    -0.61931   -0.041799
0.22941    0.011794   -0.028807   -0.038876     -2.8053    -0.68199   -0.067134
0.14756  -0.0054209    -0.04992    -0.11553     -2.0881    -0.70018   -0.080451
0.067336   -0.028157   -0.070058    -0.18471    -0.95451    -0.68947   -0.072981
0.0072465   -0.048945    -0.08305    -0.22629     0.32426    -0.68167   -0.044398
-0.022961   -0.059664   -0.084999    -0.23441       1.311    -0.69824  -0.0011985
-0.025234   -0.060638   -0.077203    -0.22044      1.6716    -0.75085    0.040052
-0.012892   -0.055766   -0.066485    -0.19738      1.3727    -0.83076    0.061814
-0.0034721   -0.050894   -0.055116     -0.1753     0.68674    -0.89994    0.054668
-0.0067202   -0.047321   -0.049595    -0.15776   0.0069217    -0.90351    0.018615
-0.021012   -0.046671   -0.050244    -0.14769     -0.3783    -0.81094    -0.03303
-0.038227    -0.04862   -0.050894    -0.14346    -0.40331     -0.6349   -0.083375
-0.04862   -0.052843   -0.045047    -0.13794    -0.18666    -0.41955    -0.11813
-0.052518   -0.053492   -0.030431     -0.1243    0.070584    -0.21752     -0.1295
-0.046996   -0.049595   -0.010943   -0.097017     0.19076   -0.072981    -0.11813
-0.034978   -0.042774   0.0085458   -0.056416    0.064413  -0.0015233   -0.090196
-0.019388   -0.037577    0.025436  -0.0034721    -0.31756   0.0091954    -0.04927
-0.0037969   -0.029782    0.041351    0.063113    -0.81452  -0.0044465   0.0069217
0.013418    -0.01549    0.058891     0.14237     -1.2023  -0.0031473    0.071234
0.033231    0.011794    0.084876     0.23104     -1.2975    0.050446     0.13035
0.055318    0.047523     0.11995     0.32523    -0.99186     0.17355     0.17874
0.083576    0.084551     0.16121     0.42235    -0.24675     0.35576      0.2148
0.12125     0.11736     0.20376      0.5146      0.8839     0.56364     0.24241
0.17127     0.14042     0.24208     0.59515      2.2494     0.75918     0.26449
0.22259     0.15406     0.26937     0.65329      3.6591     0.91476     0.28301
0.25475     0.15406     0.27976     0.67895      4.8654      1.0268     0.29015
0.25215     0.13522     0.26839     0.66206      4.9589      1.1135     0.27814
0.21902    0.097218     0.23721     0.59352      4.9586      1.1843     0.24208
0.16478    0.044924     0.19011     0.46945      3.8643       1.212     0.17907
0.09462   -0.017439     0.12548     0.28885      1.4988      1.1704    0.087799
0.0069217   -0.085973    0.039078    0.060515     -1.1906      1.0609   -0.034978
-0.10124    -0.15841    -0.06551    -0.19803     -3.3847     0.90209    -0.18147
-0.22272    -0.23019    -0.17367    -0.45236     -4.7687     0.70331    -0.32925
-0.33867    -0.29223    -0.26754    -0.66381     -4.9691     0.45905    -0.45138
-0.42475     -0.3325    -0.33348     -0.8077     -4.9691      0.1781    -0.52706
-0.46275    -0.34322    -0.36433    -0.87688     -4.9698    -0.11878    -0.54558
-0.45236    -0.32113    -0.36141     -0.8798     -4.4494    -0.40981    -0.51439
-0.40948    -0.27274    -0.33575    -0.83628     -3.7248    -0.65244    -0.44326
-0.35589    -0.21395    -0.29775    -0.76807     -2.8199    -0.81452    -0.36109
-0.30684    -0.16068    -0.25845    -0.69012     -1.8416    -0.88792     -0.2893
-0.27079    -0.13015    -0.22694    -0.61216     -0.9204    -0.89344    -0.23311
-0.24968     -0.1308    -0.20713    -0.53908    -0.11943     -0.8785    -0.19381
-0.23668    -0.15418    -0.20096    -0.47509     0.59093    -0.88305     -0.1688
-0.22142    -0.17659     -0.2016    -0.41598      1.2769    -0.89117    -0.15093
-0.19966    -0.17952    -0.20096    -0.35979      1.9142    -0.86616    -0.13145
-0.174    -0.15288    -0.19316    -0.30229      2.3072    -0.79568    -0.10384
-0.14801    -0.10286    -0.17432    -0.24513      2.1776    -0.71383   -0.069733
-0.12755   -0.044398    -0.14704    -0.19478      1.4526    -0.65439   -0.038876
-0.11098   0.0049729     -0.1178    -0.15093     0.38532    -0.60372    -0.01614
-0.090521     0.03518   -0.094093    -0.11001      -0.593    -0.51829   0.0033489
-0.058689    0.042001    -0.07493    -0.06616     -1.0789    -0.36336    0.026735
-0.023935    0.025111    -0.05739   -0.011917    -0.91813    -0.14866    0.054344
0.0010752  -0.0044465   -0.036602    0.051745    -0.26202      0.0852      0.0852
0.016016   -0.034004  -0.0076946     0.11995     0.55455     0.29957     0.12125
0.032582   -0.040825     0.02641     0.18459      1.2282     0.48471     0.16088
0.070584  -0.0076946    0.062464     0.23948      1.6163     0.64939     0.19888
0.13457    0.066037    0.097868     0.28528      1.7183     0.79685     0.22974
0.2057     0.15731     0.13035     0.32426      1.6199     0.92385      0.2528
0.2554     0.23104     0.15731     0.35414      1.4267      1.0232     0.27132
0.26157     0.26352     0.17095     0.37363      1.2366      1.0843     0.28528
0.22552     0.24858     0.16803      0.3811      1.1074      1.0937     0.28788
0.16835     0.19791     0.15211     0.37623      1.0483      1.0265     0.27294
0.11183     0.13522     0.12645     0.35609       1.018     0.85954     0.23429
0.063113    0.078055    0.095919     0.31874     0.95244      0.5945     0.17387
0.020564    0.040052    0.067336     0.25637     0.78451     0.25215     0.10177
-0.012892    0.025436    0.047847     0.16998     0.51265    -0.13729    0.024786
-0.033354    0.030957    0.039078    0.074157     0.24825    -0.53973   -0.051544
-0.042124    0.046873    0.037454   -0.011917     0.11573    -0.91618    -0.12722
-0.046347    0.063763    0.037454   -0.067784     0.17452     -1.2241    -0.19186
-0.044073    0.071234    0.037129   -0.080776     0.41845     -1.4255    -0.23668
-0.03238    0.067661     0.03518   -0.048296     0.79685     -1.4911    -0.25552
-0.014516    0.057592    0.033881     0.01764      1.2402     -1.4144       -0.25
-0.00054884    0.048822    0.039727    0.098517      1.6862     -1.2166    -0.22564
0.0039985    0.047198    0.048822      0.1742      2.0584    -0.93307    -0.18764
0.0010752    0.054344    0.059216     0.23364      2.2468    -0.59592    -0.13989
0.0020496    0.063438    0.067661     0.27489      2.1513    -0.22499   -0.078827
0.0095202    0.064413    0.073507     0.29665        1.77     0.15991  -0.0034721
0.019914    0.052395    0.072208     0.29633      1.2129     0.53928     0.07773
0.029009    0.026085    0.061165     0.27067     0.61106     0.87871     0.14464
0.033556  -0.0063954    0.039078     0.22194    0.016341      1.1291      0.1781
0.033231    -0.03303    0.011794     0.16056      -0.542      1.2587     0.16998
0.030957   -0.043748   -0.011917     0.10047    -0.95613      1.2756     0.13197
0.030308   -0.034329   -0.025559    0.053694     -1.0776      1.2295    0.081952
0.036479  -0.0080194   -0.024585    0.024786    -0.88208       1.161    0.039727
0.049147    0.027709  -0.0099683    0.017316    -0.52219      1.0837    0.012119
0.063438    0.065387    0.014717    0.030308    -0.15451     0.97875  -0.0021729
0.070909    0.098517    0.042651    0.056292     0.18816     0.81017   -0.012567
0.067986      0.1232    0.068635    0.083251     0.52044     0.56592   -0.026858
0.054668     0.13652    0.089748     0.10404     0.81764     0.27684   -0.044073
0.03583     0.13717     0.10014     0.11281      1.0229    0.012443   -0.060313
0.017965     0.12223    0.096893     0.10501      1.0788    -0.16555   -0.071682
0.0062721    0.092021    0.081303    0.080003     0.93879    -0.22791   -0.076554
0.00010078    0.048497    0.057917    0.044599     0.63965    -0.18699   -0.075904
-0.0044465      0.0014    0.033881   0.0072465     0.31581   -0.075255   -0.065835
-0.0080194   -0.040825    0.012768   -0.025559      0.1232    0.057917   -0.043423
-0.0083442   -0.071682  -0.0060706   -0.042774     0.14821     0.17355  -0.0083442
-0.00022403   -0.087272   -0.018088   -0.038227     0.35089     0.26092    0.037129
0.016991   -0.085973    -0.02426   -0.014191     0.60684     0.32718    0.082927
0.039078   -0.071682   -0.017764    0.023812     0.81179     0.38565     0.11866
0.062789   -0.048296   0.0043233    0.074806     0.93132     0.45191     0.14334
0.08585   -0.022961    0.039727     0.13197     0.97582     0.53538     0.16348
0.10501  0.00042559     0.07708     0.18264     0.96933     0.64192     0.18427
0.11476    0.016341     0.10371     0.21317     0.94821     0.77022     0.20538
0.11281    0.023487     0.11508     0.21577     0.94854     0.89917     0.22487
0.10209    0.024786     0.11021     0.19206     0.96186     0.98297     0.23429
0.087149    0.020888    0.092346     0.14367     0.95406      0.9781     0.22682
0.06961    0.013743    0.065387     0.07773     0.87513     0.85434     0.19726
0.046548   0.0062721    0.036479   0.0065969     0.64484     0.61269     0.15049
0.022837  -0.0015233    0.014068    -0.05739     0.23429     0.28333    0.094295
0.0046481   -0.016464  -0.0024977    -0.10676    -0.29288   -0.088247    0.041027
0.0020496     -0.0405   -0.014516    -0.13859    -0.84797    -0.44131   0.0010752
0.01894   -0.068758   -0.022636    -0.15029     -1.3677    -0.73656   -0.026209
0.057267   -0.095393   -0.029132    -0.14639     -1.8058    -0.96588   -0.046347
0.11118    -0.10903   -0.035953    -0.12398     -2.1404     -1.1416   -0.068434
0.17127    -0.09994   -0.040175   -0.081751      -2.347     -1.2761   -0.095393
0.22259   -0.059664    -0.03238   -0.021337      -2.385     -1.3618    -0.12105
0.2515    0.016016  -0.0073698    0.051096     -2.2109     -1.3764    -0.13437
0.25215     0.11671    0.033556     0.12418     -1.8344     -1.3066    -0.12852
0.23299     0.22065    0.080003     0.18589     -1.3388     -1.1575   -0.097341
0.2109      0.3025     0.11768     0.23266    -0.83823    -0.93859   -0.039851
0.19499     0.34407     0.13912     0.26774    -0.41176    -0.67517    0.031282
0.18102     0.34537     0.14237       0.296   -0.050244    -0.40786    0.090072
0.16056     0.31549     0.13652     0.32004     0.31419    -0.17497     0.11833
0.13067     0.26839      0.1284     0.34342     0.74943   0.0010752     0.11671
0.090072      0.2148      0.1206     0.36064      1.2237     0.12353     0.10209
0.051096     0.16218     0.11378     0.35706       1.567     0.22487    0.098517
0.022837     0.11476     0.10664     0.32361      1.5871     0.35284     0.11443
0.0075714     0.06961    0.093645     0.26287      1.1499     0.54058     0.14691
0.0017248    0.026735    0.073507     0.18687     0.22227     0.78484     0.18881
-0.0011985    -0.01614    0.050771     0.11638     -1.0955      1.0499     0.23754
-0.0093186   -0.054142    0.031607    0.066362     -2.5893      1.2935     0.28756
-0.024585   -0.079152    0.016991    0.037129      -4.008      1.4728     0.33011
-0.040175   -0.085648   0.0052977    0.010495     -4.9698      1.5293     0.34732
-0.048945   -0.076229  -0.0089938   -0.036278     -4.9695      1.4055     0.33075
-0.045372    -0.05804    -0.03173    -0.11683     -4.9695      1.0765     0.28138
-0.037252   -0.038876   -0.063561    -0.22759     -4.9695     0.54935     0.20538
-0.042449   -0.023285    -0.10254    -0.35004     -4.2666     -0.1308     0.11054
-0.076554   -0.010943    -0.14184    -0.45788     -2.7241    -0.84407   0.0065969
-0.13404   0.0017248    -0.17335    -0.52349     -1.0334     -1.4362   -0.092794
-0.19543    0.016666    -0.19154    -0.52966     0.52661     -1.7789    -0.17497
-0.24415    0.029333    -0.19576    -0.48094      1.7031     -1.8036    -0.22986
-0.27891    0.030633    -0.18699    -0.39974      2.3654     -1.5067     -0.2526
-0.30522    0.015367    -0.17237    -0.31594      2.5294    -0.93892    -0.23863
-0.32666   -0.013541    -0.15841    -0.24805      2.2832     -0.2029    -0.19381
-0.33867    -0.04992    -0.14639    -0.21037      1.7122     0.55552    -0.13372
-0.34582   -0.089221    -0.13827    -0.20908     0.93522      1.1944   -0.080127
-0.35654      -0.123    -0.13372    -0.23668     0.13197      1.6297   -0.054467
-0.37375    -0.14671    -0.13047    -0.27599    -0.55272      1.8125    -0.06681
-0.39032    -0.15905    -0.13047    -0.31496     -1.0588      1.7151    -0.11813
-0.39422    -0.16133    -0.13437    -0.35491      -1.379       1.338    -0.19608
-0.37245    -0.15516    -0.14152    -0.40169     -1.5645     0.73482    -0.28053
-0.32081    -0.14574    -0.15093    -0.44943     -1.6213    0.016016    -0.35556
-0.24415    -0.13437    -0.15776    -0.48224     -1.4999     -0.6742    -0.40461
-0.16003    -0.12268    -0.15548    -0.47574     -1.1916     -1.1997     -0.4215
-0.090196    -0.11131    -0.14444    -0.42052    -0.72877     -1.4732    -0.40591
-0.046022    -0.10189     -0.1269    -0.32471     -0.1334     -1.4804    -0.36076
-0.029457   -0.097666    -0.11131    -0.20843     0.55812      -1.279     -0.2984
-0.034329   -0.096692   -0.097017   -0.098316      1.2766    -0.96685    -0.23603
-0.047971   -0.097666   -0.082076   -0.019063      1.9314    -0.64074    -0.18666
-0.062262   -0.097017   -0.064211    0.015367      2.4264    -0.38057    -0.15581
-0.067459   -0.093769   -0.044073   0.0046481       2.672    -0.22661    -0.13762
-0.062587   -0.092794   -0.025884   -0.043099      2.5973     -0.1753    -0.12495
-0.045047   -0.093769   -0.019063    -0.11391      2.2133    -0.20908    -0.10871
-0.010943   -0.092469   -0.022311    -0.17724      1.6427    -0.31594   -0.085324
0.041027   -0.087597   -0.028157    -0.20225      1.0846     -0.4962   -0.063886
0.10177     -0.0824   -0.028807    -0.17887     0.73254    -0.74338   -0.055116
0.15081   -0.083375   -0.018413    -0.11196     0.65329     -1.0217   -0.065835
0.17485   -0.086948      0.0014   -0.017764     0.75755     -1.2624   -0.090845
0.17712   -0.078827    0.027385    0.088124     0.89624      -1.394    -0.11618
0.18004   -0.047646    0.055968     0.19531      0.9375     -1.3855    -0.12333
0.2109   0.0046481    0.082927     0.28853     0.81959      -1.255    -0.10059
0.27489    0.068635     0.10469     0.35609     0.55357       -1.05   -0.049595
0.35609      0.1323     0.11768     0.39507      0.2187    -0.82653    0.013093
0.42592     0.18849     0.12158     0.40708   -0.077528    -0.63555    0.067336
0.46523     0.22974     0.11963     0.39442    -0.25357    -0.51634    0.094945
0.46977     0.25475     0.11671     0.36843    -0.27176    -0.47379    0.092346
0.45126     0.26319     0.11671     0.34375    -0.13762    -0.48484    0.066362
0.42365     0.25767     0.11638     0.32134     0.12678    -0.51374    0.031607
0.39312     0.23591     0.11183     0.29015     0.48082    -0.52998  -0.0024977
0.35447     0.19628     0.10047     0.24695     0.84882    -0.51959   -0.028807
0.30704     0.14432      0.0865     0.19856       1.146    -0.48029   -0.042774
0.25475    0.091372    0.073182     0.16283       1.312    -0.41793   -0.042449
0.20181    0.047523    0.066037     0.15438      1.3247    -0.33283   -0.023285
0.14789    0.019264    0.067986     0.17192        1.21    -0.21849    0.013418
0.087474   0.0078962    0.078379     0.20246      1.0226    -0.06551    0.063438
0.012768    0.011469    0.091047     0.23234     0.81862     0.12418     0.12418
-0.073306    0.024786     0.10144     0.25637     0.63607     0.33887     0.19174
-0.15905    0.040377     0.11151     0.27684     0.48147     0.55422     0.26449
-0.22369     0.05272     0.12223     0.29275     0.34764     0.75073     0.33758
-0.25195    0.062789      0.1336     0.30282     0.22194      0.9232     0.39799
-0.24221    0.071883     0.14399     0.30347     0.10501      1.0794     0.44509
-0.20745    0.080328     0.15211     0.29665   0.0059473      1.2243     0.47919
-0.15808    0.087149     0.15731     0.28626   -0.060963      1.3487     0.49771
-0.10709    0.091696     0.15828     0.27326   -0.092145      1.4267     0.49738
-0.06681    0.091696     0.15698      0.2567     -0.0837      1.4267     0.47822
-0.044723    0.084226     0.15373     0.23786   -0.034978      1.3276     0.43794
-0.042449    0.067986     0.14626     0.21902    0.044275       1.136     0.37883
-0.05739      0.0433     0.13262     0.19888     0.13002      0.8943     0.30964
-0.081101    0.013743     0.11541     0.17874     0.19466     0.66043     0.24338
-0.10189   -0.016789    0.093645     0.16023     0.21902     0.47789     0.18654
-0.10838   -0.044073    0.069285     0.14659     0.19434     0.36129     0.14139
-0.098316   -0.062587    0.045899     0.13684     0.11573      0.3051     0.10242
-0.075904   -0.067784    0.030308     0.12483   0.0036737     0.28398    0.065062
-0.047321   -0.060313    0.025111     0.11216   -0.087272     0.28073    0.029333
-0.017114   -0.044073    0.031282     0.10404    -0.11196      0.3012  -0.0011985
0.0072465   -0.022961    0.044275     0.10404   -0.069083     0.36876   -0.020037
0.026085 -0.00054884    0.056617     0.11021  -0.0037969     0.47854   -0.019063
0.046548    0.025761    0.064088     0.11833    0.034855     0.60229  0.00010078
0.075131    0.054668    0.066362     0.12743    0.028684      0.7228    0.036479
0.11508    0.080653    0.062139     0.13132   0.0043233     0.84103    0.078379
0.15601    0.090397     0.05207     0.12872   -0.012892     0.96251     0.11768
0.18362    0.080978    0.036804     0.11736   -0.064211      1.0885     0.14432
0.18459    0.058566     0.01894    0.093645    -0.24286      1.2032     0.15568
0.15861    0.031607  -0.0015233    0.057917    -0.62191      1.2798     0.14951
0.11054    0.011469    -0.02426    0.014392     -1.1712      1.2909     0.12678
0.049472   0.0046481   -0.046996   -0.034004     -1.7379      1.2045    0.088448
-0.01484   0.0075714   -0.069408   -0.085324     -2.1118     0.98362    0.032582
-0.079152    0.012119   -0.089221    -0.14152     -2.0884     0.61756   -0.038551
-0.13567   0.0059473    -0.11033    -0.19966     -1.6662     0.14074    -0.11488
-0.17952   -0.017439    -0.13664    -0.25975     -1.1166    -0.37798    -0.18244
-0.21037    -0.05804    -0.16588    -0.31496    -0.73396    -0.86778    -0.22856
-0.22759    -0.10579    -0.19024    -0.35524    -0.61931      -1.277    -0.24968
-0.22629    -0.14087    -0.20128    -0.36823    -0.65081     -1.5791    -0.24448
-0.19901    -0.14444    -0.19186    -0.34517    -0.63068     -1.7617    -0.21525
-0.14964     -0.1178    -0.15905    -0.28703    -0.45853     -1.8253     -0.1662
-0.087597   -0.072331    -0.11033     -0.2068    -0.18082      -1.788    -0.11033
-0.027183    -0.02426   -0.059664     -0.1191    0.073832     -1.6801   -0.056741
0.020239    0.012768   -0.017114   -0.037577     0.20116     -1.5239  -0.0099683
0.051096    0.034206    0.014392    0.028034     0.15893     -1.3277    0.031932
0.071558    0.042001     0.03453    0.070584   -0.022311      -1.099    0.067986
0.082602    0.041027    0.045574    0.087799    -0.22824     -0.8392    0.094945
0.088773     0.03583    0.050121    0.082277    -0.36498    -0.54947     0.10534
0.090397    0.029333    0.047847    0.058241    -0.40201    -0.25098    0.095594
0.0865    0.025436    0.041351    0.024786    -0.31951    0.018615    0.073182
0.082927    0.017965    0.029009   -0.013216     -0.1282     0.22389    0.045249
0.081952  -0.0015233    0.003024   -0.059664     0.10079     0.35869    0.014068
0.082927   -0.036602   -0.039201    -0.12138     0.25637     0.43015   -0.018413
0.080978   -0.084674   -0.090521    -0.19706     0.26839     0.44476   -0.054792
0.073182    -0.13567    -0.14054    -0.27404      0.2135     0.40254   -0.094743
0.06019    -0.17465    -0.17497    -0.33055     0.27976     0.31581     -0.1256
0.038753    -0.18894    -0.18569    -0.34972     0.59028     0.21805    -0.13599
0.0078962    -0.17757    -0.17335    -0.33315      1.1035     0.14594     -0.1295
-0.029457    -0.14639    -0.14801    -0.29158      1.6501     0.11476    -0.11261
-0.063237    -0.10903      -0.123    -0.24188      2.0253     0.10794   -0.095717
-0.087922   -0.070707    -0.10416    -0.19771      2.0948    0.092346   -0.088247
-0.10059   -0.038876   -0.089871    -0.16523      1.8726    0.040702   -0.095393
-0.10156    -0.01484   -0.076229    -0.14216       1.476   -0.036602    -0.11326
-0.092794 -0.00087364   -0.063886    -0.12138      1.0219   -0.098965    -0.12917
-0.077203  0.00075039   -0.055441   -0.097666     0.60035   -0.099615    -0.13599
-0.05739  -0.0054209   -0.054467   -0.068758     0.23916   -0.021337    -0.13437
-0.04115   -0.014191   -0.059014   -0.041799   -0.090521     0.11443    -0.12625
-0.040825   -0.021012   -0.061937   -0.024909    -0.39974     0.26969    -0.11553
-0.057065   -0.020687   -0.056741   -0.020037    -0.65374     0.41196    -0.10709
-0.083375   -0.011592    -0.04115   -0.022311    -0.81971     0.52759    -0.10221
-0.10838      0.0014   -0.017439   -0.022961    -0.90709      0.5919    -0.10319
-0.12463    0.013743   0.0036737   -0.017439    -0.97692     0.57826    -0.11163
-0.13112    0.022512    0.013418   -0.008669     -1.0812     0.47627    -0.12365
-0.12917    0.022837    0.012443  -0.0063954     -1.2319     0.29665    -0.13275
-0.11845    0.015042   0.0017248   -0.017764     -1.3859     0.06019    -0.13534
-0.095717  0.00075039   -0.012242   -0.038551      -1.493    -0.19868    -0.12527
-0.06551   -0.013541   -0.021337   -0.055441     -1.5333    -0.44099    -0.10384
-0.029782   -0.021986   -0.027183   -0.058365     -1.5232    -0.62938   -0.079802
0.0020496   -0.022311    -0.03173   -0.045697      -1.471    -0.74338   -0.064536
0.028359   -0.013866   -0.039526   -0.027183      -1.331    -0.77781   -0.064211
0.042975  0.00042559    -0.04862    -0.01549     -1.0321     -0.7528   -0.078503
0.043625    0.016991   -0.057065   -0.022636     -0.5813      -0.707    -0.10059
0.032257    0.033881   -0.063886   -0.048296   -0.059339    -0.67225    -0.12235
0.011144    0.047523   -0.064211   -0.079802     0.43209    -0.65244    -0.13697
-0.0060706    0.058566   -0.052518   -0.096042     0.79296    -0.63132    -0.13534
-0.0093186    0.065062   -0.026209   -0.087922     0.95861    -0.58878    -0.10676
0.0059473    0.067986    0.011144   -0.060638     0.91736    -0.51212    -0.05804
0.036479    0.074482     0.05142   -0.025559     0.71078    -0.40656  -0.0031473
0.070584    0.089748    0.084876    0.011144     0.44541    -0.29353    0.039727
0.096893     0.11606     0.10371     0.04395     0.27261    -0.17789    0.061489
0.11378     0.14821     0.10469     0.06961     0.33303   -0.039526    0.066362
0.12223     0.17712    0.092021    0.092671     0.68999     0.14107    0.064088
0.11931     0.19499    0.079029     0.12255      1.2873     0.35219    0.061814
0.10534     0.19986    0.077405     0.15958      1.9613     0.54643    0.064088
0.073507     0.19434      0.0865     0.19921       2.507     0.68285    0.070259
0.013743     0.18199     0.10014     0.23526      2.7577     0.74586      0.0852
-0.072006     0.16218     0.11151     0.25995      2.6109     0.75073     0.10859
-0.16912     0.12905     0.11638     0.26319      2.0107     0.72637     0.13555
-0.24675    0.079679     0.11248     0.24306      1.0008     0.70623     0.15893
-0.27858    0.019589     0.10404     0.20765    -0.27079      0.7202     0.17127
-0.25617   -0.040175    0.091696      0.1716     -1.5733     0.76275     0.16413
-0.18179   -0.092469    0.079354     0.15244     -2.6838     0.79555     0.14042
-0.073306    -0.13047     0.06896     0.15049     -3.4117     0.78126     0.11151
0.050771    -0.14931    0.056617     0.15438     -3.6267     0.68674    0.085525
0.18297    -0.14444    0.043625     0.15601      -3.311     0.49673    0.066037
0.31809    -0.11163    0.033231     0.15016     -2.6029        0.22     0.05207
0.43924    -0.04927    0.029333     0.13782     -1.7327   -0.097341    0.045574
0.52077    0.033231    0.032906     0.12223    -0.91813    -0.36823    0.042975
0.53896     0.11703    0.041027     0.10891    -0.29482    -0.51829    0.045574
0.48504     0.17712    0.054019     0.10014     0.10112    -0.52122    0.046873
0.3746     0.19563     0.06896    0.099167     0.32783    -0.40721    0.040377
0.23299     0.17257    0.080653     0.10014     0.53766    -0.22954     0.02641
0.089423     0.12288    0.083901    0.094945     0.86701   -0.041475   0.0091954
-0.030756    0.066037     0.07773    0.082277      1.3188     0.11378  -0.0080194
-0.10903    0.021863    0.063763    0.066362      1.7823     0.20668   -0.025559
-0.14119  -0.0018481    0.046873     0.05142      2.1269     0.22324   -0.042774
-0.13762  -0.0076946    0.028684    0.037454      2.2637     0.16543   -0.065186
-0.11391  -0.0041217   0.0091954    0.017965      2.1373     0.04395   -0.096042
-0.080776   0.0017248   -0.012892   -0.011267      1.6988     -0.1282     -0.1334
-0.04862   0.0085458   -0.034978    -0.04862      0.9297    -0.33055    -0.16263
-0.018413    0.014068   -0.054792   -0.085324   -0.079152    -0.53291    -0.16555
0.01017    0.017965   -0.068109    -0.10774     -1.0718    -0.69044    -0.13437
0.039078    0.021863   -0.073631    -0.10774     -1.7519    -0.76222   -0.081426
0.070259    0.031282   -0.067459   -0.085648     -1.9595    -0.72519   -0.024585
0.096569    0.045899   -0.042774   -0.047646     -1.7311    -0.59949    0.021538
0.10794    0.067661  -0.0034721  -0.0096434     -1.2384    -0.43579    0.045249
0.10177    0.091047    0.036804    0.016016    -0.69304    -0.29385    0.041351
0.076106     0.10631    0.061814    0.025436    -0.25487    -0.22239    0.014392
0.034855     0.10501    0.067986    0.022837  0.00075039    -0.23571   -0.021986
-0.020362    0.081303    0.057917    0.014717    0.080978    -0.31106   -0.051544
-0.082076    0.039727    0.034855   0.0026992    0.034206    -0.39681   -0.060638
-0.14249   -0.010943   0.0056225    -0.01484     -0.0837    -0.44651   -0.047971
-0.18829   -0.064211   -0.022636     -0.0405    -0.22629    -0.43547   -0.025559
-0.19966    -0.11813   -0.049595   -0.067459    -0.34939    -0.36109   0.0049729
-0.161    -0.16718   -0.071682   -0.081101    -0.43092    -0.23766    0.049147
-0.078503    -0.20615   -0.086623   -0.070707    -0.48646    -0.10514     0.10079
0.021538    -0.23409   -0.093119   -0.037577    -0.52057 -0.00022403     0.14204
0.11151    -0.24448   -0.092469   0.0059473    -0.47996    0.047198     0.14984
0.17225    -0.22856   -0.084999    0.046548    -0.29482     0.03518     0.11931
0.19823    -0.17984   -0.069733    0.079354    0.092996  -0.0028225     0.06831
0.19369    -0.10936   -0.047646     0.10664     0.69194  -0.0063954    0.024786
0.1677   -0.035628   -0.020362      0.1271      1.3776    0.083901    0.014392
0.13425    0.023487   0.0075714     0.13847      1.9476     0.29243    0.053694
0.10729    0.066686    0.036479     0.14139      2.2637     0.58963     0.13587
0.090072    0.096244    0.067986     0.14367      2.2858     0.90112     0.23494
0.073832     0.11411     0.10079     0.14984      2.0331      1.1561     0.31679
0.0433     0.11606     0.12548     0.15536      1.5481      1.3097     0.36259
-0.0089938     0.10306      0.1336     0.15406     0.89787      1.3338     0.37265
-0.079152    0.085525     0.12645     0.14529     0.17485      1.2136     0.35869
-0.15288    0.073507     0.10826     0.13132    -0.53193     0.94789     0.32881
-0.20453    0.080653    0.085525     0.11476     -1.1029     0.56039     0.28561
-0.21525     0.11183    0.065387     0.10469     -1.3219     0.11671     0.22877
-0.18212     0.15958    0.054668     0.10501     -1.0088    -0.28508     0.16315
-0.11391     0.20798    0.055318     0.11476    -0.23344    -0.55337     0.10047
-0.024585     0.24078    0.067011      0.1323     0.66758    -0.64692     0.05207
0.065387     0.24728    0.080653     0.15568      1.3328    -0.57838    0.022837
0.14009     0.22877    0.090722     0.18102      1.5611    -0.39974    0.013093
0.19206     0.19596     0.09397     0.20051      1.2902    -0.17919    0.019589
0.21772     0.16153    0.091696     0.21058     0.57306    0.029658    0.032906
0.21675     0.13425    0.087474     0.20213    -0.53063     0.19628    0.050121
0.19336     0.11281    0.082927     0.17192     -1.9322     0.31549    0.065062
0.15796    0.094295    0.078704     0.12483     -3.3685     0.39474    0.074157
0.12743    0.076431    0.072208    0.074157     -4.4923     0.44996    0.080003
0.11086    0.056292    0.061165    0.027385     -4.9695     0.48276    0.092996
0.10339    0.034855      0.0433   -0.013866     -4.8947     0.47854     0.11801
0.092671    0.013093    0.018615   -0.056741     -4.1837      0.4204     0.15049
0.075781  -0.0060706  -0.0073698    -0.10059     -3.0986     0.31906     0.17582
0.051745   -0.019388   -0.030106    -0.14054     -1.8078     0.19921     0.17777
0.021538   -0.030756   -0.046996     -0.1662     -0.4202    0.082277     0.14626
-0.010293   -0.039851   -0.059664    -0.17237     0.99888   -0.023285      0.0865
-0.038876   -0.049595   -0.069733      -0.161      2.3715    -0.12008    0.012768
-0.058689   -0.063886   -0.082076    -0.14834      3.6224     -0.2146   -0.059989
-0.072006   -0.081751   -0.097341    -0.15418      4.6354    -0.28833    -0.11975
-0.0824    -0.10059    -0.11488    -0.18212      4.9586    -0.30977    -0.15938
-0.089546    -0.11358    -0.13177    -0.22629      4.9586    -0.25487    -0.17497
-0.096042    -0.11651    -0.14184    -0.26397      4.9583    -0.13762    -0.17107
-0.10481    -0.10871    -0.14541    -0.28703      4.5419  -0.0076946     -0.1649
-0.11813   -0.094743    -0.14509    -0.29677      3.3498    0.079354    -0.16977
-0.13469    -0.08305    -0.14476     -0.2958      1.9106    0.088773    -0.19056
-0.15288   -0.075904    -0.14379    -0.28833     0.58053    0.019914    -0.22824
-0.16815   -0.076229    -0.14022    -0.27566    -0.38155    -0.10968    -0.27858
-0.18179   -0.084999    -0.13534    -0.26299    -0.95158    -0.26364     -0.3364
-0.19121   -0.098965    -0.13437     -0.2539     -1.2092    -0.39454    -0.38545
-0.19089    -0.11326    -0.14216    -0.24708     -1.2036    -0.45983    -0.41143
-0.18244    -0.12268    -0.14899    -0.24026    -0.99641    -0.43709    -0.40331
-0.16945    -0.12625    -0.15093    -0.23603    -0.71415    -0.34322    -0.36531
-0.15873    -0.12398    -0.14249    -0.23538    -0.50985    -0.21914    -0.31171
-0.15808    -0.11975    -0.12722    -0.23636    -0.48256    -0.10838    -0.26202
-0.1662    -0.11683    -0.11033    -0.23116     -0.6362   -0.056741    -0.22986
-0.17465    -0.11975   -0.099615     -0.2146    -0.85349   -0.096367    -0.22077
-0.17789    -0.13047   -0.095717    -0.18796    -0.94119    -0.21947    -0.23149
-0.17432    -0.14379   -0.094093    -0.14899    -0.76904    -0.37603    -0.25325
-0.16425    -0.14996   -0.084674   -0.098316    -0.37375    -0.50303    -0.27176
-0.14736    -0.14152   -0.064861   -0.040825    0.077405    -0.55759    -0.27241
-0.12333    -0.11748   -0.033354    0.020564     0.38045    -0.52576    -0.24773
-0.087922   -0.086298   0.0039985      0.0852     0.46523    -0.42052    -0.19966
-0.042124   -0.059014    0.041027     0.14756     0.42235    -0.26851    -0.13762
0.0091954   -0.046022    0.070909     0.20018     0.35414   -0.088247   -0.075579
0.064413   -0.044723    0.089098     0.23721     0.27002     0.10501   -0.020037
0.11931   -0.045047    0.099817     0.25702      0.1245     0.28138    0.028359
0.16315   -0.033354     0.10859     0.26774    -0.11618     0.40286    0.075456
0.18492  -0.0044465     0.11995     0.28171    -0.45983     0.44379     0.12255
0.18199    0.037454     0.13457     0.30542    -0.90124     0.40156     0.16575
0.16543    0.083576     0.14529     0.33335     -1.4401     0.31354     0.20376
0.14691     0.12353     0.15146     0.35706     -2.0134     0.23624     0.23883
0.12353     0.14854     0.15601     0.37006     -2.4642     0.21188     0.27554
0.090722     0.16185     0.16023     0.37428     -2.6152     0.26027     0.31744
0.05272       0.169     0.16218     0.37688     -2.3749     0.37655     0.35771
0.016991     0.17972     0.15828     0.38142     -1.8006     0.54285     0.38337
-0.016464     0.19628     0.14984     0.38337     -1.0779     0.73611     0.38337
-0.050894     0.20765     0.13847     0.35966    -0.42117     0.91963     0.34959
-0.090845     0.19726     0.11833     0.29568    0.028359      1.0385     0.28723
-0.13015     0.15698    0.086175     0.19466     0.23526      1.0583      0.2083
-0.16035    0.092671    0.046548    0.080978     0.24436     0.96348      0.1258
-0.1727    0.027709    0.011794   -0.011592      0.1349     0.76275    0.054993
-0.15905   -0.015165  -0.0093186   -0.060963   -0.011917     0.49251    0.010495
-0.11845   -0.025884   -0.017439   -0.062912     -0.1321     0.20538  -0.0067202
-0.053168   -0.011592   -0.022636   -0.038227    -0.21492   -0.034654  -0.0024977
0.031932    0.012443   -0.030106   -0.011267    -0.26787    -0.17465    0.015042
0.13132    0.037778   -0.040825  0.00010078    -0.27631    -0.19771    0.047523
0.23461    0.062464    -0.04862  -0.0024977    -0.18309     -0.1243    0.089748
0.32913    0.089098   -0.047971   -0.011592    0.072208   0.0088706     0.14237
0.39474     0.11963   -0.038227   -0.019712     0.47887     0.15114     0.19888
0.41228     0.14496   -0.025884   -0.028807     0.95211     0.24436     0.24793
0.36876     0.15926   -0.018738   -0.037252      1.4192     0.23331     0.27164
0.26969     0.15601   -0.019712   -0.045047      1.8554    0.097868     0.25897
0.13879     0.13555   -0.027833   -0.053168      2.2465    -0.12625     0.21577
0.0065969     0.10014   -0.034004   -0.060638      2.5453     -0.3705     0.15601
-0.098641    0.062139    -0.03173   -0.059339      2.6895    -0.56182    0.095919
-0.16295    0.031607   -0.022961   -0.050244      2.6395    -0.64497    0.046548
-0.18439    0.012443  -0.0089938   -0.032705      2.4102    -0.59365    0.012443
-0.174  -0.0021729   0.0059473   -0.011592       2.048    -0.41273  -0.0093186
-0.14964   -0.016464    0.015042   0.0095202      1.5644    -0.15841    -0.03238
-0.12885   -0.037252    0.017316    0.028034     0.93977     0.06896   -0.070707
-0.11813   -0.062262    0.013743    0.039727     0.14269      0.1729    -0.12495
-0.10968   -0.083375   0.0095202    0.040702    -0.81776     0.11021    -0.17984
-0.092794   -0.089871   0.0091954    0.038103     -1.8133   -0.097991    -0.21752
-0.064211   -0.075579    0.016666    0.037454     -2.6334    -0.36433    -0.22759
-0.029782   -0.044723    0.030308    0.046548     -3.0992     -0.5904    -0.21102
0.0023744   -0.008669    0.042651    0.061165     -3.2019    -0.71448    -0.17497
0.027709    0.016991    0.044599    0.072533     -3.0758    -0.73104     -0.1269
0.045899    0.025111    0.033881    0.070259     -2.8631    -0.68557   -0.072331
0.06084    0.017316    0.015042    0.046548     -2.6789    -0.65179   -0.017114
0.072208   0.0049729  -0.0031473   0.0017248     -2.5886    -0.66965    0.035505
0.079679 -0.00022403   -0.016789   -0.048945     -2.5425    -0.71415    0.084876
0.0865    0.010819   -0.023935   -0.085324     -2.4476    -0.72552      0.1323
0.093645    0.036154   -0.022311   -0.090521      -2.242    -0.66998     0.17517
0.099167    0.068635   -0.011267   -0.061613     -1.8919    -0.56376     0.20538
0.10339    0.098517   0.0075714  -0.0089938     -1.4037    -0.45301     0.21642
0.10599     0.11995    0.026735    0.050121     -0.7986    -0.37798      0.2057
0.10501     0.13067    0.041351     0.10306   -0.095068    -0.34647     0.17842
0.10144      0.1323    0.053369     0.14302     0.63835    -0.33965     0.14334
0.097218      0.1258    0.064737      0.1638      1.2821     -0.3325     0.11021
0.092996     0.11054    0.075456      0.1703      1.7151    -0.31724    0.082927
0.080328      0.0852    0.083576     0.16348       1.844     -0.2919    0.058241
0.057592    0.053044    0.087799     0.14854      1.6768    -0.24513    0.038753
0.030308    0.019914    0.087474      0.1362      1.3403     -0.1597    0.025436
0.0075714  -0.0063954    0.092671     0.13327     0.99986   -0.029457    0.022512
-0.00022403   -0.022636     0.10729     0.13587     0.78581     0.11443     0.02706
0.0075714   -0.029132     0.12288      0.1336     0.76989     0.21025     0.02641
0.026735    -0.03173     0.12515     0.11248     0.95049     0.21025    0.018615
0.051096   -0.035953     0.10534    0.067986      1.2594     0.12905   0.0056225
0.073832   -0.043423     0.06831   0.0091954      1.5673    0.025111   -0.011267
0.087149    -0.04992    0.026735   -0.050244        1.72   -0.059664   -0.034654
0.084876   -0.057065   -0.014191    -0.10741       1.615    -0.12885   -0.070058
0.059865    -0.06551    -0.04992    -0.17075      1.1002     -0.2042      -0.123
0.0072465   -0.075255   -0.085648    -0.24805     0.15179    -0.29905    -0.19121
-0.059014   -0.084024    -0.11748     -0.3325    -0.87915    -0.39779     -0.2591
-0.11813   -0.085324    -0.13827    -0.39941      -1.494    -0.47055    -0.30489
-0.14866   -0.077853    -0.14281     -0.4267     -1.3686    -0.49978    -0.31594
-0.14671   -0.057715    -0.12722    -0.40558    -0.52576    -0.49036    -0.29028
-0.11845   -0.031081    -0.10189    -0.35361     0.66596     -0.4686    -0.23733
-0.085973  -0.0057458   -0.081101    -0.29775      1.6959    -0.46567    -0.18017
-0.067459   0.0091954   -0.072006     -0.2578      2.2241    -0.49328    -0.14087
-0.063886    0.009845   -0.074605    -0.23571      2.2078      -0.542    -0.13047
-0.070058  -0.0021729   -0.087272    -0.22694      1.8271    -0.57903    -0.14476
-0.077528   -0.019388   -0.097017    -0.21979      1.3071    -0.57189    -0.16685
-0.081426   -0.033679   -0.093769    -0.20453     0.81244     -0.5066    -0.18017
-0.080776    -0.04115   -0.078503    -0.17465     0.43242    -0.39097    -0.18017
-0.076229    -0.04115   -0.053492     -0.1295     0.20376    -0.24903    -0.16847
-0.06681   -0.037902   -0.025234   -0.080451     0.14237   -0.097341    -0.15061
-0.05739   -0.033679  0.00075039   -0.038876        0.22    0.061165     -0.1308
-0.053168   -0.029132    0.019914  -0.0093186     0.34894     0.23071    -0.11066
-0.053492   -0.022636    0.031932    0.010495     0.44769     0.40903   -0.086948
-0.055116   -0.015815    0.033231    0.024461     0.50453     0.59482   -0.060313
-0.052843   -0.011917    0.028034    0.040702     0.54643     0.78191   -0.035953
-0.044398   -0.011267    0.020888    0.064737     0.59515     0.95244   -0.019063
-0.034978   -0.014516    0.018615    0.093321     0.63088      1.0869   -0.014516
-0.030106   -0.018413    0.024461     0.11541     0.57761      1.1694   -0.021012
-0.034004   -0.020687    0.033881     0.12223     0.38402      1.1837   -0.036278
-0.047321   -0.023285    0.038753     0.11573    0.086175      1.1278   -0.056091
-0.064211   -0.028807    0.032582     0.10014    -0.21102      1.0132   -0.075255
-0.071357   -0.042124    0.022512      0.0852    -0.38122     0.86539   -0.092469
-0.063886   -0.059989    0.014392    0.077405    -0.36433     0.70688    -0.11196
-0.042449   -0.077853    0.012443    0.080328    -0.19738     0.54903    -0.13729
-0.011267   -0.097666    0.014392     0.09462    0.032257     0.40059     -0.1636
0.020888     -0.1191    0.014392     0.11573     0.23039     0.26157    -0.17822
0.051096    -0.13664    0.014068     0.13814     0.33173     0.15276     -0.1597
0.075781    -0.13989    0.014717     0.15796     0.30607     0.10501   -0.099615
0.090397    -0.12008    0.017965     0.17355     0.16445     0.13425  -0.0050961
0.088773   -0.080776    0.020564     0.17907    -0.06551     0.21805     0.10469
0.079029   -0.035628    0.014717     0.16803    -0.35751     0.31776     0.20473
0.080653   0.0052977  -0.0024977     0.13652     -0.6768     0.40124     0.28561
0.10534    0.042651   -0.018088     0.10014    -0.97335     0.46198     0.34732
0.15016    0.086175   -0.015815    0.087799     -1.1867     0.52272     0.39767
0.19336     0.14529    0.013093     0.11995     -1.2692     0.60976     0.44281
0.22129        0.22    0.062139     0.19499     -1.1874     0.72572     0.48017
0.22812      0.2986     0.11638     0.29275     -0.9662     0.85987     0.49511
0.21935     0.35901     0.16185      0.3824    -0.73104     0.99076     0.47562
0.20863      0.3798     0.18622     0.43664    -0.63782      1.0648     0.42138
0.20376     0.35317     0.18232     0.43989    -0.73169      1.0242       0.347
0.20148     0.28561     0.15373     0.39961    -0.89409     0.84168     0.27651
0.18784     0.19499     0.11346      0.3314    -0.94541     0.53636     0.22877
0.15081     0.10112    0.072858      0.2541    -0.75703     0.14139      0.2109
0.089748    0.023812    0.042326     0.18654    -0.34484    -0.30457     0.20668
0.022188   -0.024909    0.028034      0.1362    0.095269    -0.75248     0.19628
-0.027508   -0.044398    0.028359     0.10436     0.32523     -1.1497     0.16315
-0.051868   -0.040175    0.038428    0.079029     0.19206     -1.4427     0.10534
-0.059339   -0.027833      0.0433     0.03518    -0.28216     -1.6113    0.033231
-0.065186   -0.021012    0.032582    -0.04927    -0.84083     -1.6639   -0.046996
-0.082076   -0.029132  -0.0028225    -0.17465     -1.1169     -1.6207      -0.123
-0.11228   -0.053817   -0.059014    -0.31854    -0.89344     -1.4986    -0.17757
-0.14411   -0.087922    -0.12008    -0.44131    -0.24221     -1.3163     -0.2016
-0.16393     -0.1217    -0.16847    -0.51147     0.52954      -1.113    -0.19673
-0.16718    -0.14574    -0.18959     -0.5118      1.0794     -0.9269     -0.1753
-0.15353    -0.15418    -0.18212    -0.45106      1.2565    -0.76872    -0.15191
-0.12495    -0.14541    -0.15743    -0.35524      1.1217    -0.61703    -0.13177
-0.086623    -0.12657    -0.12982    -0.25195     0.83875    -0.43027    -0.10806
-0.045372    -0.10286    -0.11066    -0.16718     0.56007    -0.18342    -0.07493
-0.0093186     -0.0837    -0.10319    -0.11618     0.38662     0.11118   -0.032055
0.0088706   -0.074605    -0.10384    -0.09994     0.32036     0.41683    0.016341
0.0078962   -0.072006    -0.10676    -0.10579     0.28106     0.69227    0.065712
-0.0034721   -0.065186    -0.10481    -0.11033     0.16673     0.89917     0.10794
-0.0089938   -0.047646   -0.088896   -0.095717   -0.096042      1.0197     0.13847
0.0062721   -0.016464   -0.059989   -0.056091    -0.50757      1.0531     0.15568
0.044599    0.019589   -0.025559   0.0043233    -0.98861      1.0109     0.15926
0.085525    0.053369   0.0065969     0.07773     -1.4187     0.91313     0.15406
0.10826    0.079679    0.033231     0.15114     -1.6847     0.77931     0.14854
0.10371     0.10047    0.057917      0.2083     -1.7724     0.61431     0.14367
0.082277     0.12125    0.078055     0.24273     -1.7503     0.41683     0.13782
0.057592     0.14042    0.092996     0.24598     -1.6951     0.19271      0.1232
0.042001     0.14854    0.092671     0.21805     -1.6314   -0.021337    0.091696
0.037454     0.13457    0.070909      0.1664     -1.4956    -0.15905    0.039402
0.032582    0.099817    0.032257    0.098517     -1.1461    -0.17465   -0.025884
0.014717    0.053369   -0.012242    0.029009    -0.47249   -0.080451   -0.094743
-0.0089938   0.0095202    -0.04992   -0.026209     0.45516    0.064737    -0.15613
-0.022961   -0.015165   -0.072981   -0.056741      1.3731     0.19499    -0.19576
-0.01549   -0.012242   -0.081426   -0.059989      2.0094      0.2567    -0.20843
0.011794    0.015367   -0.073306    -0.04115      2.2273     0.23104    -0.19446
0.042326    0.054668   -0.051219   -0.013541      2.0578     0.14269    -0.16425
0.058891    0.090397    -0.02426    0.011794       1.654    0.033556    -0.12463
0.056942     0.11573  -0.0041217    0.020888      1.2201   -0.064211   -0.085648
0.044599     0.13132  -0.0018481    0.015042     0.93685    -0.14022    -0.05804
0.034206     0.13977    -0.01549   0.0072465      0.8839    -0.19706   -0.045697
0.033556     0.13555   -0.030431    0.012768      1.0164    -0.23246   -0.042124
0.044275     0.12288   -0.033354    0.040702      1.2159    -0.23701   -0.040175
0.067011     0.10534   -0.016464    0.095594       1.375    -0.19543   -0.029457
0.092671    0.091696    0.015692     0.17387      1.4494   -0.089546  -0.0031473
0.11021    0.087149    0.054344     0.26125      1.4569    0.081627    0.041351
0.11086    0.090722    0.091047     0.33595      1.3646     0.27879    0.092671
0.092996    0.093645     0.11508     0.38013      1.0512     0.44476     0.13717
0.056292    0.085525     0.12158     0.38532     0.38662     0.53441     0.16088
0.0069217    0.062789     0.11411     0.36031    -0.57026     0.53993     0.16543
-0.044073    0.027709     0.10274     0.31646     -1.5622     0.49706     0.15211
-0.085648   -0.015165    0.092996     0.25962     -2.3785     0.43989     0.11833
-0.11326   -0.063886    0.081303     0.18557     -2.9735     0.36876    0.060515
-0.1308    -0.11033    0.059865    0.090397     -3.4597      0.2567   -0.014191
-0.14801    -0.14736    0.024461   -0.021012     -3.9359    0.076755   -0.089221
-0.17107    -0.17497   -0.021337    -0.13729     -4.3159    -0.16295    -0.15061
-0.19024    -0.19186   -0.063886    -0.23733     -4.3962    -0.43222    -0.18569
-0.19348    -0.19803   -0.094093    -0.30262     -4.0171    -0.68199    -0.18666
-0.17172    -0.19446    -0.10903    -0.32601     -3.1492    -0.85512    -0.15613
-0.12755    -0.18179    -0.11196    -0.31204     -1.9029    -0.90351    -0.10481
-0.075579    -0.16035    -0.10124    -0.26527    -0.48711    -0.80802   -0.046996
-0.037252    -0.13015   -0.081101    -0.20063     0.85987    -0.59105   0.0056225
-0.022636   -0.093769   -0.056091    -0.13697      1.9389    -0.30912    0.043625
-0.027833   -0.059664   -0.034329   -0.087922      2.6161   -0.032055    0.061489
-0.037577   -0.039201   -0.020687   -0.065835      2.7792     0.18037    0.054668
-0.038876    -0.03303   -0.017439   -0.074605      2.4414      0.2947    0.029658
-0.025559   -0.029132   -0.021337    -0.10936      1.7849     0.30997  -0.0041217
0.0010752   -0.011592   -0.030106    -0.15646       1.033      0.2502   -0.039526
0.03583    0.027709     -0.0405    -0.20518     0.37428     0.14854   -0.071032
0.067986    0.084226    -0.04927    -0.24188  -0.0060706    0.029009   -0.093769
0.086824     0.14042   -0.054467    -0.25682    0.014717    -0.10124    -0.10156
0.083576     0.17842   -0.056091    -0.24643     0.36908    -0.23246   -0.098641
0.056942     0.18946   -0.055441    -0.21914     0.82544    -0.35751   -0.094418
0.014068      0.1729   -0.049595    -0.18634      1.1652    -0.46307   -0.094093
-0.026858     0.13782   -0.038551    -0.15029       1.272    -0.52674    -0.10091
-0.052518    0.096893   -0.026209    -0.10968      1.1418    -0.52771    -0.10806
-0.053168    0.062464   -0.014191   -0.063237     0.85467    -0.46307    -0.10676
-0.034329    0.041027 -0.00054884   -0.014191     0.52142    -0.34907   -0.090845
-0.00087364    0.033556    0.015367    0.032257     0.23721    -0.20908   -0.060313
0.038753    0.038753    0.033881    0.073507    0.054993   -0.068109   -0.021337
0.072858    0.049796    0.054668     0.10501   -0.012567    0.049472    0.015367
0.09397    0.059541    0.070259     0.12483    0.013418      0.1336    0.041351
0.096569    0.063438    0.071883     0.13457    0.092671     0.18329    0.055318
0.081952    0.059216    0.062789     0.13425     0.19596     0.19531    0.055643
0.054993    0.051096     0.05207      0.1297     0.30315     0.17517    0.045249
0.029333    0.039078    0.048822     0.12678     0.40514     0.13262    0.030957
0.017316    0.027709     0.05272     0.12905     0.49673    0.082927    0.015692
0.024137    0.020239    0.061814     0.13684     0.57176    0.037454   0.0036737
0.04395     0.01894    0.072208     0.14529     0.61691    0.003024  -0.0054209
0.067011    0.024137    0.081303     0.15536     0.60814    -0.01549   -0.011267
0.084226    0.029009    0.084551      0.1638     0.53149   -0.016464    -0.01614
0.09397    0.023162    0.080978     0.17322     0.39734  -0.0073698   -0.019388
0.10079   0.0069217    0.073832     0.18329     0.24046   0.0023744   -0.018738
0.10079    -0.01614    0.068635     0.19401    0.089098    0.014068  -0.0093186
0.091696   -0.037252    0.065387     0.19986   -0.045047    0.039402   0.0059473
0.066362   -0.047646    0.062789     0.19726    -0.15776    0.087474    0.028034
0.029333   -0.039851    0.063438     0.18654    -0.22954     0.15601    0.058566
-0.0096434    -0.01484    0.066686     0.17615    -0.23538     0.24078    0.094945
-0.040175     0.01894    0.071558     0.17192    -0.16523     0.33011     0.12613
-0.053168    0.047523    0.073507     0.17062  -0.0073698     0.40936     0.14367
-0.053168    0.064088    0.072533      0.1625     0.26774     0.46068     0.14594
-0.050894    0.066686    0.069285     0.13944     0.64192      0.4675     0.13944
-0.048296    0.059541    0.063763     0.10729      1.0252     0.42787     0.13067
-0.041799    0.048172    0.059216    0.076755       1.311     0.35382     0.12418
-0.027508    0.033231    0.055643    0.055643      1.4448      0.2619     0.12125
-0.010943    0.023162     0.05142    0.047198      1.4374     0.15698     0.11931
0.0052977    0.016341    0.049147    0.048497      1.3429    0.034855     0.11248
0.012119    0.012768    0.048497    0.057592      1.1649    -0.11066    0.092021
0.0065969   0.0091954    0.050446    0.065062     0.77217    -0.26332    0.054344
-0.011917   0.0075714    0.054668    0.066686     0.06831     -0.3744   0.0017248
-0.037902   0.0049729    0.058566    0.062464    -0.78496    -0.39551    -0.05739
-0.062262  0.00075039    0.058241    0.054993     -1.4927    -0.32828    -0.11553
-0.079477  -0.0057458    0.047523    0.041676     -1.8162    -0.23051    -0.16847
-0.086298   -0.018738    0.025761    0.021538     -1.6818    -0.17659    -0.21752
-0.080127   -0.038551  -0.0034721  -0.0021729     -1.2114    -0.19771    -0.25455
-0.062262    -0.06616    -0.03173   -0.023285    -0.63068    -0.26754    -0.26916
-0.036602   -0.097341   -0.050569   -0.032055    -0.15353    -0.34095    -0.25682
-0.018413     -0.1256   -0.054467    -0.03173     0.10729    -0.39519    -0.22369
-0.013866    -0.14606    -0.04927   -0.030106      0.1768    -0.43969    -0.17919
-0.020687    -0.15808   -0.044073    -0.03238     0.17582    -0.49945    -0.13599
-0.029132    -0.16165   -0.045047   -0.040825     0.20733    -0.58553    -0.10221
-0.034004    -0.15158   -0.048296   -0.054142     0.26872    -0.66738   -0.078178
-0.03303    -0.12398   -0.050244   -0.066485       0.258    -0.68394    -0.04992
-0.025884   -0.080127   -0.047646   -0.071682    0.070259    -0.58001 -0.00087364
-0.0067202   -0.032705   -0.039201    -0.06681     -0.2854    -0.35589    0.082927
0.02641   0.0072465    -0.02426   -0.053492    -0.67972   -0.094418     0.19044
0.055968    0.034206  -0.0093186   -0.037902    -0.94346      0.0865     0.28756
0.059541    0.049472      0.0014   -0.027833    -0.97302     0.11508     0.34505
0.025111     0.06084   0.0075714   -0.023285    -0.77489    0.011794     0.35674
-0.038227    0.075456   0.0085458    -0.02361    -0.45853    -0.13242     0.34017
-0.11001     0.10112   0.0072465    -0.03173    -0.19089    -0.22337     0.31679
-0.17205     0.12872   0.0046481   -0.046671    -0.10124    -0.21265     0.29892
-0.2094     0.14984   0.0043233   -0.061613    -0.19121    -0.11326     0.28756
-0.21135     0.15081    0.014068   -0.062262    -0.33802     0.01764     0.27749
-0.17302     0.12678    0.032906   -0.037577    -0.37538     0.10891     0.26514
-0.097666    0.079029    0.054668    0.014068    -0.18731     0.12385      0.2476
0.0020496    0.020564     0.07708    0.083901     0.22779    0.060515     0.22422
0.11606   -0.028482    0.097868     0.15601     0.77964   -0.046347     0.20051
0.22617   -0.046347     0.11736     0.21415      1.3513    -0.14736     0.18719
0.31549   -0.025559     0.13555      0.2476      1.8155    -0.20745     0.19076
0.36843    0.026735     0.14756     0.25767      2.0519    -0.22824     0.20278
0.37688    0.088773     0.15179     0.25053      1.9525    -0.23441     0.20765
0.34472     0.13555     0.14399     0.23981      1.4877    -0.24383     0.19726
0.28301     0.14984     0.12743     0.23006     0.76697    -0.24935     0.17647
0.2148     0.13587     0.10729     0.22097   -0.052518    -0.21752     0.15081
0.15276     0.10599    0.087799     0.20246    -0.85414    -0.11748     0.11671
0.10209    0.078055    0.069934     0.16478     -1.5197    0.065387    0.074806
0.064413     0.06019    0.047847     0.10761     -1.9585      0.3431    0.031282
0.038753    0.054019    0.020239    0.038103     -2.1368       0.715   -0.007045
0.022188    0.057592   -0.012242   -0.034978     -2.0842      1.1548   -0.033354
0.014068    0.065062   -0.046347    -0.10189     -1.9127      1.5878   -0.052193
0.010819    0.066686   -0.073955    -0.16295     -1.8406      1.9181   -0.072331
0.009845    0.055968   -0.090196    -0.22142     -2.1008      2.0727    -0.10124
0.01017    0.036154   -0.096692    -0.27241     -2.7117      2.0276    -0.13469
0.010495    0.015042    -0.10124    -0.31042     -3.4341       1.806      -0.174
0.0078962  -0.0034721    -0.10838     -0.3364     -3.9629      1.4845    -0.21525
-0.00022403   -0.019388    -0.12268    -0.35329      -4.136       1.148    -0.25227
-0.010618   -0.032705    -0.14249    -0.37148     -3.9301     0.86149    -0.27826
-0.019063   -0.047646     -0.1675    -0.40299      -3.373     0.66043    -0.28995
-0.023285   -0.065835    -0.19348    -0.44586     -2.5094     0.53279    -0.28768
-0.031081   -0.087922    -0.21817    -0.48906     -1.3852     0.42365    -0.27339
-0.055116    -0.11098    -0.23538    -0.51017   -0.032055     0.27164    -0.25227
-0.097341     -0.1295    -0.24221    -0.49588      1.4345    0.052395    -0.22921
-0.15061    -0.14476    -0.23311    -0.44586      2.8016    -0.19738     -0.2081
-0.19868    -0.15288     -0.2094    -0.37245      3.8617    -0.39941    -0.19089
-0.22791    -0.15093    -0.17335    -0.28508       4.447    -0.49068    -0.17302
-0.23279    -0.14119    -0.12982    -0.19641      4.4825    -0.48094    -0.14996
-0.21557    -0.13015   -0.085648    -0.11553      4.0254    -0.43287    -0.12527
-0.18601    -0.12365   -0.048296    -0.04862      3.2566    -0.41143    -0.10221
-0.15646    -0.12073   -0.022636   0.0010752      2.3982    -0.44164    -0.08305
-0.13404    -0.11423  -0.0080194     0.03453      1.6316    -0.51602   -0.072656
-0.12008    -0.10026  -0.0018481    0.055968       1.059    -0.61314   -0.079152
-0.11163   -0.076879   0.0017248     0.07708     0.77801    -0.70506    -0.10189
-0.095393   -0.046347   0.0059473     0.11216     0.89462    -0.75215    -0.12203
-0.061613  -0.0089938    0.016666     0.15861      1.4267    -0.73331    -0.12203
-0.013216    0.031282    0.030957      0.2044      2.2146    -0.65958   -0.094418
0.036479    0.065712    0.046223     0.22974       2.975    -0.56344   -0.051219
0.067986    0.080978    0.054344      0.2187      3.4431    -0.48321    -0.01549
0.069285    0.070259    0.046223     0.17225      3.4746    -0.44618   0.0023744
0.039727    0.040052    0.020239     0.10079       3.028    -0.45041    0.008221
-0.0099683   0.0052977   -0.011267    0.026735       2.151    -0.48776    0.016341
-0.057715   -0.023285   -0.039201   -0.029782      1.0093    -0.55175    0.038103
-0.089546   -0.044073   -0.054792   -0.063886    -0.14444    -0.64237    0.067986
-0.093444   -0.055116   -0.059989   -0.079802     -1.0383    -0.73461    0.092671
-0.074605   -0.060638   -0.059664   -0.087922     -1.5119    -0.78204    0.096569
-0.046022   -0.063237    -0.05804   -0.094418     -1.6145     -0.7619    0.075781
-0.016464   -0.063561   -0.057715    -0.09929     -1.5671    -0.70798    0.032582
0.012768   -0.065186   -0.056416    -0.09117     -1.5599    -0.68102   -0.021337
0.044599    -0.06551   -0.050244   -0.057715     -1.6444     -0.7187   -0.072006
0.083901   -0.055766   -0.034329  -0.0024977     -1.7815    -0.81874    -0.11196
0.12807   -0.027183   -0.010943    0.057267     -1.9565    -0.94801    -0.13372
0.1729    0.022188    0.017965    0.098193     -2.2388     -1.0649    -0.13859
0.20635    0.082277    0.046223     0.11151     -2.6919     -1.1367    -0.13145
0.22032     0.13977    0.066686     0.10891     -3.2096     -1.1293    -0.11196
0.21285     0.18004    0.074482     0.10501     -3.5319     -1.0191   -0.080127
0.18297     0.19109    0.071558     0.10566     -3.4081     -0.8051   -0.039851
0.1336     0.16933    0.062139     0.11086     -2.7523    -0.50433   0.0020496
0.073507      0.1245     0.05272     0.11281     -1.7029    -0.15548    0.035505
0.015042    0.073832    0.047198     0.10566    -0.58423     0.17485    0.049147
-0.031081    0.031282    0.047523    0.086824     0.23364     0.42397    0.040377
-0.06616   0.0062721    0.053369    0.061165     0.55292     0.56592    0.016666
-0.092469  -0.0041217    0.058241    0.039727     0.46263     0.61074  -0.0076946
-0.11553  -0.0083442    0.059541    0.030633     0.26417     0.59807   -0.020362
-0.13567   -0.017114    0.054344    0.029009     0.25313     0.56851    -0.01549
-0.14476    -0.03303    0.042001    0.020888     0.57469     0.54643   0.0033489
-0.12885   -0.059339    0.020888  -0.0031473      1.1915     0.51914    0.032257
-0.078827   -0.092145  -0.0067202   -0.031406      1.9389     0.45808    0.067986
0.0017248     -0.1217    -0.03303   -0.046347      2.6145     0.34797     0.10177
0.089098    -0.13794   -0.050569   -0.039851      3.0263     0.20505     0.12028
0.14886    -0.13242   -0.056741   -0.015815      3.0257    0.078379     0.10989
0.15601    -0.10579   -0.050569    0.016666      2.5927    0.039402    0.073832
0.11703   -0.061613   -0.030756    0.048497      1.8648      0.1336    0.029333
0.053694  -0.0057458  0.00075039    0.080328      1.0593     0.35674  -0.0028225
-0.0073698    0.050121    0.034206     0.10859     0.36941     0.65946   -0.013216
-0.048296    0.093321    0.061814     0.13425   -0.097341     0.97355      0.0014
-0.055441     0.11541    0.074157     0.15601     -0.3325      1.2448    0.038103
-0.031081     0.12125    0.079679     0.17257    -0.37375      1.4283    0.087799
0.014068     0.12937     0.08585     0.18784     -0.2513        1.49     0.13457
0.080003     0.15438     0.09462     0.20408   0.0085458       1.415     0.16283
0.16413     0.19563    0.096569     0.22097     0.34277      1.2087     0.16121
0.2567     0.23559    0.087474     0.23494     0.65621     0.91151     0.12905
0.3392     0.25085    0.064413     0.24143     0.85402     0.57598    0.080978
0.38727     0.22552    0.033231     0.24403     0.89689     0.25475    0.036479
0.39214     0.16705   0.0072465     0.24371     0.87318   -0.010618    0.010495
0.36324     0.10404  -0.0018481     0.24533     0.91638    -0.19998   0.0085458
0.31192    0.067986    0.013093     0.24728     0.98687    -0.33023    0.026735
0.24598    0.072533      0.0433     0.24371     0.80822    -0.45138    0.056617
0.16478     0.11248    0.074157     0.23071     0.21805    -0.58748    0.093645
0.071883     0.16803    0.096569     0.21447    -0.63587    -0.70668     0.13912
-0.019712     0.22162     0.11118     0.20473     -1.4433    -0.74143     0.19174
-0.088572     0.25345     0.12093     0.20473     -1.9575    -0.64497      0.2476
-0.11683     0.25475      0.1245       0.207      -2.104    -0.42994     0.29568
-0.09929     0.22714     0.11151     0.20018     -1.9647      -0.161     0.31809
-0.047321     0.18362    0.080003     0.17712     -1.6772    0.080328     0.30152
0.013418     0.13944    0.036154     0.13132     -1.3313     0.23429     0.24923
0.054668     0.10566  -0.0028225    0.069285    -0.95029     0.26872     0.16835
0.061814    0.087149   -0.022311   0.0059473     -0.5524     0.18362    0.081627
0.042001    0.080653   -0.018088   -0.038551    -0.16847    0.018615    0.011794
0.0049729    0.075131  -0.0024977    -0.04862     0.13977    -0.17042   -0.031081
-0.039526     0.06019    0.015692    -0.02361     0.31322    -0.32373   -0.048945
-0.081426    0.031932    0.032257    0.027385     0.35934    -0.40169   -0.041475
-0.11488 -0.00087364    0.046548    0.087474     0.31906    -0.39584   -0.015165
-0.13697   -0.027183    0.059216     0.14302     0.20116    -0.32925    0.016991
-0.14509   -0.039201    0.074157     0.18427   -0.019063    -0.23571    0.045249
-0.13892   -0.037577    0.089748     0.20603    -0.39649    -0.14379     0.06896
-0.1178   -0.027183    0.099492     0.20668    -0.90481   -0.070382      0.0852
-0.086948    -0.01484    0.098842     0.18297     -1.4307   -0.030756    0.087474
-0.059989   -0.008669    0.081952     0.13587     -1.8104   -0.038876    0.064413
-0.054142  -0.0093186     0.05207    0.078055     -1.8695   -0.096042     0.01764
-0.077853   -0.013866    0.016016     0.02706     -1.5541    -0.17367   -0.037577
-0.123   -0.020037   -0.018088  -0.0047713     -1.0013    -0.21395   -0.084349
-0.16782   -0.026209   -0.041799  -0.0099683    -0.44391     -0.1662    -0.10774
-0.18991    -0.03238   -0.050894   0.0069217   -0.059989    -0.01614    -0.09929
-0.17692   -0.037252   -0.048945    0.033231     0.11736      0.2187   -0.054467
-0.12527   -0.038227   -0.036602    0.056617     0.14659     0.49316    0.014068
-0.043748   -0.034329   -0.019388    0.066037     0.10956     0.74164    0.083901
0.049472   -0.025234  -0.0057458    0.059216    0.094295     0.91086      0.1284
0.13425   -0.019063  0.00075039    0.039727     0.17387     0.98167     0.13912
0.20051   -0.014191   0.0020496    0.009845     0.33043     0.96868     0.11671
0.24468  -0.0099683  -0.0047713   -0.028157     0.47107     0.90047    0.073832
0.26644  -0.0067202   -0.018088   -0.074605      0.5513      0.8066    0.026085
0.2606  -0.0083442   -0.035303    -0.12333      0.5958     0.70591  -0.0099683
0.22   -0.016789    -0.04992     -0.1727     0.60262     0.59677   -0.029457
0.14594    -0.03303   -0.061937    -0.22174     0.53214      0.4623   -0.040175
0.050446   -0.054142   -0.072006    -0.26234     0.38695      0.2986   -0.055116
-0.045372   -0.073955   -0.082725    -0.28443      0.2463      0.1349   -0.078827
-0.11391   -0.086623   -0.088572    -0.28151     0.16673     0.01764    -0.10449
-0.13924   -0.089546   -0.086948    -0.25422     0.11054   -0.030431    -0.11878
-0.1282   -0.084674   -0.073955    -0.21102    0.020888   -0.035628    -0.11488
-0.09929   -0.077528   -0.050894    -0.15646   -0.099615   -0.043748   -0.095393
-0.072006   -0.071032    -0.02361   -0.096042    -0.19089    -0.08305   -0.066485
-0.055441   -0.067134   0.0036737   -0.038227    -0.19348    -0.14314   -0.034654
-0.051219    -0.06616    0.025436   0.0091954    -0.10579    -0.18796  -0.0057458
-0.052843   -0.064536    0.042001    0.041676    0.019914    -0.18147    0.014068
-0.057715   -0.060963    0.055318    0.059541     0.13002    -0.12138    0.020888
-0.059664   -0.055766    0.067986    0.067336      0.1638   -0.039526    0.018615
-0.053492   -0.050894    0.079679    0.075456    0.042975    0.015042    0.011794
-0.039201   -0.047321    0.089098    0.094945    -0.25422   -0.015815   0.0036737
-0.015165   -0.042124    0.097868       0.131    -0.68005    -0.18082  -0.0067202
0.019264   -0.029132     0.11183     0.17777     -1.0887    -0.47055   -0.021337
0.057917  -0.0044465     0.13002     0.22617     -1.2887    -0.81939   -0.044073
0.087799    0.030633     0.14139     0.26417     -1.1783     -1.1455   -0.077853
0.098517    0.062464     0.13879     0.27976    -0.80022      -1.393    -0.11748
0.090722    0.081627     0.12483     0.27034    -0.31009      -1.531    -0.15093
0.076106    0.085525     0.11086     0.24598     0.12645      -1.544    -0.15711
0.070584    0.072858     0.10177      0.2174      0.4701     -1.4291     -0.1178
0.078055    0.047198    0.095269     0.18881     0.81115     -1.2036   -0.034654
0.084226    0.009845    0.082277     0.14951       1.211    -0.91716    0.063113
0.069934   -0.034654     0.05142    0.081627       1.593    -0.65341     0.14172
0.028034   -0.082725    0.003024   -0.028482      1.8382    -0.47802     0.17485
-0.03173    -0.12722   -0.060963    -0.17465       1.895    -0.39454     0.15503
-0.093769    -0.15873    -0.12885     -0.3312      1.7872    -0.34907     0.10177
-0.14022     -0.1701    -0.18569    -0.45625      1.4942    -0.25455    0.044599
-0.16425      -0.161    -0.22109    -0.52186     0.93912   -0.055441    0.008221
-0.16782    -0.13404    -0.23084    -0.52381    0.095269     0.23689  -0.0050961
-0.16133    -0.10156    -0.22109    -0.48224    -0.88467     0.55195  -0.0080194
-0.15256   -0.072981    -0.20031    -0.41858     -1.6905     0.79815   -0.012892
-0.14639   -0.054467    -0.17465     -0.3429     -2.0332     0.91898   -0.022961
-0.14509   -0.043099    -0.14216    -0.25715      -1.837     0.90112    -0.03303
-0.14931   -0.037252    -0.10676    -0.16912     -1.2741     0.76145   -0.045372
-0.15126   -0.034978   -0.071032   -0.091495    -0.58065     0.54026   -0.058689
-0.14509   -0.036602    -0.04115   -0.039526    0.087474     0.30185   -0.072006
-0.13047   -0.038227   -0.022636    -0.01614     0.63737     0.11768   -0.083375
-0.11586   -0.032705   -0.021986   -0.018738     0.96218     0.05142   -0.087922
-0.11033   -0.013866   -0.036927   -0.045372     0.94691     0.12807   -0.082076
-0.1217    0.016016   -0.058365    -0.10026      0.5578     0.32134   -0.068758
-0.14899    0.048497   -0.081751    -0.18277   -0.072006     0.56104   -0.055441
-0.18471    0.072858    -0.10611    -0.27891    -0.65828      0.7556   -0.053168
-0.21849    0.080653     -0.1282    -0.36888    -0.94996     0.81699   -0.071357
-0.23863    0.067661    -0.14606    -0.42897    -0.85349     0.68934    -0.11715
-0.24026    0.038103     -0.1597    -0.43839    -0.46502     0.37785    -0.17984
-0.21785 -0.00087364    -0.16945    -0.39974   -0.030431    -0.03238    -0.23961
-0.17042   -0.042449      -0.174    -0.33607     0.24436     -0.4267    -0.27826
-0.10449   -0.080127    -0.16782    -0.27631     0.36064     -0.7161     -0.2919
-0.036927    -0.10286    -0.14931    -0.23311     0.46198    -0.87493     -0.2867
0.013418    -0.10806    -0.12398    -0.20843     0.69974     -0.9243    -0.27534
0.040052   -0.097017    -0.10189    -0.19641      1.1132    -0.89799    -0.26202
0.047847   -0.072981   -0.084349    -0.17984      1.5978    -0.81841    -0.23798
0.045574   -0.044073    -0.06681    -0.15288      1.9697    -0.69174    -0.19219
0.037778   -0.018413   -0.044723    -0.11683      2.0639    -0.52381     -0.1256
0.032257 -0.00087364   -0.020687   -0.077203      1.8112    -0.31854   -0.046347
0.039078    0.012768  0.00010078   -0.038551      1.2422   -0.093769    0.032582
0.06084     0.02706     0.01894  -0.0018481     0.46652     0.10989    0.097543
0.092021    0.044924    0.039078    0.037778    -0.32666     0.25053     0.13587
0.12515    0.064413    0.058566    0.081303    -0.90806     0.30445     0.14659
0.14951    0.080003    0.078704     0.12483     -1.1172     0.28171      0.1349
0.16315    0.088448     0.10047     0.16218    -0.93632     0.22162     0.11118
0.16803    0.089423     0.12028     0.18946    -0.48679     0.17452    0.085525
0.16803    0.083576     0.13067      0.2044     0.03518      0.1729    0.067336
0.16445    0.079679     0.13165     0.21188     0.45256     0.21675    0.064737
0.15991    0.080978     0.12418      0.2174     0.71175     0.28041     0.07773
0.15373    0.087149     0.11313     0.22552     0.89105     0.33433     0.10242
0.14756    0.091696     0.10306     0.23883      1.0879     0.35804     0.13295
0.13944    0.091047    0.098517     0.25702      1.3126      0.3444     0.15763
0.12028    0.077405    0.097218     0.27424      1.4861      0.2921     0.16056
0.084551    0.041676    0.095919     0.28496      1.5176      0.2161     0.13814
0.030633   -0.011917    0.086824     0.28885      1.3727     0.13425    0.094295
-0.033354   -0.068109    0.071883      0.2908      1.0863     0.06084     0.04395
-0.09117    -0.10644    0.056942     0.29373     0.74261   0.0036737   0.0052977
-0.12885    -0.11196    0.050771     0.29665      0.4295    -0.02426  -0.0083442
-0.13924   -0.083375    0.054344     0.29178     0.15406    -0.01484    0.003024
-0.13015   -0.034654    0.064737     0.26807    -0.16425    0.029658    0.025761
-0.11131    0.013418    0.076106     0.22389    -0.60502    0.091696    0.042975
-0.084674    0.045574    0.080978      0.1677     -1.2244     0.14984    0.055643
-0.044723    0.052395    0.076106     0.11703     -2.0839     0.17257    0.072533
0.011794    0.039727    0.066362     0.08585     -3.1554     0.14432    0.097218
0.091047    0.024137    0.056942    0.083576     -4.1964    0.075456     0.12353
0.18719    0.026085    0.055968     0.11281     -4.9035  -0.0093186     0.14107
0.28723    0.058566     0.06896     0.16608     -4.9695   -0.081751     0.14789
0.36421     0.11281    0.096244     0.22877     -4.6307    -0.13697     0.14659
0.39799      0.1677      0.1323     0.28073     -3.7602     -0.1714     0.13912
0.38078     0.20376      0.1651     0.30964     -2.7241    -0.19024      0.1245
0.31841     0.20635     0.18037     0.30639     -1.7308    -0.20388    0.094945
0.22812     0.17192     0.16543     0.27846    -0.77684    -0.21557    0.047523
0.13327     0.11054     0.12125     0.23071     0.24825    -0.20518    -0.01484
0.05142    0.039402    0.057592      0.1638      1.3247    -0.13275   -0.075579
-0.0093186   -0.023935  -0.0099683    0.081627      2.2497    0.020888    -0.12138
-0.04927   -0.068109   -0.068434  -0.0099683      2.7762     0.22162    -0.14119
-0.071682   -0.088896    -0.10774   -0.093769       2.787     0.41033    -0.12495
-0.075255   -0.081101    -0.11618    -0.15093      2.3728     0.54773    -0.06616
-0.059014   -0.053168   -0.093119    -0.16555      1.7674       0.626    0.028684
-0.027833   -0.017114   -0.052843    -0.13827      1.2071     0.64712     0.14204
0.0062721    0.013418    -0.01614   -0.086623     0.82771     0.60944     0.23916
0.029983     0.03453   0.0023744   -0.036927     0.64582     0.49251     0.29015
0.032257    0.049147   0.0036737  -0.0080194      0.5958     0.29405     0.28398
0.013093    0.061814  -0.0093186  -0.0054209     0.59645    0.044599     0.23136
-0.0096434    0.074482   -0.034978   -0.021661     0.58346    -0.19933     0.15796
-0.01614     0.08585   -0.063237   -0.041799     0.53084     -0.3822     0.09462
0.0036737    0.094945   -0.082076   -0.052843     0.46425    -0.47607    0.055318
0.047523     0.10177   -0.081751   -0.048945      0.4308    -0.48938    0.040377
0.098193     0.10956   -0.060313   -0.026209     0.48504    -0.45593    0.041027
0.14172     0.11801   -0.029457   0.0095202      0.6705    -0.40006    0.049472
0.16738     0.12678  0.00042559    0.049472     0.95893    -0.31204    0.057917
0.17322     0.13555    0.025436    0.088124      1.2522    -0.15808    0.062139
0.16023     0.14367    0.043625     0.12158      1.4396    0.076431    0.061165
0.1297     0.14984    0.056292     0.14237      1.4497     0.35576    0.058566
0.084226     0.14886    0.062789     0.14399      1.2662     0.60554    0.056292
0.033231     0.13977    0.063113     0.13002     0.93165     0.75528    0.050121
-0.011267     0.12418    0.058241     0.11183     0.53311     0.77996    0.038753
-0.038551     0.10501    0.050771     0.09397     0.14691     0.70298    0.032906
-0.047971     0.08585    0.043625     0.07708    -0.22337     0.57436    0.041027
-0.042124    0.071234     0.03518    0.059216    -0.61281     0.44249    0.062139
-0.026858    0.061814     0.02641    0.042975    -0.99706      0.3327    0.086824
-0.0096434    0.059216    0.016341    0.032906     -1.2832     0.25702     0.10729
0.0046481    0.058566    0.011144    0.032257     -1.3904      0.2148      0.1206
0.015692    0.058566    0.011794    0.042975     -1.3111     0.19856      0.1271
0.023487    0.059541     0.01894    0.059541     -1.0997     0.19466     0.13035
0.02706    0.061489    0.033231    0.076106    -0.82718     0.18492     0.12515
0.01894    0.062139    0.045899    0.084226     -0.5524     0.14172     0.10956
-0.0011985    0.057267    0.054019    0.085525    -0.31334    0.048172    0.082927
-0.028482    0.045574    0.053694    0.081627    -0.12982     -0.0824    0.048822
-0.049595    0.029333    0.046548    0.075131   0.0069217    -0.21265    0.013743
-0.060638    0.014068     0.03453     0.06896     0.13197    -0.30814    -0.01614
-0.060313   0.0046481    0.020564    0.065062     0.27196    -0.35556   -0.041475
-0.04862   0.0020496   0.0091954    0.059865     0.42755    -0.36693   -0.062912
-0.028157   0.0059473      0.0014    0.050446     0.57696    -0.36433   -0.079152
-0.0031473    0.014068  -0.0018481    0.036804     0.67992    -0.37343    -0.09182
0.021538    0.017965  -0.0021729    0.017965     0.68317     -0.4137    -0.10026
0.038753    0.015042  -0.0031473  -0.0011985     0.52174    -0.48191    -0.11131
0.043625   0.0049729  -0.0044465   -0.017764     0.19076    -0.55857     -0.1256
0.036479  -0.0076946  -0.0047713   -0.025559    -0.25715    -0.61184    -0.13632
0.018615   -0.020362  -0.0018481    -0.02426    -0.73884    -0.62548    -0.14022
-0.0050961   -0.029782   0.0043233   -0.016464     -1.1552    -0.59202     -0.1321
-0.025234   -0.035303   0.0065969  -0.0076946      -1.405    -0.50303    -0.11098
-0.039526   -0.041799  0.00075039  -0.0018481     -1.4388    -0.36011   -0.079477
-0.047646   -0.047971   -0.008669   0.0017248     -1.2894    -0.18634   -0.041475
-0.052193   -0.053168   -0.015165   0.0075714     -1.0409   -0.010293  -0.0047713
-0.051544   -0.056416    -0.01484    0.015367    -0.77976     0.14432    0.030308
-0.043423   -0.056416   -0.007045    0.018615    -0.56409     0.26384    0.067661
-0.023285   -0.053817   0.0062721     0.01829    -0.41695     0.33498     0.10599
0.0049729   -0.045697    0.022188     0.01764    -0.33055     0.34732     0.13879
0.030633   -0.034654     0.03518    0.016016    -0.28053     0.29892     0.15666
0.042975   -0.022311    0.039727    0.012119    -0.23766      0.2096     0.15698
0.042326   -0.011267    0.032906   0.0056225     -0.1727     0.11898     0.14529
0.030957 -0.00087364    0.016666  -0.0067202   -0.063886    0.061165     0.12807
0.017316    0.010495  -0.0024977   -0.027183    0.075456    0.047198     0.10859
0.010819    0.020239    -0.01549   -0.056091     0.19758    0.064737    0.085525
0.015042    0.024137   -0.018738   -0.082725     0.25865    0.094295    0.063763
0.023487    0.019264    -0.01484   -0.096367      0.2528     0.11411    0.045899
0.028034   0.0069217  -0.0067202   -0.094743     0.22194     0.11183    0.032582
0.025761  -0.0083442 -0.00022403   -0.080127     0.21707    0.091696    0.015042
0.011794   -0.022311 -0.00054884   -0.056091     0.27229    0.068635  -0.0089938
-0.012892   -0.038227  -0.0044465   -0.028482     0.40546    0.057267     -0.0405
-0.046022    -0.05739  -0.0050961  0.00010078     0.60717    0.060515    -0.07428
-0.08305   -0.077528   0.0020496    0.028684     0.85662    0.081303    -0.10546
-0.12235   -0.092145    0.019589    0.059865      1.1424     0.12353    -0.12592
-0.15548   -0.093769     0.04395    0.092996      1.4351     0.18394    -0.13664
-0.174     -0.0824    0.072533     0.12483      1.6547     0.25507    -0.13957
-0.174    -0.06551     0.10242     0.14854      1.6488     0.31549    -0.13892
-0.15808   -0.051868     0.12613     0.16673       1.263     0.33628    -0.13794
-0.12722   -0.045697     0.13749     0.18167     0.46815     0.28918     -0.1321
-0.079477   -0.046022     0.13749     0.20051    -0.58845      0.1651    -0.11228
-0.013216    -0.04862     0.12937     0.22065     -1.6684   -0.024585    -0.07493
0.062464   -0.054142     0.11118     0.23656     -2.5798    -0.25292   -0.027833
0.13457   -0.061613    0.081627     0.24371     -3.2746    -0.48386    0.014068
0.19011   -0.069083    0.044924     0.23948     -3.7975    -0.69271     0.03583
0.22259    -0.06681   0.0075714     0.22422     -4.1461    -0.88305    0.031607
0.23169   -0.046996    -0.02426     0.20246     -4.2114     -1.0623    0.011144
0.22519  -0.0054209   -0.047646      0.1755     -3.8956     -1.1988  -0.0015233
0.20798    0.055968   -0.058365     0.14074     -3.2109     -1.2286    0.021538
0.18004     0.12515   -0.059339    0.090072     -2.2433     -1.1039    0.092021
0.13912     0.18427   -0.054467    0.017965     -1.0594    -0.82426     0.18914
0.076431      0.2161   -0.059014   -0.085973     0.31874    -0.44261     0.26287
-0.0089938     0.20376   -0.087272    -0.23246      1.8158   -0.055116     0.26677
-0.10676     0.14399    -0.14444    -0.41143      3.2872     0.22714     0.17972
-0.19836    0.053369    -0.21947    -0.59202      4.5516     0.35447    0.020888
-0.26884   -0.040175    -0.29515    -0.74436      4.9589     0.35804    -0.16295
-0.31594    -0.11423    -0.35361    -0.84635      4.9589     0.30932    -0.32048
-0.34322    -0.15905    -0.38187     -0.8837      4.9586     0.27196     -0.4215
-0.35589    -0.18114     -0.3783    -0.85707      4.6559     0.28041    -0.45788
-0.35914    -0.19121    -0.34907    -0.78626      3.5691     0.32296    -0.44196
-0.35751    -0.20096    -0.30782    -0.70083      2.2939     0.36031    -0.39876
-0.34907    -0.21265    -0.26981    -0.62061     0.90339     0.35479    -0.35167
-0.32731    -0.22109    -0.24221    -0.55435    -0.42182     0.29015    -0.31431
-0.2919    -0.22077    -0.22791    -0.50952     -1.3504     0.17907    -0.29255
-0.24903    -0.20648    -0.22207    -0.48971     -1.6386    0.056617    -0.28508
-0.2068    -0.17659     -0.2172    -0.48321     -1.2465   -0.042774    -0.28508
-0.16718    -0.13307     -0.2055    -0.46892    -0.37992    -0.10644    -0.28573
-0.1321   -0.084674    -0.18634    -0.43189     0.61788    -0.14152    -0.28086
-0.099615   -0.042774     -0.1597    -0.36921       1.428    -0.16035    -0.26722
-0.069733   -0.018088     -0.1269    -0.28248      1.9012    -0.17237    -0.24221
-0.048945   -0.012892   -0.090196    -0.18439      2.0214    -0.18147    -0.20615
-0.038551   -0.019712   -0.052843   -0.092469      1.8606    -0.19641    -0.16165
-0.030431   -0.030106   -0.017764   -0.019388       1.515    -0.22467    -0.11228
-0.015165   -0.032055    0.010495    0.030308      1.0648    -0.26527   -0.059014
0.0088706   -0.024585    0.029009    0.062789     0.57793    -0.30035  -0.0054209
0.037778  -0.0083442    0.042975    0.089423     0.13165    -0.29645    0.045899
0.06961    0.009845    0.056292     0.11898    -0.23084    -0.23051    0.092346
0.098193    0.024137    0.069934     0.14919    -0.51732    -0.11488     0.12775
0.11931    0.037454    0.079679      0.1781     -0.7541    0.010495     0.14951
0.131     0.05142    0.087799     0.20603    -0.95353     0.10144     0.15179
0.1362    0.066686    0.097543     0.23266     -1.1192     0.12645     0.13912
0.13912    0.078055     0.11118      0.2567     -1.2511    0.079029     0.11671
0.14139    0.083576     0.12645     0.27619      -1.356   -0.024585    0.092996
0.14269    0.083251     0.14204     0.29145     -1.4355    -0.13989    0.075131
0.13944    0.082277     0.15796     0.30347     -1.4768    -0.20388    0.070584
0.13457    0.083576     0.17355     0.31581     -1.4723      -0.174    0.082602
0.13197    0.084551     0.18654     0.33075     -1.4187   -0.056416     0.10696
0.13067    0.083901     0.19401     0.34862     -1.3225    0.098517     0.12937
0.13132    0.081303     0.19531     0.35771     -1.1994     0.22812     0.13847
0.13002    0.079029     0.18751     0.35317     -1.0662     0.27651      0.1323
0.12418     0.07773     0.17485     0.33952    -0.93664     0.21285     0.11411
0.11476    0.076106     0.16088     0.32686    -0.81906    0.053369    0.092021
0.10436    0.073832     0.14984     0.32198    -0.71513    -0.14281    0.075131
0.097543    0.071234     0.14496     0.32523    -0.62418    -0.30879     0.06896
0.096244    0.070909     0.14399     0.32718     -0.5446    -0.41013     0.06896
0.098842    0.071234     0.14594     0.32004    -0.47996    -0.44001    0.072208
0.10599    0.072858     0.14659     0.30445     -0.4176    -0.40461    0.076755
0.11703    0.075781     0.14496     0.29178    -0.33023    -0.32211    0.078704
0.12613    0.078704     0.14302     0.29015    -0.20128    -0.21752    0.080653
0.1284    0.081952     0.14367     0.29925   -0.042774    -0.12333    0.083251
0.11995    0.081952     0.14724     0.31159     0.11768   -0.070707    0.090397
0.10501    0.079029     0.15211     0.31549     0.25378   -0.075255    0.099167
0.093321    0.073182     0.15796     0.30769     0.35219    -0.11683     0.10242
0.089098    0.062464     0.15926     0.28983     0.41001    -0.15061     0.09397
0.092346    0.048172     0.14854     0.27132     0.43015    -0.11066    0.078055
0.10209    0.030957     0.12288     0.25572     0.41261    0.048172    0.066686
0.12288    0.012443    0.087149     0.24403     0.33595     0.30964    0.072533
0.14626  -0.0067202    0.054344     0.23331     0.14659     0.60099    0.089423
0.15568    -0.02361    0.035505     0.22454    -0.17952     0.82381     0.10599
0.14724   -0.034654    0.032906     0.22032    -0.59007     0.90599     0.11411
0.12353   -0.038227    0.037454     0.22227    -0.98082     0.83745     0.11021
0.092021   -0.037252    0.041676     0.22649     -1.2303     0.66206     0.10534
0.057917   -0.034978    0.046223     0.23071     -1.2673     0.44866     0.11086
