0.27814    0.050446    0.049147     0.20246    -0.72227    -0.12592    0.058891
0.26125    0.026085    0.044924     0.21772    -0.51959   -0.072656    0.066686
0.2109 -0.00054884    0.042975     0.23624    -0.45983   -0.022961    0.072858
0.13425   -0.026209    0.048497     0.26612    -0.53843   0.0017248    0.074157
0.037129   -0.043748    0.065387     0.31192     -0.6794  -0.0050961    0.075131
-0.064211   -0.045372    0.092996     0.37038    -0.75248   -0.043099    0.088448
-0.15646   -0.032705     0.12515     0.42592    -0.62743    -0.11391     0.12158
-0.22174   -0.011917     0.14724     0.46035    -0.31886    -0.21395     0.17225
-0.24838   0.0036737     0.15309     0.45905    0.013093    -0.32828     0.22422
-0.23116   0.0052977     0.14496     0.42332     0.19953    -0.43839     0.25962
-0.18017 -0.00022403       0.131     0.36778     0.11086    -0.51602     0.27424
-0.11683   0.0056225     0.11931     0.31029    -0.29223    -0.53161     0.27359
-0.059014    0.035505     0.11606      0.2606    -0.90384     -0.4673     0.27586
-0.013866    0.090397      0.1206      0.2174     -1.5021    -0.32568     0.28853
0.01764     0.15828     0.12548      0.1742     -1.8406    -0.10968     0.30639
0.027385        0.22     0.11443     0.11541     -1.7584     0.17777     0.31127
0.0062721     0.25962    0.078379    0.024137     -1.2543     0.50972     0.28496
-0.050569     0.26514    0.016666    -0.11163    -0.45106     0.82251      0.2187
-0.13632     0.22974   -0.064211     -0.2854     0.45743      1.0603     0.11736
-0.22467     0.15244    -0.15386    -0.47055      1.2867      1.1863  -0.0093186
-0.29255    0.045899    -0.23668    -0.62938      1.9668      1.1947    -0.14249
-0.31918   -0.068434     -0.2945    -0.73137        2.53      1.1197       -0.25
-0.30424    -0.17075    -0.32113    -0.75897      2.9991       1.032    -0.31334
-0.25715    -0.24026    -0.32113    -0.72065      3.3177     0.99466    -0.32893
-0.19803    -0.26754    -0.30067    -0.64951      3.4038      1.0226    -0.30554
-0.15191     -0.2513    -0.26787    -0.57806      3.2514      1.0892    -0.25975
-0.13242    -0.20875    -0.23376    -0.52771      2.9477      1.1431    -0.20843
-0.13502    -0.15841    -0.20193    -0.49198       2.609      1.1411    -0.16295
-0.14281    -0.11456     -0.1714    -0.45398      2.3468      1.0593    -0.12495
-0.14249    -0.08305    -0.13794    -0.40006       2.202     0.88715   -0.094093
-0.13145   -0.067784    -0.10546    -0.32406      2.1185     0.62925   -0.077203
-0.11456   -0.069408   -0.076554    -0.23084      1.9808     0.31224   -0.076229
-0.095393   -0.088247   -0.055441    -0.13534      1.6638    -0.02426   -0.084999
-0.075255    -0.11553   -0.044398   -0.056416      1.0385    -0.34842   -0.090521
-0.050894    -0.14281   -0.040175  -0.0047713      0.0433    -0.63912   -0.089221
-0.022636    -0.16165   -0.037577    0.021213     -1.2267     -0.8863   -0.079802
0.010495    -0.16328   -0.030106     0.03453     -2.5707     -1.0861    -0.05739
0.054668    -0.13859   -0.015815    0.051096     -3.8001     -1.2306   -0.020362
0.11378   -0.080127 -0.00087364    0.073832     -4.7479     -1.3069    0.025111
0.18622    0.008221    0.016016     0.10047     -4.9698     -1.3063     0.06961
0.26612     0.11281    0.040052     0.12255     -4.9698     -1.2254     0.10989
0.34505     0.20928    0.070259     0.13457     -4.3741     -1.0688     0.14789
0.40546     0.27651    0.096569      0.1271     -3.1522    -0.86356     0.17972
0.4282     0.30217     0.11183    0.089423     -1.7824    -0.65504     0.19758
0.40643     0.28983     0.11086    0.025436    -0.61801    -0.48549     0.19011
0.35024     0.25118    0.095919   -0.045697     0.17972    -0.37083     0.15698
0.27554     0.19758    0.071883    -0.10384     0.65329    -0.31334     0.10177
0.19596     0.13814    0.044275    -0.14022     0.89982    -0.30457     0.03453
0.12028    0.084226    0.017965    -0.15808     0.98492    -0.31269   -0.032055
0.042975    0.040377  -0.0054209    -0.15905     0.93262    -0.28573   -0.086298
-0.048945   0.0062721   -0.025884    -0.14801     0.76535    -0.18829    -0.12073
-0.15613   -0.022961   -0.039201    -0.12852     0.51557   -0.030756    -0.13859
-0.26299   -0.052193    -0.04115   -0.097341     0.19856     0.13944    -0.14281
-0.33997   -0.080776    -0.03303   -0.053492    -0.15841     0.27456    -0.13664
-0.36206    -0.10384   -0.014191   0.0065969    -0.47964     0.34147     -0.1178
-0.32633    -0.11521    0.014717    0.076106    -0.68394      0.3327   -0.087597
-0.24091    -0.10838    0.048172     0.14172    -0.73072     0.26384   -0.048945
-0.12755   -0.082076    0.076755     0.19531    -0.63815     0.15698  -0.0057458
-0.018738   -0.044723    0.090072     0.23169     -0.4634    0.037778    0.036479
0.058241  -0.0031473    0.089098      0.2502    -0.27599   -0.071357     0.06896
0.091696    0.036154    0.083576     0.25865    -0.12527     -0.1623    0.089423
0.089098    0.062789    0.081952     0.26255   -0.026209    -0.24968    0.099817
0.068635    0.068635    0.085525     0.26839    0.039727    -0.34484    0.098842
0.05272     0.05207    0.090722     0.27976     0.10014    -0.44911    0.085525
0.053694    0.017316    0.087474      0.2895     0.16998    -0.56376    0.061165
0.065387   -0.030106    0.074482     0.29113     0.25053    -0.68654    0.027709
0.071234   -0.081426    0.054993     0.28268     0.32523    -0.80477   -0.011917
0.065712    -0.12527    0.034855     0.26774     0.37395    -0.88662   -0.050244
0.051096    -0.15191    0.021863     0.25735     0.39019    -0.89474   -0.075904
0.03583    -0.15223    0.021863     0.25735     0.38435    -0.80412   -0.079152
0.031282    -0.11878    0.032257     0.26709     0.37558    -0.61573   -0.053817
0.035505   -0.052193    0.050771     0.28301     0.36583    -0.36141   -0.011267
0.038753    0.033556     0.06831     0.29665     0.32393   -0.096692    0.033556
0.031282     0.11736    0.080003      0.2986     0.19953     0.12775    0.065387
0.011144     0.18069    0.086824     0.28658   -0.025559     0.28528    0.076431
-0.012242      0.2122    0.093321     0.26417    -0.31204     0.37623    0.067336
-0.026858     0.21382     0.10047     0.24208    -0.59365     0.42073    0.054668
-0.02426     0.19401     0.10501     0.22617    -0.80607     0.44444    0.051096
-0.0067202     0.16088     0.10729      0.2161    -0.90644     0.46295    0.062789
0.021213      0.1258     0.10664     0.20635    -0.87461     0.48699    0.087474
0.054019    0.095594     0.10047     0.19044    -0.71415     0.51849     0.11313
0.082277    0.073832     0.08585     0.16478    -0.46665     0.55812     0.12678
0.098517    0.061489    0.063113     0.12775    -0.19771     0.60197     0.12255
0.097868     0.05142    0.035505    0.082277    0.047198     0.64614    0.098193
0.083901    0.039402    0.009845    0.038103     0.26677     0.68317    0.064737
0.061814    0.024461  -0.0083442   0.0049729     0.47237     0.70006    0.031282
0.037454    0.008221   -0.021012   -0.011917     0.66043     0.68057   0.0010752
0.014392   -0.010618   -0.029782   -0.021337     0.83161     0.61269   -0.026533
-0.0034721   -0.033679   -0.034654   -0.036602     0.99823     0.50128    -0.04862
-0.012242   -0.053492   -0.035628   -0.060963       1.146     0.36811   -0.060963
-0.0067202   -0.062587   -0.033354   -0.088247      1.2211     0.23851   -0.059339
0.01764   -0.054142   -0.028157    -0.10579      1.1779     0.12743    -0.04927
0.063763   -0.026858   -0.025884    -0.10709        1.02    0.037778   -0.037902
0.11671    0.013418   -0.028157   -0.088247     0.80985   -0.037252   -0.029782
0.15666     0.05272   -0.034978   -0.053492     0.61431    -0.10968   -0.024585
0.16803    0.078704    -0.04115   -0.012242     0.45581    -0.18114   -0.018413
0.14756    0.084226   -0.039526    0.023162     0.33335    -0.24253   -0.013541
0.10079    0.076106   -0.030756    0.040702     0.24143    -0.28411   -0.015815
0.042326    0.058891   -0.022636    0.030633      0.1768    -0.29515   -0.030106
-0.01549    0.037454   -0.018738  -0.0073698     0.14691    -0.26429   -0.051868
-0.060313    0.012768   -0.018738   -0.064211     0.15179    -0.18959   -0.072331
-0.085324   -0.008669   -0.019712    -0.11748      0.1677   -0.081751   -0.086298
-0.089871   -0.022636   -0.023285    -0.14834      0.1703    0.039727   -0.090196
-0.078503   -0.026858   -0.026209    -0.14866     0.15016     0.15406   -0.081101
-0.059014   -0.024585   -0.022636    -0.12463     0.12288     0.24436   -0.060638
-0.041799   -0.017764   -0.012242   -0.089871     0.10956     0.30769   -0.033679
-0.034004  -0.0083442  -0.0057458    -0.05739     0.12158     0.35187  -0.0080194
-0.030756   0.0017248  -0.0073698   -0.033354     0.15081     0.39247   0.0088706
-0.024585    0.011144   -0.018413   -0.017764     0.18297     0.43502    0.017965
-0.011592     0.01894   -0.028482   -0.011592     0.20473     0.47172    0.023487
0.011144    0.022188   -0.031081  -0.0063954     0.20928     0.49348    0.029983
0.037454    0.025111   -0.025234    0.003024     0.19336     0.49446    0.040052
0.061814    0.030308   -0.016789     0.01829     0.14367     0.47042    0.056617
0.078055    0.034206  -0.0089938     0.03518    0.044924     0.42462    0.074806
0.083901    0.031932  -0.0028225    0.049472    -0.10611     0.35641    0.089748
0.081952    0.021213   0.0033489    0.056942    -0.30165     0.26709    0.095594
0.079029   0.0078962    0.008221    0.054993    -0.52544     0.15731    0.092346
0.080328  -0.0011985    0.010819    0.048497    -0.75897    0.026735    0.082602
0.084551  -0.0018481    0.012768     0.04395    -0.98049    -0.12787    0.073832
0.08585   0.0088706    0.014068    0.046223     -1.1546    -0.30327    0.069934
0.080328    0.028034    0.017965    0.055643     -1.2118    -0.47802    0.066362
0.067661    0.049796     0.02706    0.070584     -1.0802    -0.62256    0.062464
0.057267    0.068635    0.040052    0.089098    -0.74371    -0.71902    0.057267
0.054344    0.078704    0.056292     0.11898    -0.28508    -0.77164     0.05142
0.06019    0.082277    0.075456     0.16543     0.15244    -0.79016    0.044924
0.075781      0.0852     0.10112     0.22422     0.42462    -0.76904      0.0433
0.092671    0.091047       0.131     0.28366     0.47952    -0.70181    0.051096
0.10339    0.099167     0.15568     0.32783     0.38987    -0.59235    0.064413
0.099167     0.10242     0.16803      0.3392     0.28138    -0.45106    0.072858
0.075456     0.10014     0.16218     0.30932     0.15796    -0.27793    0.075781
0.033881    0.092996      0.1349     0.23656    -0.14346   -0.073306     0.07773
-0.017439    0.080653    0.092346     0.13165    -0.75085     0.15114    0.081952
-0.06681    0.057917    0.038753    0.014068     -1.5733     0.36908    0.084551
-0.10741    0.024786   -0.017764    -0.10579      -2.334     0.55195    0.078704
-0.14184   -0.021337   -0.076229    -0.23116     -2.7471     0.67245    0.049472
-0.17205   -0.081751    -0.13729    -0.36758     -2.5724     0.70688  -0.0063954
-0.20323    -0.14834    -0.19803    -0.51342     -1.6525     0.63867   -0.086948
-0.23409    -0.21395    -0.25227    -0.65439   -0.037252     0.47594    -0.18374
-0.25585    -0.27046    -0.29255    -0.76482      1.8002     0.27456    -0.27826
-0.26039    -0.31139    -0.31918    -0.82426      3.2261     0.11118    -0.35296
-0.25162    -0.33445    -0.33705    -0.82751      3.8533    0.027709    -0.39974
-0.23993    -0.33932    -0.35102    -0.78463      3.5824    0.016991    -0.41923
-0.22856    -0.33153    -0.35849     -0.7122      2.6138    0.050771    -0.42247
-0.22077    -0.31756    -0.35394    -0.62743      1.3591    0.099817    -0.41565
-0.21687      -0.301    -0.33445    -0.54233     0.25248     0.14009    -0.40428
-0.22044    -0.27826    -0.30035    -0.45723    -0.41435     0.15991    -0.38739
-0.23214    -0.24448    -0.25552    -0.37148    -0.59754     0.15438    -0.36856
-0.2461    -0.20225    -0.20193    -0.28768    -0.47444     0.13067    -0.35232
-0.25098    -0.15483    -0.14899    -0.20843    -0.31204    0.096893    -0.33607
-0.23733    -0.10579    -0.10026    -0.13567    -0.29547    0.062789    -0.31171
-0.20713   -0.057715   -0.059989   -0.070058    -0.41565    0.033231    -0.27501
-0.16977   -0.018738   -0.030756   -0.013866    -0.50075   0.0020496    -0.23116
-0.13242   0.0072465   -0.011267    0.030633    -0.36888   -0.039201    -0.19511
-0.098641    0.015692   0.0052977    0.057267   0.0095202    -0.09117     -0.1701
-0.06551   0.0091954    0.017965    0.064737     0.48634    -0.14769    -0.15191
-0.030106   0.0020496    0.024137    0.057267     0.81569    -0.19901    -0.13177
0.009845    0.010495    0.024137    0.039402     0.81407    -0.23798   -0.098316
0.050771    0.038753     0.01764    0.020888     0.47464    -0.26202   -0.044398
0.082927    0.079354   0.0091954    0.012119   -0.030756    -0.27111    0.031607
0.097218     0.11443   0.0065969    0.021538    -0.47314    -0.26527     0.12418
0.091696     0.12353    0.014392    0.049796    -0.70018    -0.25033     0.21545
0.065062    0.095269    0.031932    0.091696    -0.68427    -0.24318     0.28463
0.023812    0.034206    0.049472     0.13392    -0.49815    -0.25552     0.31224
-0.017439   -0.036602    0.063438      0.1638     -0.2513    -0.28411       0.296
-0.041475   -0.090196    0.075456      0.1742   -0.038876    -0.32536     0.25572
-0.039201    -0.10968    0.089098      0.1742    0.087799    -0.36271     0.22227
-0.0076946   -0.092794     0.10047      0.1755     0.13327    -0.37505     0.22259
0.046223   -0.054467     0.10306     0.18134     0.14009    -0.35491     0.26027
0.10956   -0.016789    0.095269     0.18914     0.15861    -0.30782     0.31419
0.17192   0.0065969    0.079029     0.19758     0.21382       -0.25     0.35641
0.22324     0.01829    0.065062     0.20895     0.29048     -0.2068     0.36453
0.25443     0.03453    0.066037     0.23071      0.3444    -0.19738     0.33368
0.26937    0.068635    0.084551     0.26514     0.33043    -0.22661     0.27294
0.27294     0.12385     0.11281     0.30737     0.22714    -0.28248     0.20376
0.26839     0.18459     0.14042     0.34959    0.048172    -0.33737     0.14594
0.25767     0.23136     0.15926      0.3863    -0.15613    -0.35751     0.11768
0.23721     0.25572     0.16933     0.41845    -0.32666    -0.33055       0.131
0.19888     0.26709     0.17517     0.44314    -0.44229    -0.27469     0.17939
0.14464     0.28236     0.17907     0.45678    -0.52414    -0.22597     0.24338
0.084226     0.30899     0.17907     0.45288    -0.62645    -0.20583     0.30185
0.033556     0.33335     0.17485     0.43469    -0.76774    -0.19478     0.34667
0.0046481     0.33563     0.16933     0.40124    -0.88143    -0.14087     0.37883
0.00042559      0.3038     0.16283     0.35252    -0.85642   -0.010293     0.40319
0.010819     0.23948     0.14854     0.28333    -0.63457     0.18524     0.41943
0.019264     0.15471      0.1206     0.19401    -0.28963     0.40091     0.41553
0.010819    0.069934     0.07773    0.092021   -0.033354     0.57274     0.37785
-0.019388   0.0069217    0.031607  -0.0018481   -0.020037     0.65459     0.30542
-0.061288   -0.022961  -0.0057458   -0.066485    -0.18601     0.63867     0.21675
-0.096692   -0.019388   -0.025559   -0.087597     -0.3325      0.5487      0.1362
-0.11261   0.0072465   -0.028157   -0.068109    -0.29353      0.4217    0.083251
-0.10644    0.046223   -0.020362   -0.020687   -0.012892     0.30347    0.059865
-0.078827    0.087149  -0.0018481    0.033231     0.40416     0.23818    0.058566
-0.037252     0.11866     0.01829    0.071558     0.73449     0.25313    0.062139
0.0072465      0.1297    0.035505    0.081627     0.77704     0.36129    0.056292
0.04395     0.11508      0.0433    0.067011     0.43567     0.53863    0.038103
0.059216    0.080653    0.037454    0.035505    -0.24708      0.7241    0.009845
0.047198    0.034855    0.016991  -0.0028225     -1.0584     0.82966   -0.027183
0.015042   -0.011592   -0.013866   -0.041799     -1.7123     0.78678   -0.070382
-0.02426   -0.048945   -0.044398    -0.07493     -1.9939     0.57858    -0.11553
-0.056741   -0.073631   -0.069408    -0.10156      -1.824     0.25053    -0.15353
-0.077528   -0.084674   -0.086948     -0.1243     -1.2676    -0.11456    -0.18666
-0.088247   -0.085324    -0.10091    -0.15223    -0.49393    -0.44034    -0.22109
-0.094743    -0.08305    -0.11293    -0.19283     0.28756    -0.68264    -0.26332
-0.10254   -0.085324     -0.1295    -0.23766     0.91184    -0.83498    -0.30652
-0.10189   -0.093769    -0.14834    -0.27274      1.3211    -0.90644    -0.33835
-0.075255    -0.10286    -0.16003    -0.28086      1.5296    -0.89962    -0.34062
-0.016789    -0.10481    -0.15321    -0.25585      1.5416    -0.81387    -0.29937
0.064413   -0.093119    -0.12917    -0.20583       1.364    -0.66121    -0.21979
0.14951   -0.071032   -0.095068    -0.15029      1.0301    -0.47379    -0.12203
0.21155   -0.046022   -0.059989    -0.10514     0.60684    -0.29255   -0.030756
0.23299   -0.026533   -0.030106   -0.077203     0.19466    -0.15158     0.03583
0.21382   -0.016789   -0.008669   -0.067784    -0.10481   -0.072006    0.067011
0.16803   -0.017114  0.00042559    -0.07493    -0.24805   -0.054142    0.065062
0.11346   -0.020362  -0.0018481   -0.090196    -0.26364   -0.078827    0.040702
0.061489   -0.022961  -0.0060706   -0.097991    -0.21817    -0.11391   0.0095202
0.01764   -0.022311  -0.0041217   -0.089546    -0.16458    -0.12657   -0.018738
-0.017114   -0.018413   0.0085458   -0.062262    -0.11228    -0.10514   -0.039851
-0.042124   -0.012242    0.030633   -0.023935   -0.037252   -0.058689   -0.053817
-0.061613  -0.0073698    0.056942    0.015367    0.094945   -0.015815    -0.06551
-0.079152  -0.0047713    0.080978    0.047198      0.3025      0.0014     -0.0824
-0.096692  -0.0018481    0.093321    0.067661     0.55974   -0.018088    -0.10546
-0.10709  0.00075039    0.084551    0.080328     0.80302   -0.063886    -0.13599
-0.10611   0.0056225    0.059216      0.0852     0.96933    -0.11618    -0.17302
-0.094093    0.011144    0.028684    0.081627      1.0232    -0.15256    -0.21037
-0.084674    0.014717   0.0062721    0.070909     0.95763    -0.16003    -0.24058
-0.088247    0.014068  -0.0031473    0.056942      0.7962    -0.13697     -0.2539
-0.10936   0.0072465  -0.0018481    0.047198     0.59742   -0.089871    -0.24578
-0.13924  -0.0047713   0.0046481    0.047523     0.42755   -0.035628    -0.21557
-0.15938   -0.014516    0.011469    0.055968       0.334    0.014068    -0.16912
-0.15386   -0.017114     0.01894    0.071558     0.32978    0.053044    -0.11033
-0.11943  -0.0099683    0.026735    0.088448     0.38954    0.082277   -0.047321
-0.064211   0.0020496    0.032257     0.10242     0.46945     0.10761   0.0026992
-0.0021729    0.016016    0.038103     0.11313     0.52759     0.12613     0.03453
0.053694    0.025761    0.044599     0.11801     0.52109     0.13262    0.047847
0.092021    0.027385    0.049472     0.11736     0.37785     0.12613    0.046548
0.11118     0.01894    0.049472     0.10989   0.0075714     0.10501    0.033881
0.11216   0.0052977    0.042001    0.093645    -0.56084    0.062139    0.013743
0.10274   -0.007045    0.026735    0.070259     -1.1244  -0.0028225   -0.007045
0.087149   -0.014191   0.0088706      0.0433     -1.4495   -0.080776   -0.022311
0.074806   -0.017764  -0.0057458    0.018615     -1.3975    -0.14931   -0.031406
0.070584   -0.014191   -0.012242  -0.0015233    -0.98991    -0.18439   -0.039851
0.071883 -0.00054884  -0.0063954   -0.013216    -0.39129    -0.17237   -0.052193
0.072858    0.016666   0.0091954   -0.013541     0.18167    -0.11553   -0.061613
0.065712    0.028359    0.026085  -0.0021729     0.54448   -0.027833   -0.062587
0.049147    0.025111    0.034206    0.020888     0.62081    0.070584    -0.05739
0.024137   0.0085458     0.02706    0.045899     0.41358     0.16218   -0.052518
-0.0037969   -0.022636   0.0072465     0.06019   -0.025884     0.23526   -0.052193
-0.02426   -0.067784   -0.017439    0.053044     -0.5878     0.28171   -0.055441
-0.030106    -0.12203   -0.038227    0.029009     -1.1237     0.29373   -0.059989
-0.02426    -0.17172   -0.047971      0.0014      -1.493     0.27164   -0.064211
-0.012892    -0.19868   -0.046022   -0.017439     -1.6116      0.2109   -0.071032
-0.0080194    -0.19219   -0.035303   -0.021012      -1.482     0.12288   -0.082076
-0.020037    -0.15093   -0.021661   -0.012567     -1.1695    0.038103   -0.090845
-0.04115   -0.087272   -0.011267   0.0017248     -0.7619  -0.0060706   -0.087922
-0.060313   -0.020362  -0.0041217    0.014717    -0.35946    0.016341   -0.072981
-0.072981    0.031282   0.0010752    0.024786   -0.063561    0.097218   -0.051544
-0.079152    0.056292   0.0033489    0.030308    0.067336     0.20278   -0.030756
-0.079152     0.05207  0.00010078    0.028359    0.041676     0.28593   -0.012567
-0.073631    0.022188   -0.011917    0.016666   -0.086298     0.30769  -0.0041217
-0.061937   -0.017439    -0.03303  -0.0041217    -0.25325     0.25313  -0.0047713
-0.043748   -0.055116   -0.053817   -0.034004    -0.39519     0.14204   -0.011592
-0.021337   -0.079477    -0.06616   -0.068434    -0.47217    0.015692   -0.019388
0.0010752   -0.088896    -0.06616   -0.094093    -0.47152   -0.075579   -0.018413
0.023162   -0.084024   -0.057065    -0.10254    -0.40104    -0.10189  -0.0037969
0.0433   -0.071357   -0.043423   -0.092794    -0.28021   -0.061613    0.026735
0.063113   -0.052193   -0.028157   -0.070058    -0.14639    0.016991    0.065062
0.080978   -0.029457   -0.012567   -0.043748   -0.061288    0.091696    0.098193
0.095594  -0.0083442   0.0020496   -0.021661   -0.084674     0.12872     0.11476
0.10209   0.0078962    0.011794  -0.0083442    -0.22954     0.11833     0.11703
0.10242    0.019264    0.013093  -0.0011985    -0.42832    0.072533     0.10664
0.096569    0.025436   0.0085458 -0.00054884    -0.58325   0.0088706    0.091047
0.080653     0.02641  -0.0015233  -0.0047713    -0.60924   -0.064861    0.074806
0.057267    0.024786   -0.013866   -0.012567    -0.47119    -0.14769    0.061489
0.033556    0.020239   -0.024909   -0.020362    -0.19706    -0.23051    0.053044
0.016991    0.016016   -0.030756   -0.028157     0.14626    -0.30197    0.047847
0.012119    0.012119   -0.030431   -0.031081     0.48309    -0.34809     0.04395
0.01894    0.011794   -0.025559   -0.030431     0.74359    -0.35816    0.039727
0.031607    0.014392   -0.020362   -0.027508     0.88065    -0.32763    0.034206
0.044924    0.023812   -0.017764    -0.02361     0.88683    -0.26202    0.030308
0.057592    0.040377   -0.015815   -0.021986     0.79555    -0.17919    0.033231
0.067986    0.056292   -0.010293   -0.017764     0.65459   -0.096042    0.041351
0.06961    0.066037  -0.0031473  -0.0089938      0.5081   -0.029457    0.048172
0.057267     0.06831   0.0072465   0.0052977     0.39377    0.011469    0.050121
0.032257    0.066362    0.019264    0.019914      0.3405    0.025761    0.045574
0.0039985    0.062789    0.029333    0.028684     0.35382    0.024137    0.031932
-0.019388    0.054668    0.031282    0.025436     0.41261     0.01764   0.0088706
-0.028807    0.039078    0.020239   0.0088706     0.48406    0.010495   -0.018088
-0.025559    0.014717  0.00042559   -0.016789     0.52791   0.0056225   -0.039526
-0.014191   -0.012892   -0.018088   -0.038551     0.50583   0.0023744   -0.047646
0.0052977   -0.030431   -0.026533   -0.046347     0.40026   0.0039985   -0.039526
0.03583   -0.031081   -0.023935   -0.036278     0.22519    0.011144   -0.025559
0.075456   -0.010618   -0.013541   -0.015815    0.027385    0.041027   -0.015815
0.10891    0.026085 -0.00087364   0.0085458     -0.1295     0.10501   -0.014516
0.11638    0.071234    0.012443    0.030957    -0.18569     0.19921   -0.011267
0.078704     0.11508    0.021538    0.053369    -0.13989     0.30867     0.01017
0.0020496     0.14594    0.024461    0.077405   -0.058689     0.42657    0.055643
-0.086298     0.15861    0.025111     0.10404   -0.021012     0.55812     0.11671
-0.15581     0.15016    0.029009     0.13295   -0.057715     0.69584     0.17582
-0.19154     0.12548    0.037454     0.15991    -0.14152     0.81732     0.21415
-0.19608    0.095919    0.049147     0.18622    -0.20225     0.88553     0.22584
-0.18049    0.072858    0.067986     0.21382    -0.14736     0.88228     0.21188
-0.15613    0.067661    0.096244     0.24306    0.019914     0.80822     0.18654
-0.13632    0.082927     0.12937     0.26742     0.13002     0.67213      0.1703
-0.12463     0.11118     0.15828     0.28203    -0.01549     0.46523     0.17517
-0.11553     0.14204     0.17972     0.28106    -0.43157     0.18849     0.19693
-0.095068      0.1651     0.19304     0.26677    -0.90156    -0.12625     0.22422
-0.050894     0.17517     0.19661     0.23981     -1.1111    -0.43352     0.24825
0.01764     0.16738     0.18687     0.19856    -0.86454    -0.69401     0.26449
0.095594     0.14042     0.15731     0.14399    -0.17367     -0.8902     0.26872
0.15731    0.088773     0.10566    0.075456     0.77477     -1.0227     0.25507
0.19011    0.016666    0.033881  -0.0067202      1.6397     -1.0974     0.21837
0.18914   -0.065186   -0.046347    -0.10026      2.0402     -1.1104     0.15893
0.16023    -0.13957    -0.12203    -0.19998      1.7011     -1.0669    0.076755
0.11703    -0.19641    -0.18407    -0.30132     0.63705     -0.9714   -0.021012
0.072533    -0.23084    -0.22824    -0.39324     -0.7658    -0.82361    -0.11163
0.033556    -0.23668    -0.25292      -0.466     -1.9367     -0.6245    -0.17659
0.0020496    -0.21297    -0.25942    -0.50757     -2.5405      -0.377    -0.20713
-0.018088    -0.17302    -0.25455    -0.51862     -2.5178   -0.087272    -0.20843
-0.021012    -0.13827    -0.24903     -0.5092     -2.0338     0.21935    -0.18959
-0.0076946    -0.12105    -0.24545    -0.49036     -1.3657     0.49056    -0.16588
0.016016    -0.11618    -0.23928     -0.4673    -0.75508     0.67603    -0.14964
0.038428    -0.10286    -0.22044    -0.43482    -0.32763     0.75495    -0.14931
0.047847   -0.065186    -0.18861    -0.38934   -0.054142     0.74423    -0.16458
0.037454  -0.0080194    -0.15093    -0.33218     0.18946     0.67797    -0.18244
0.010819    0.045899    -0.11586    -0.27209     0.49771     0.58021    -0.19348
-0.017114    0.079354   -0.088247    -0.21492     0.89495     0.45905    -0.19511
-0.038227    0.088124   -0.068758    -0.15808      1.3477     0.32978    -0.18894
-0.051219    0.083576   -0.052843   -0.096692      1.7596     0.22292      -0.174
-0.062587    0.074157   -0.036602   -0.029782      1.9977     0.17712    -0.14606
-0.07493     0.06084   -0.021661    0.037454      2.0087      0.2135    -0.10449
-0.097666    0.037129  -0.0089938     0.09397      1.8586     0.29438   -0.059989
-0.13404  -0.0076946   0.0017248     0.12418      1.6628     0.32946   -0.035628
-0.1727   -0.082076   0.0091954     0.12385      1.5121     0.21317   -0.049595
-0.19738    -0.18471    0.011144     0.10079      1.4608   -0.090521    -0.10026
-0.18569     -0.2932   0.0085458    0.075456      1.5244     -0.5027     -0.1623
-0.123    -0.37473   0.0046481    0.064737      1.6836    -0.85414    -0.19803
-0.016464    -0.39487   0.0049729    0.076755      1.9165    -0.99608    -0.18407
0.10566    -0.33737    0.011794     0.10794       2.202    -0.88987    -0.12073
0.20213    -0.21752    0.023812     0.14399      2.4102    -0.60729    -0.03173
0.23948   -0.076879    0.035505     0.16705      2.2702    -0.29482    0.054993
0.20343     0.03453    0.038428     0.16218       1.618   -0.098316     0.11346
0.10566    0.089098    0.028034     0.12483     0.60327   -0.082725     0.13035
-0.020362    0.088773   0.0075714    0.063113    -0.42247    -0.22239     0.11086
-0.13729    0.058241   -0.016789   -0.011592     -1.2316    -0.44261    0.067011
-0.22337     0.02641   -0.039526   -0.088896     -1.8552    -0.65146    0.014068
-0.27306    0.010819   -0.060313    -0.15873     -2.3973    -0.77164   -0.038876
-0.29385    0.015367   -0.081101    -0.21297     -2.8988     -0.7502   -0.082076
-0.30359    0.032257    -0.10156    -0.24026     -3.3055    -0.56734    -0.10254
-0.31204    0.053369    -0.11228    -0.23181     -3.4861    -0.24318   -0.089871
-0.31951    0.070909    -0.10871    -0.18536     -3.3175     0.15731    -0.04992
-0.31691    0.080328   -0.091495    -0.10774     -2.7815     0.53051   0.0072465
-0.30035    0.083576   -0.069408   -0.011917     -1.9539     0.77509    0.064088
-0.27176    0.084551   -0.046022    0.082602    -0.96133     0.83616     0.10306
-0.23636    0.083576   -0.026533     0.15309   0.0059473      0.7254     0.11248
-0.19673    0.081952   -0.010943     0.18719     0.74196     0.50777    0.095269
-0.15321    0.085525 -0.00022403     0.18784      1.1366     0.26937    0.065387
-0.10514    0.098517    0.011469      0.1664      1.2019     0.07708     0.03583
-0.055441      0.1258    0.029658     0.14334      1.0424    -0.03238     0.01894
-0.012567     0.16121    0.057267     0.13522     0.78613   -0.057065    0.024461
0.017965     0.19466     0.09397     0.15114     0.54026    -0.02426    0.051745
0.029658     0.21545     0.12807     0.18914     0.36908     0.01894    0.089748
0.029009        0.22     0.15244     0.23624     0.28885    0.037454     0.12483
0.02706     0.21058     0.16283     0.28301     0.28333    0.014068     0.14919
0.03518     0.19401      0.1638     0.32296     0.30867   -0.058365     0.16088
0.058566     0.17615     0.16283     0.35414     0.30802    -0.16945     0.15893
0.094945     0.15958     0.16445     0.37623     0.24143     -0.2867     0.14919
0.13814     0.14334     0.16673      0.3876     0.10631    -0.37115     0.13587
0.18232     0.12645     0.16413      0.3837   -0.087597    -0.39551     0.11995
0.22032     0.10956     0.15601     0.36518    -0.32308    -0.35264    0.099492
0.24825    0.092996     0.14432     0.33465     -0.5498    -0.25455    0.075131
0.27132    0.081952      0.1271     0.29275    -0.68557    -0.11261    0.054019
0.29697    0.076755     0.10826     0.24403    -0.65731    0.059541    0.045899
0.32556    0.072858    0.092021     0.19304    -0.45788     0.23916    0.055318
0.35122    0.067986    0.082277     0.14886    -0.15158     0.39377     0.07773
0.36518    0.058891     0.07773     0.12158     0.15861     0.49706     0.10209
0.36291    0.048172    0.073832     0.11281     0.39279     0.53279     0.11703
0.34212    0.036154    0.066037     0.11606     0.51784     0.49121     0.11508
0.30445    0.020564    0.053369     0.12028     0.51622      0.3746    0.094945
0.25118 -0.00022403     0.03583     0.11476     0.36681     0.19044    0.058891
0.19044   -0.024909     0.01894    0.094295    0.081303   -0.038876    0.016341
0.1284   -0.051868   0.0026992    0.064088    -0.26202    -0.26981   -0.022311
0.072858   -0.077528   -0.011592    0.028359     -0.5537    -0.44683   -0.051868
0.032906   -0.097991   -0.022961  -0.0067202    -0.72227    -0.52446   -0.069408
0.0043233    -0.10774   -0.029132   -0.038876    -0.74858    -0.47932   -0.071357
-0.020362    -0.10579   -0.030431   -0.063237    -0.65081    -0.32308   -0.057715
-0.043748   -0.093119   -0.028807   -0.077203    -0.47509   -0.098316   -0.039851
-0.069408   -0.075255   -0.026209   -0.077853    -0.27728     0.14464   -0.024909
-0.096692   -0.060963   -0.024909   -0.071357    -0.10579     0.36194   -0.021661
-0.11813   -0.053168   -0.024909   -0.061937    0.032906     0.52531    -0.03173
-0.12235   -0.052518   -0.026209    -0.04927     0.16965     0.62243   -0.048945
-0.10774   -0.061613   -0.029457   -0.035303     0.32198     0.65816   -0.062912
-0.080776   -0.077203   -0.034329   -0.026209     0.45061     0.63088   -0.068434
-0.053817   -0.092145   -0.034654   -0.025884     0.48829     0.54838   -0.071357
-0.034654   -0.092469   -0.032705   -0.035628     0.39474     0.42657   -0.082725
-0.020687   -0.075579   -0.030756    -0.04992       0.207     0.28333    -0.10481
-0.0093186   -0.042449   -0.028157   -0.061613    0.012443       0.131    -0.13437
0.0023744  -0.0063954   -0.026533   -0.062262    -0.11423   -0.011592    -0.16555
0.012443    0.019914   -0.023935   -0.046022    -0.15386    -0.12722    -0.19219
0.019264    0.027385   -0.020037   -0.016789    -0.13794    -0.19998     -0.2068
0.023162    0.019264   -0.013866    0.013743    -0.12008     -0.2146    -0.19966
0.027709   0.0072465  -0.0044465    0.036479    -0.14639     -0.1675     -0.1675
0.038103    0.003024    0.012443    0.050771     -0.2552   -0.070707    -0.11748
0.054993    0.014068    0.034206    0.059216    -0.45788    0.038753    -0.06551
0.076106    0.037778    0.054019    0.069934    -0.71025      0.1219   -0.025234
0.099167    0.065712    0.064413    0.083251    -0.92852     0.15049 -0.00022403
0.12125    0.087474    0.066037    0.096893     -1.0432     0.12353    0.012443
0.13749    0.097543    0.063763     0.10469     -1.0403    0.062139     0.01764
0.14464    0.099817    0.061489     0.10306    -0.95808  -0.0099683     0.01894
0.13555    0.095594    0.058241    0.091372     -0.8496   -0.073306    0.021538
0.11313    0.084551    0.051096    0.070259    -0.75313    -0.11423    0.026085
0.086175    0.063113    0.038103    0.046873    -0.67777    -0.12755    0.036154
0.066362    0.034855    0.023487    0.027709    -0.60956     -0.1191    0.055643
0.056617   0.0062721   0.0095202    0.017316    -0.53648    -0.10286    0.081303
0.054668   -0.010293 -0.00054884    0.013418    -0.45138   -0.088896     0.10177
0.056292   -0.013541  -0.0044465    0.011469    -0.36336   -0.079802     0.10826
0.058241  -0.0080194  -0.0024977   0.0075714     -0.2854    -0.07493    0.099817
0.055643  -0.0031473 -0.00087364      0.0014    -0.20972   -0.076229    0.080653
0.044275   -0.007045 -0.00087364  -0.0050961    -0.11098   -0.084674    0.060515
0.026085   -0.026533  -0.0015233   -0.013866    0.021213    -0.10124    0.044275
0.0049729   -0.058365  -0.0028225   -0.022636     0.18524    -0.12527     0.03518
-0.01549   -0.094093   -0.007045   -0.028157     0.36973    -0.15256    0.030957
-0.03303    -0.11813   -0.013216    -0.03173      0.5513    -0.17692    0.029333
-0.051219    -0.11813   -0.017114   -0.039851     0.69259    -0.19219    0.028359
-0.075255   -0.091495   -0.017439   -0.050244     0.75495    -0.19024    0.025436
-0.10449   -0.048296   -0.011267   -0.058365     0.72312     -0.1714    0.017316
-0.1308   0.0017248  0.00042559   -0.060638     0.61204    -0.13892   0.0036737
-0.14769    0.042975   0.0085458   -0.058689     0.46652   -0.098965   -0.010293
-0.15191    0.065712    0.009845   -0.053492     0.35447   -0.057065   -0.020687
-0.14216    0.072858   0.0072465   -0.045372     0.32491   -0.019712   -0.023935
-0.11975    0.069285   0.0078962   -0.035628     0.38013    0.010495   -0.018738
-0.091495    0.059216    0.011469   -0.023935     0.48212    0.034855  -0.0096434
-0.061288    0.044599    0.012443   -0.017764     0.57469    0.051745  0.00010078
-0.034329    0.025436    0.010495   -0.012892     0.62438    0.058891   0.0088706
-0.020037   0.0056225   0.0069217  -0.0099683     0.61561    0.055318     0.01829
-0.022961  -0.0099683 -0.00087364  -0.0080194     0.53766    0.042975     0.02706
-0.0405   -0.020687   -0.013216  -0.0073698     0.36421    0.025436    0.031282
-0.061937   -0.023935   -0.029782   -0.013216    0.084226   0.0039985    0.027385
-0.07493   -0.025234   -0.045047   -0.025884    -0.24156   -0.028157    0.019589
-0.072981   -0.026533   -0.052843   -0.045372    -0.52674   -0.068758    0.013743
-0.060313   -0.028807   -0.055116   -0.072331    -0.69466    -0.10644    0.010495
-0.046996   -0.033354   -0.053168   -0.097666    -0.72032     -0.1256    0.012119
-0.038551   -0.041799   -0.051544    -0.11456    -0.64789    -0.13469    0.015042
-0.041799   -0.056416   -0.050244     -0.1204    -0.53323    -0.16198    0.010819
-0.056741   -0.076229   -0.052843    -0.12203    -0.40981    -0.23181   -0.011267
-0.079152   -0.096692   -0.059339    -0.12657    -0.30327    -0.34614   -0.054142
-0.10286    -0.11521   -0.065186    -0.13275    -0.21005    -0.47672    -0.10968
-0.11878     -0.1321    -0.06616     -0.1321   -0.093769    -0.57318    -0.16425
-0.11748    -0.14769   -0.061613    -0.11878    0.083576    -0.59592    -0.20778
-0.092145    -0.15776   -0.054467   -0.093769     0.31159    -0.55142    -0.24123
-0.046022    -0.15581   -0.051219   -0.062587     0.53668    -0.47639    -0.26007
0.013093    -0.13275    -0.05804   -0.036927      0.7137    -0.40688    -0.25877
0.070584   -0.085324   -0.070058   -0.026533     0.84882    -0.35296    -0.23279
0.11151   -0.021337   -0.083375   -0.034329     0.98524     -0.2893    -0.17952
0.1245    0.042651   -0.093119   -0.052518      1.1424    -0.17042    -0.10449
0.11118    0.096569   -0.093444   -0.072981      1.2685    0.033556   -0.022961
0.080978     0.13425     -0.0824   -0.089221       1.273     0.29762    0.048172
0.049147     0.15373   -0.064536   -0.094418      1.1626     0.56039     0.10209
0.025111     0.14886   -0.046996   -0.086298      1.0739      0.7595     0.13749
0.010819     0.12125   -0.035628   -0.062262      1.1311     0.85824     0.15081
0.0010752    0.078704   -0.031406   -0.028482      1.2987     0.85889     0.15016
-0.012892    0.037454   -0.023935    0.010819      1.4026     0.80043     0.15244
-0.032055   0.0095202  -0.0089938    0.045899      1.2149     0.73287     0.16998
-0.051868  0.00010078    0.009845    0.067986     0.57241     0.68187     0.20181
-0.066485 -0.00087364    0.030633    0.075781    -0.47607      0.6299     0.23429
-0.069408  -0.0047713    0.043625    0.070259     -1.6366     0.53928     0.25085
-0.055441   -0.013541    0.044599     0.05207     -2.5675     0.38792     0.24143
-0.026533   -0.023935    0.032906    0.029658     -3.0437     0.19044     0.20635
0.0078962   -0.027508    0.022188     0.01829     -3.0229    -0.01549     0.16933
0.037129   -0.016789    0.026735    0.027709     -2.6266    -0.19316     0.15633
0.05142     0.01017     0.05142    0.054668     -2.0514    -0.32666     0.17745
0.044924    0.048497    0.087474    0.089748     -1.5008     -0.4137     0.22129
0.030957    0.095594     0.11801     0.11801     -1.1237    -0.46405     0.26872
0.028359     0.13555     0.13457     0.12937     -0.9321    -0.48938     0.30347
0.049472     0.15373       0.131     0.12158    -0.76774    -0.48906     0.31971
0.091696     0.14302     0.10989    0.097868    -0.43644    -0.44554     0.32556
0.14204     0.11086    0.071883    0.066686      0.1284    -0.34647     0.33043
0.18134    0.072858     0.02706     0.03453     0.80302    -0.20128     0.33303
0.19628    0.042001   -0.012892 -0.00087364      1.3364   -0.040825     0.32458
0.18687    0.023487     -0.0405   -0.044073      1.5468    0.087474     0.29633
0.15861    0.014392   -0.055116   -0.094418       1.477     0.14334     0.24208
0.11898    0.011469   -0.062912    -0.14087       1.275     0.11378     0.16413
0.06831     0.01017   -0.071357     -0.1688     0.99758    0.015367    0.076106
0.0020496   0.0056225   -0.079802    -0.18309     0.52012    -0.11423  -0.0050961
-0.076229  -0.0021729   -0.084674    -0.19413    -0.31626    -0.22791   -0.063886
-0.15256  -0.0024977   -0.078827     -0.2042      -1.442    -0.28508   -0.087922
-0.21525    0.013418   -0.055766    -0.19901     -2.5467    -0.26137   -0.073631
-0.25357    0.042975   -0.020037    -0.16523     -3.2749    -0.15776   -0.029782
-0.26364    0.072208    0.016991    -0.10546     -3.4711  -0.0060706    0.020239
-0.24708    0.087149    0.044924   -0.042124      -3.235     0.15731    0.055968
-0.20355    0.078055    0.056292   0.0020496     -2.8101     0.31289    0.062789
-0.14216    0.047847    0.058241    0.016341      -2.409     0.45516    0.041351
-0.079802   0.0078962    0.051745  -0.0050961     -2.0923     0.57274  -0.0057458
-0.035628    -0.03173    0.038103   -0.059664     -1.6681     0.64192   -0.076879
-0.015815   -0.060963    0.017316    -0.13145    -0.78301     0.63477     -0.1636
-0.017114   -0.075579   -0.007045    -0.19771     0.77964      0.5474    -0.24773
-0.027508    -0.07493    -0.03303    -0.24383       2.823     0.40643    -0.31204
-0.033354    -0.06681   -0.059989    -0.27176      4.8498     0.25637    -0.34972
-0.03173    -0.05804   -0.090521    -0.28963      4.9589     0.11703    -0.36791
-0.028157   -0.054142     -0.1256    -0.30879      4.9589   -0.051868     -0.3809
-0.029132   -0.059339    -0.16685    -0.33932      4.9589    -0.32016    -0.40461
-0.043423   -0.078178    -0.21135    -0.38642      4.9589      -0.707    -0.45073
-0.07428    -0.11488    -0.25357    -0.44261      4.5172     -1.1312    -0.51212
-0.11488    -0.16393    -0.28508    -0.48938      3.9858     -1.4567    -0.57059
-0.15158    -0.21492    -0.29677    -0.51115      3.7601     -1.5785    -0.60729
-0.17562    -0.25715     -0.2919      -0.504      3.5363     -1.4755    -0.61281
-0.19576     -0.2854    -0.27988    -0.47639      2.9838     -1.2095     -0.5904
-0.23474    -0.29807    -0.26981    -0.44261      1.9584     -0.8876    -0.55922
-0.30554    -0.29775    -0.26039    -0.41143     0.56819    -0.60761    -0.53323
-0.40461     -0.2867    -0.24838    -0.38187    -0.86129    -0.42572    -0.51472
-0.51017    -0.26819    -0.22921    -0.35394     -1.9387    -0.34225    -0.49328
-0.58878    -0.24253    -0.20128    -0.31626     -2.4684    -0.31106    -0.45853
-0.61346    -0.21265    -0.16847    -0.26039     -2.4392    -0.27761    -0.40786
-0.57578    -0.18179     -0.1308    -0.18342     -1.9965     -0.2055    -0.34095
-0.47217    -0.15126   -0.088247   -0.086948      -1.366   -0.081751    -0.26267
-0.31756    -0.12073   -0.042449    0.019264    -0.75183    0.078379    -0.18114
-0.14216   -0.094743   0.0043233      0.1232    -0.28703     0.23981    -0.10449
0.023487    -0.07493    0.046873      0.2161   -0.018088     0.37201   -0.038551
0.15016   -0.062587    0.074806     0.29665    0.074482     0.46068    0.013093
0.22519   -0.054792    0.087474     0.36161    0.048172      0.5094    0.056942
0.25313   -0.049595    0.091696     0.41066   -0.032055     0.53246    0.093321
0.25085   -0.044073    0.091696     0.44119    -0.12365     0.53896      0.1206
0.23201   -0.036278    0.091372     0.45516    -0.21005     0.53149      0.1349
0.2044   -0.024909    0.092671     0.45516     -0.2932     0.50648     0.13879
0.17062  -0.0099683    0.092996     0.44736    -0.38057      0.4571     0.14042
0.1349   0.0095202    0.089748     0.43859    -0.47867     0.37395     0.14659
0.10209    0.035505    0.087474     0.43307    -0.58585      0.2619     0.15763
0.080653    0.066037    0.092021     0.43469    -0.68524     0.14724     0.17452
0.076755    0.098842     0.10761     0.44151    -0.75865    0.061165     0.19921
0.09397     0.12515     0.13197     0.44931    -0.79763    0.022512     0.23071
0.12613     0.13977     0.15861     0.45581    -0.80477    0.031607      0.2593
0.16543     0.14367     0.17907     0.46263     -0.7934    0.075131     0.27326
0.20051     0.14172     0.19271     0.47205    -0.77684      0.1323     0.27229
0.22812     0.14367     0.19986     0.48147    -0.76709     0.19076     0.26352
0.24825     0.14984     0.20473     0.48309    -0.76872     0.24046      0.2567
0.26384     0.16121     0.20895     0.47562    -0.77976     0.26807     0.25865
0.27749      0.1755     0.21512     0.46165    -0.78983     0.26384     0.27067
0.2895     0.18816     0.22032     0.44541    -0.79048     0.22422     0.28788
0.3012     0.19206     0.21935     0.42625    -0.78074     0.16218     0.30022
0.31062     0.18687     0.20765     0.40156    -0.76839    0.095269      0.3012
0.30867     0.17355     0.18751     0.37655    -0.75865    0.042975     0.28853
0.28463     0.16315     0.16738     0.35349    -0.74761    0.021538     0.26579
0.23851     0.16608     0.15601     0.33368    -0.73266    0.033881     0.23754
0.17777     0.18199     0.15601     0.31386     -0.7135    0.068635     0.20863
0.11476     0.19693     0.16056     0.29438    -0.69336     0.10794     0.18524
0.060515     0.19563     0.15861     0.27359    -0.67258     0.13749     0.16673
0.019264      0.1755     0.14496      0.2502    -0.65309     0.15568     0.14886
-0.0076946     0.14789     0.12418     0.22129    -0.63912     0.17095      0.1297
-0.0099683     0.12872     0.10404     0.19141    -0.63457     0.18524     0.10924
0.021213     0.12743    0.084551     0.16413    -0.63782     0.19628    0.092346
0.083576     0.13652    0.070909     0.14334    -0.64789     0.19563    0.087149
0.16023     0.14107    0.064088     0.13295    -0.65926      0.1703    0.095594
0.22682      0.1297    0.056942      0.1284    -0.66251     0.12353     0.11411
0.26774     0.10274    0.047523      0.1271    -0.64692    0.076431      0.1336
0.28171    0.079029    0.037129     0.12548    -0.60924    0.058566     0.14919
0.27229     0.07773    0.027385     0.12255    -0.55954    0.090397     0.15991
0.24663     0.11151    0.027385     0.11768    -0.50985     0.17192     0.17647
0.21252     0.17095    0.041027     0.11281    -0.47574     0.28463     0.20863
0.18362     0.23201    0.064413     0.10989    -0.47184     0.39052     0.25378
0.16608     0.27002    0.084876     0.10436    -0.49945     0.45548     0.30055
0.16153     0.27164     0.09462    0.097868    -0.53973     0.45613     0.33205
0.16543     0.23786    0.093321    0.089423    -0.57026     0.39312     0.33563
0.169     0.17777    0.081952     0.07773    -0.57741     0.28756     0.31029
0.1651     0.10696    0.062789    0.062464    -0.56766      0.1651     0.26287
0.14854    0.046548    0.040377    0.044275    -0.54817    0.051096     0.20278
0.11801   0.0095202    0.020888    0.025111    -0.51764   -0.042124      0.1362
0.079354   0.0020496   0.0069217   0.0039985    -0.46827    -0.11163    0.073507
0.044924    0.016341  -0.0021729   -0.019063     -0.3809    -0.15873    0.023812
0.022188      0.0433  -0.0067202   -0.041799    -0.23928    -0.19381   -0.011267
0.012443     0.06961   -0.010293   -0.064211   -0.060313    -0.22239   -0.037252
0.014717    0.090397   -0.014516   -0.084349     0.11443    -0.23831   -0.056091
0.023812     0.10306   -0.017439    -0.10124     0.24111    -0.23636   -0.069733
0.032582     0.10859   -0.019712    -0.11131     0.28268    -0.21785   -0.076879
0.034206     0.10664   -0.018413    -0.11683     0.23461    -0.19089   -0.084999
0.025111    0.093321    -0.01614    -0.11683     0.13262     -0.1649   -0.093769
0.0065969    0.065712    -0.01484    -0.11131    0.030308    -0.15126    -0.10579
-0.017764    0.026085   -0.013541   -0.096367   -0.024585    -0.14996     -0.1204
-0.039201   -0.019712   -0.013541   -0.075255  -0.0047713    -0.14249    -0.13957
-0.055441   -0.060313   -0.014191   -0.049595    0.087474    -0.11261    -0.16263
-0.068758    -0.09117   -0.017439   -0.030756     0.21512   -0.061288    -0.18796
-0.075255    -0.10903   -0.027508   -0.026533     0.30997     0.01017    -0.20778
-0.076879    -0.11553   -0.043099   -0.044723     0.32069     0.10014    -0.21167
-0.076879    -0.11683   -0.064211   -0.087597      0.2463     0.19758    -0.19413
-0.08305    -0.11456   -0.087597    -0.14899     0.13944     0.28463    -0.15873
-0.094418    -0.10838    -0.11001     -0.2133    0.072858      0.3353    -0.11813
-0.11196    -0.09994    -0.12398    -0.26657    0.096893     0.33075   -0.084999
-0.13177    -0.09117    -0.12592     -0.2958     0.21447     0.26612   -0.068434
-0.15061   -0.086948    -0.12008     -0.2984     0.38402     0.14951   -0.064211
-0.16425   -0.090196    -0.11131    -0.28313     0.54091 -0.00087364   -0.063561
-0.17335   -0.094418    -0.10221    -0.26137      0.6273    -0.15386   -0.061288
-0.17984   -0.095717   -0.092794    -0.24221     0.60749    -0.27728   -0.054467
-0.18147   -0.092469   -0.081101    -0.22921     0.49738    -0.35849   -0.044073
-0.17659   -0.084349   -0.067459    -0.21914      0.3444    -0.40851   -0.035953
-0.16718   -0.073631   -0.055766     -0.2081     0.20278    -0.44748    -0.03173
-0.15353   -0.066485   -0.053492    -0.19251     0.10209    -0.49393   -0.031081
-0.13567   -0.068109   -0.059339    -0.17724    0.044599     -0.5524    -0.03173
-0.11261   -0.077203   -0.065186    -0.16718    0.013743    -0.60242   -0.034654
-0.084999   -0.085648   -0.065186    -0.16165    0.012119    -0.60274   -0.042124
-0.058689   -0.082076   -0.064536     -0.1636    0.063763    -0.52804   -0.059664
-0.043099   -0.059664   -0.065186    -0.17692     0.20343    -0.37668   -0.081426
-0.04862   -0.023285   -0.065186    -0.19803     0.42527    -0.16815    -0.10416
-0.072331    0.010819   -0.067134    -0.21914     0.68252    0.058566    -0.11813
-0.10546    0.032257   -0.072656    -0.23409     0.89235     0.25995     -0.1204
-0.13794     0.03518     -0.0824    -0.23863      0.9677     0.40806    -0.11553
-0.16588    0.022188   -0.094743    -0.23441     0.85142     0.49511    -0.10189
-0.18082  -0.0024977    -0.10806    -0.22142      0.5487     0.51947   -0.084999
-0.17919   -0.032705    -0.11553    -0.19738     0.12125     0.49868    -0.06616
-0.1649   -0.063886    -0.11228    -0.16393    -0.35167     0.45191   -0.046671
-0.14281   -0.093769    -0.10091     -0.1243    -0.79698     0.40708   -0.027833
-0.123     -0.1204   -0.086298   -0.084999     -1.1731     0.37363   -0.012892
-0.10579    -0.13957   -0.071682   -0.052193     -1.4258     0.33075  -0.0083442
-0.088572    -0.14639   -0.056416   -0.030431     -1.4703     0.24241    -0.01614
-0.070382    -0.13599   -0.043423   -0.021661     -1.2517    0.091047   -0.036927
-0.054467    -0.11293   -0.030431   -0.021012    -0.81192    -0.10481   -0.067459
-0.039201     -0.0824   -0.018738   -0.021337    -0.26657    -0.30229   -0.095068
-0.022311    -0.04992   -0.010943   -0.013866     0.24695    -0.45723    -0.10676
-0.0050961   -0.020037  -0.0047713   0.0036737     0.63315    -0.53258   -0.097341
0.0059473    0.003024      0.0014    0.031282     0.87643    -0.51959   -0.067784
0.0052977    0.012443    0.011469    0.066686      1.0473    -0.44001   -0.027833
-0.007045   0.0049729    0.023162     0.10371      1.2714    -0.33672   0.0095202
-0.026209   -0.015165     0.03583     0.13327       1.615    -0.25098    0.033231
-0.044073   -0.038876    0.051096     0.14886      2.0373     -0.2068    0.037454
-0.054142   -0.059339    0.062464     0.14496      2.4167    -0.20518    0.019264
-0.055116    -0.07428    0.063763      0.1206      2.6161    -0.22889    -0.01549
-0.04862   -0.083375    0.045249    0.077405      2.5317    -0.25617   -0.060963
-0.036278   -0.087922    0.010819    0.024461      2.1403    -0.27079    -0.10709
-0.019388   -0.089871   -0.025884   -0.028482      1.5257    -0.27111    -0.14671
-0.007045   -0.089221   -0.052843   -0.073631     0.83291    -0.27631    -0.17919
-0.0041217   -0.079802   -0.064536    -0.10254     0.22552    -0.30554    -0.19998
-0.011592   -0.053168   -0.062262    -0.11001    -0.17757    -0.36596     -0.2068
-0.021012  -0.0073698   -0.045372   -0.092794    -0.41988    -0.45333    -0.20225
-0.026209    0.048172   -0.016789   -0.059989    -0.65374    -0.55792    -0.19121
-0.020037     0.10014     0.01829    -0.02361    -0.98991    -0.65374    -0.17887
0.0026992     0.13522    0.050771   0.0065969     -1.4125    -0.70538    -0.16458
0.040377     0.14724    0.066686    0.026735     -1.8101    -0.69076    -0.14736
0.092021     0.13197    0.057917    0.037778     -2.1293    -0.62126    -0.12365
0.14951    0.083901    0.029333     0.04395     -2.4285    -0.51927   -0.090196
0.19726    0.009845  -0.0037969    0.050121     -2.7624    -0.40331   -0.042774
0.2187   -0.065835    -0.03173    0.050771     -3.1206    -0.29872    0.021538
0.20018    -0.11163   -0.046022    0.044924     -3.4438    -0.22986    0.099167
0.15146    -0.10546   -0.040825    0.037454     -3.6179     -0.2029     0.18102
0.10631   -0.050894   -0.020362    0.025436     -3.4656    -0.20778     0.25735
0.088124    0.030308    0.003024  0.00042559     -2.8264    -0.21265     0.31971
0.10242     0.10924    0.017965   -0.038551     -1.6882    -0.17627     0.35934
0.13522      0.1664     0.01764   -0.089221    -0.24805   -0.069083      0.3733
0.16543     0.19336   0.0036737    -0.14379      1.1483     0.11313     0.36031
0.17452     0.19239   -0.014191    -0.18439      2.2153     0.33952     0.32328
0.15796     0.16965   -0.025884    -0.19803      2.8526     0.56202     0.26677
0.11833      0.1323   -0.027508    -0.18374      3.0228     0.73611     0.20278
0.060515    0.082277   -0.020687    -0.14606      2.7174     0.84038     0.14367
-0.013541    0.023162   -0.013541    -0.10319      1.9795     0.87058    0.096893
-0.10676     -0.0405   -0.011592   -0.072006     0.92483     0.84655    0.059865
-0.2146    -0.10189   -0.019388   -0.061613       -0.25     0.80075    0.023162
-0.31886    -0.15158   -0.040825   -0.071032     -1.2965     0.75235   -0.019388
-0.40201    -0.18829    -0.07428   -0.096367     -2.0056     0.69974   -0.070707
-0.46632    -0.22467    -0.11845    -0.13762     -2.2424     0.63997    -0.12138
-0.51277    -0.27079    -0.16685    -0.19024     -1.9546     0.58475    -0.15613
-0.52836    -0.31983    -0.21037    -0.24123     -1.1439      0.5526    -0.15841
-0.49393    -0.34355    -0.24091    -0.27891     0.10501     0.55227     -0.1321
-0.41403    -0.31561    -0.25422    -0.30359      1.5374     0.57014   -0.097017
-0.31594    -0.23668    -0.25065    -0.31854      2.8045     0.57598   -0.076554
-0.23538     -0.1321    -0.23376    -0.32048      3.6142     0.54545   -0.082725
-0.18894   -0.036927    -0.20908    -0.30327      3.8403     0.47562    -0.11813
-0.17335    0.023812    -0.18374    -0.26462      3.5454     0.38402    -0.17335
-0.16945    0.041676    -0.16068    -0.21005      2.9559     0.27976    -0.22726
-0.15613    0.029009    -0.13534    -0.15093      2.3179     0.15081    -0.26689
-0.1269   0.0026992    -0.11033   -0.095717      1.7921  -0.0089938    -0.28281
-0.084999   -0.020037   -0.085324   -0.050569      1.4241    -0.17952    -0.27079
-0.043748    -0.03303   -0.062262   -0.015165      1.1811    -0.30847    -0.22856
-0.01549   -0.029782   -0.035953    0.015367      1.0353    -0.34062      -0.161
0.0014   -0.010618  -0.0050961    0.049472     0.96348    -0.26169   -0.082076
0.013418    0.019589    0.030633    0.091047     0.92808    -0.11228  -0.0076946
0.030308    0.057267     0.06896     0.13977     0.89235    0.046873    0.049472
0.063113    0.094945     0.10306     0.19141     0.84103      0.1625    0.083901
0.11476     0.12807      0.1271     0.24111     0.77087     0.20181    0.098517
0.18004     0.15081     0.13879     0.28106      0.6731     0.16608    0.098842
0.25118     0.15828     0.14009     0.31094     0.54513     0.07773    0.095269
0.31776     0.15049     0.13555     0.33173     0.38597   -0.037902    0.092346
0.37201     0.13197     0.12937       0.347     0.17874    -0.17497    0.091047
0.40903     0.11151     0.12418     0.36324   -0.081751     -0.3377    0.092346
0.4217    0.092021      0.1284     0.38045    -0.36856    -0.51797    0.096893
0.39831    0.076755     0.14172     0.39182    -0.63847    -0.69012     0.10404
0.33823    0.063763     0.15536     0.38792    -0.85382    -0.82004     0.10989
0.25248    0.054993     0.15958     0.36681    -0.98569     -0.8824     0.11476
0.16315    0.047523     0.15179       0.334     -1.0383    -0.86681     0.11898
0.090072    0.041351     0.14107     0.29762     -1.0487    -0.77651      0.1245
0.036154    0.036154     0.13035     0.26612     -1.0786    -0.63327     0.12872
-0.00054884    0.033881     0.12483     0.24143     -1.1549     -0.4686       0.131
-0.023285    0.037778     0.12483     0.22552     -1.2407    -0.30554     0.12937
-0.037252    0.046223     0.12937     0.21675     -1.2683      -0.161     0.12288
-0.04115    0.060515      0.1336      0.2148     -1.1929   -0.040175     0.11216
-0.037902    0.074806     0.13782     0.21967     -1.0094    0.048497    0.092996
-0.037577    0.081952     0.13782     0.22779    -0.75313     0.10339    0.068635
-0.046671     0.07708     0.13165     0.23624    -0.48386      0.1271     0.04395
-0.064861    0.058566     0.11995     0.23948     -0.2578     0.13197    0.028684
-0.080451    0.030308     0.10664     0.23624    -0.10903     0.12743    0.024786
-0.083375 -0.00087364    0.089423     0.22747   -0.036927     0.11313    0.030957
-0.064211   -0.025234    0.071883      0.2161   -0.030106    0.080978     0.03518
-0.027183   -0.037902    0.056617      0.2044     -0.0837    0.023487    0.029658
0.016991    -0.04115    0.046548     0.19726    -0.18829   -0.044398    0.015692
0.064088   -0.035303    0.040702     0.19239     -0.3351    -0.10124   0.0039985
0.10924    -0.01549    0.041676     0.18622    -0.50985    -0.12527   0.0020496
0.14951    0.021538    0.050771     0.17712    -0.68524    -0.10871    0.009845
0.18719    0.072533    0.063438      0.1664    -0.82523   -0.056741    0.016341
0.22389     0.13262    0.071883     0.15731    -0.90936    0.015692    0.015042
0.2593     0.18914    0.071234     0.14886    -0.93469    0.092346   0.0088706
0.28463     0.22877    0.065712     0.13717    -0.91423     0.16413   0.0033489
0.29665     0.24338    0.058241     0.12093    -0.86843     0.22097   0.0036737
0.2999     0.23364    0.053694     0.10404    -0.81484     0.25767    0.010495
0.30185     0.20863    0.054019    0.089098     -0.7606     0.27846    0.024137
0.2999     0.18394    0.058566    0.076106    -0.70181     0.30185    0.047523
0.28821     0.17192    0.066362     0.06961    -0.64009     0.34342    0.077405
0.26092     0.16998    0.070909    0.067336    -0.57968     0.40449     0.10144
0.21935     0.16868    0.067986    0.064413    -0.52641     0.46652     0.11248
0.18167     0.15796    0.056617    0.056617    -0.48289     0.50583     0.11248
0.15958     0.12872    0.042001     0.04395    -0.44131     0.50907     0.10599
0.15309     0.08585    0.030308    0.030633    -0.39422     0.48082     0.10014
0.14561    0.047847     0.02641    0.021863     -0.3364     0.43112     0.10079
0.12678    0.024786    0.030957    0.023487    -0.27176     0.35706     0.10404
0.094945    0.018615    0.039078    0.035505    -0.20355     0.23656     0.10469
0.057917    0.023162    0.047523    0.050771     -0.1256    0.051745    0.097218
0.029333    0.029658    0.054668    0.059541   -0.032705    -0.18049    0.081627
0.010819    0.029009    0.056292    0.061489    0.055968     -0.4124    0.065062
-0.0034721    0.010495    0.048172    0.063763     0.11801    -0.58748    0.054668
-0.018413    -0.02361     0.03518    0.071883     0.14367    -0.66803    0.059865
-0.039526   -0.060638    0.024137    0.080978     0.12905    -0.64757     0.07708
-0.066485   -0.082725    0.019589    0.087149    0.068635    -0.54785    0.098193
-0.092469    -0.08305    0.014392      0.0865   -0.042124    -0.39811     0.11216
-0.11196   -0.059989   0.0023744    0.074482    -0.21752    -0.23116     0.10891
-0.11975   -0.018413   -0.013216    0.055318    -0.43157   -0.067134     0.08585
-0.11358    0.030633   -0.021986    0.030957     -0.6258    0.093321    0.049147
-0.096367    0.076755   -0.018738    0.015042    -0.73851     0.25832    0.011794
-0.066485     0.11118  -0.0037969    0.016666    -0.72422     0.42332    -0.01484
-0.027183     0.12937    0.018615    0.031932    -0.55142     0.57631   -0.021661
0.016341     0.13035    0.039727    0.049472    -0.22661     0.70298   -0.008669
0.05207     0.11671    0.047198    0.048822     0.15796     0.79003    0.015692
0.072208    0.094295    0.036479    0.014068      0.3733     0.83128     0.03583
0.075131    0.067011    0.008221   -0.053817     0.17095     0.82576    0.041676
0.066362     0.03583   -0.029782     -0.1334    -0.45593     0.76827    0.034206
0.059865  -0.0011985   -0.067134    -0.19641      -1.226     0.64907    0.017316
0.06084    -0.04862   -0.096367    -0.22661     -1.7967     0.46035  -0.0083442
0.06831    -0.10871    -0.11748    -0.22597     -1.9718      0.2122   -0.037902
0.078379    -0.16912    -0.13112    -0.20713     -1.7665   -0.055116   -0.058365
0.083251    -0.21622    -0.13794    -0.18342     -1.3232    -0.28313   -0.059014
0.073832    -0.23409    -0.14184     -0.1701    -0.79048    -0.42832   -0.033354
0.036154    -0.21525    -0.14346    -0.17367    -0.27209    -0.48776    0.011469
-0.035628     -0.1701    -0.14736    -0.18959     0.17355    -0.48906    0.056942
-0.13372    -0.12235    -0.15451     -0.2107     0.51362    -0.47412    0.080003
-0.24156   -0.092145    -0.15938    -0.23181     0.76924    -0.47639    0.070584
-0.339    -0.09182    -0.16068    -0.24935      1.0077    -0.49036    0.038753
-0.40818    -0.12268    -0.15646    -0.25747      1.2824    -0.49426  -0.0024977
-0.43806    -0.17432    -0.14541    -0.25455      1.6131    -0.48061    -0.04115
-0.43092    -0.23279    -0.13112    -0.24188      1.9697    -0.45528   -0.073955
-0.40331    -0.28638    -0.11488    -0.22142      2.2777    -0.43189    -0.10286
-0.36985    -0.32795   -0.098316    -0.19673      2.4751    -0.41793    -0.12495
-0.33575    -0.35167    -0.08305    -0.17107       2.542    -0.39389    -0.13794
-0.29645    -0.34809   -0.073306    -0.14249      2.4865    -0.34225    -0.14639
-0.24578    -0.30814   -0.068109    -0.11715      2.3312    -0.26332    -0.15418
-0.18731    -0.23441    -0.06681    -0.10546      2.1016     -0.1753    -0.16295
-0.13534    -0.14152    -0.06681    -0.11228      1.8489    -0.11033     -0.1753
-0.098641    -0.04992   -0.065835    -0.13112      1.6115   -0.095393    -0.19089
-0.084024    0.022188   -0.064861    -0.15256      1.3682    -0.13957    -0.20485
-0.085324    0.066362   -0.064536    -0.16815       1.031    -0.23214    -0.21265
-0.091495    0.087799   -0.066485    -0.18212     0.52239    -0.34939     -0.2146
-0.088572    0.094945   -0.072331    -0.19738     -0.1714    -0.44813    -0.21005
-0.072656    0.099492   -0.084349    -0.21102    -0.97465    -0.48321    -0.19641
-0.052843     0.10631   -0.094743    -0.21492     -1.7509    -0.43287     -0.1753
-0.037577     0.11411    -0.09929     -0.2081     -2.3801    -0.30652    -0.14541
-0.03303      0.1219   -0.094418    -0.19154     -2.8036    -0.13275    -0.10838
-0.035303     0.12937   -0.084674    -0.16945     -3.0034    0.049796   -0.072006
-0.03238     0.12678   -0.072981    -0.14931     -2.9716      0.2057   -0.046347
-0.017114     0.10664   -0.064211    -0.13859     -2.6958     0.31906   -0.037902
0.0046481    0.069934   -0.061613    -0.14249     -2.1738     0.39604   -0.045372
0.022837    0.022837   -0.064211    -0.15938     -1.5051     0.44119    -0.06616
0.029333   -0.023935   -0.069408    -0.18536    -0.90027     0.45353   -0.092469
0.022512   -0.062262    -0.07428    -0.20843    -0.57221     0.41456    -0.11228
0.0072465   -0.086298   -0.078178    -0.21979    -0.56117      0.2947    -0.12235
-0.0067202   -0.092469   -0.077853    -0.21297    -0.65601    0.082927     -0.1204
-0.013866   -0.085648   -0.070382    -0.18666    -0.54817    -0.19478    -0.10676
-0.018738   -0.073955   -0.054467    -0.14639   -0.051868    -0.48776   -0.084674
-0.022636   -0.062912   -0.033679    -0.10351     0.75203    -0.74208   -0.063886
-0.030106   -0.059014   -0.017114   -0.073306      1.5595    -0.92333   -0.055441
-0.045697   -0.065835  -0.0080194    -0.06551      2.0688      -1.013    -0.06616
-0.072656   -0.079802   -0.007045   -0.073306      2.1266     -1.0016   -0.095068
-0.10936   -0.094093  -0.0083442     -0.0824      1.8187     -0.8811    -0.13015
-0.14184    -0.10189  -0.0067202   -0.076229      1.3997    -0.67063    -0.15873
-0.15158   -0.097666  -0.0011985    -0.04992       1.082    -0.42052    -0.16945
-0.1295   -0.082725    0.008221  -0.0050961     0.91021    -0.18212    -0.15581
-0.084024   -0.064211    0.021213    0.050446     0.81602    0.011144    -0.11715
-0.032055   -0.046022    0.036154     0.10761     0.73157     0.15341    -0.06616
0.0088706   -0.022961    0.054344     0.15763     0.63575     0.26774   -0.018738
0.030957    0.009845    0.071558     0.19401     0.54773     0.39149    0.012768
0.040702    0.054344    0.083251      0.2148     0.51037     0.53668    0.025436
0.047847     0.10371    0.087474      0.2161        0.55     0.68512    0.022837
0.065712     0.14074    0.083251     0.20246     0.65102     0.80627    0.015692
0.093645     0.15049     0.06896     0.17972      0.7673     0.86896    0.012119
0.1219     0.13002    0.046223     0.15536     0.85045     0.86376    0.020564
0.14432    0.090397    0.024137     0.13457     0.86246     0.80562    0.043625
0.15536    0.050771   0.0085458      0.1219     0.79036     0.72962    0.073832
0.15081     0.02706   0.0043233     0.11671     0.65491     0.67375    0.098193
0.13555    0.024786    0.009845     0.11768     0.50518     0.64842     0.10859
0.12093    0.040702    0.022837     0.12418     0.40156     0.63283     0.10956
0.11573    0.063763    0.041676     0.13555     0.36811     0.60327     0.11313
0.12483    0.083251    0.063438     0.15373     0.37363      0.5461     0.13165
0.14334    0.093321    0.084551     0.18394     0.34667      0.4571     0.17387
0.16575    0.096244     0.10274     0.22714     0.21967     0.31094     0.23234
0.18654    0.096569     0.11671     0.28138   -0.018088    0.080003     0.29405
0.20246    0.099817     0.12872      0.3366    -0.32795    -0.22597     0.34797
0.21382     0.10924     0.14009      0.3824    -0.68622    -0.54882     0.38727
0.2187     0.12613     0.15114     0.41033     -1.0724    -0.81906     0.40611
0.2161     0.14107     0.15666     0.41098     -1.4531    -0.99349     0.39831
0.20246     0.14432     0.15179      0.3785     -1.7772     -1.0549     0.36876
0.18004     0.12872     0.13717     0.32166     -1.9858      -1.011     0.32101
0.15341    0.095594     0.11671       0.258     -2.0085    -0.88532     0.26579
0.12548    0.053694    0.095594     0.19921     -1.7997     -0.7135      0.2109
0.10014    0.010819     0.07773     0.15016     -1.3985    -0.53973     0.16088
0.083251   -0.024909    0.060515     0.11248    -0.90221    -0.41078     0.11313
0.07773   -0.045047    0.041676    0.081627    -0.38187    -0.35621    0.067011
0.084876   -0.043748    0.024461    0.052395     0.15438    -0.36206    0.019914
0.094295   -0.022311    0.012443    0.016341     0.76632    -0.37992   -0.032055
0.092996    0.011144   0.0017248   -0.034654      1.4962    -0.36011   -0.088572
0.07773    0.047523    -0.01484   -0.098965      2.2624    -0.27728    -0.13957
0.047198    0.076755   -0.038227    -0.16588      2.8584    -0.13177    -0.16945
0.0085458    0.091372   -0.064536    -0.22109      3.0656    0.050771    -0.17205
-0.034978    0.090722   -0.088247    -0.25487      2.7613     0.23851    -0.15386
-0.081426    0.076106    -0.10254    -0.26592      1.9782     0.40708    -0.12333
-0.13307    0.050446    -0.10546    -0.26332     0.86474     0.55065   -0.089221
-0.18309    0.023487   -0.093769    -0.25552    -0.33315     0.66173   -0.058689
-0.21492   0.0075714   -0.071357    -0.24773     -1.2692     0.72864   -0.035628
-0.21557   0.0078962   -0.046347    -0.23538     -1.6931     0.73352   -0.025234
-0.18796    0.024461    -0.02426    -0.21037     -1.5892     0.66628   -0.028157
-0.14022    0.046873   -0.007045    -0.16945     -1.1549     0.53961   -0.042449
-0.084999    0.058566    0.008221    -0.11748     -0.6362     0.37753   -0.058689
-0.03238    0.050121    0.016016   -0.064536     -0.2016     0.20051   -0.066485
0.0095202    0.016666    0.015692   -0.012242    0.093645    0.031282    -0.06551
0.034206   -0.040175     0.01017    0.039727     0.27424    -0.10481   -0.057065
0.044599    -0.11163 -0.00022403    0.092996     0.35219    -0.17692   -0.044398
0.053694    -0.18049   -0.010293     0.14399     0.32458    -0.16653   -0.028157
0.068635    -0.22597   -0.012892     0.18881     0.21123   -0.082725  -0.0099683
0.084551    -0.23181  -0.0034721     0.21902    0.057917      0.0433      0.0014
0.086824    -0.19348    0.013418     0.22747    -0.07428     0.17582  -0.0024977
0.059216    -0.12722    0.029983      0.2057    -0.10903     0.29665   -0.017114
0.0020496   -0.053817    0.039078     0.15828  -0.0031473     0.40546   -0.033354
-0.068434   0.0033489    0.037454    0.097868     0.21675     0.49413   -0.038227
-0.12982    0.027385    0.025111    0.039727     0.45353      0.5513   -0.030431
-0.16912     0.01829   0.0052977  -0.0037969     0.59125     0.56592   -0.015815
-0.18114   -0.012567    -0.01614   -0.029782     0.56689     0.53993      0.0014
-0.17075   -0.045047   -0.035303   -0.043748     0.38727     0.49901     0.01829
-0.14476   -0.065835   -0.044073   -0.047971    0.095594     0.48601    0.035505
-0.11131   -0.072331   -0.043423   -0.044398    -0.23571     0.52986    0.052395
-0.077203   -0.063561   -0.039526   -0.034978    -0.53128     0.61918    0.068635
-0.052518    -0.04115   -0.030106   -0.020037    -0.75345     0.70331    0.083576
-0.041799  -0.0041217   -0.015165  -0.0028225    -0.90416     0.72929    0.094945
-0.042124    0.039727      0.0014    0.016016     -1.0032     0.67115     0.10859
-0.044723    0.072858    0.014392    0.036479     -1.0737      0.5435     0.13132
-0.040825    0.083576    0.022512     0.06019     -1.1231     0.38435     0.16153
-0.034004     0.07708     0.02641    0.084551     -1.1572     0.23494     0.19076
-0.033679    0.065712    0.025761     0.10404      -1.204     0.10599     0.20213
-0.044398    0.058566    0.022837     0.11476     -1.2751   -0.025559     0.18232
-0.061613    0.059216    0.020239     0.11183      -1.329    -0.18179     0.13295
-0.075255    0.061489    0.018615    0.098842      -1.303    -0.36758    0.061814
-0.079477    0.056942    0.016341    0.081952     -1.1621    -0.56766   -0.013216
-0.070382    0.042651   0.0085458    0.061165    -0.93112    -0.75183   -0.080127
-0.045697     0.02641  -0.0028225    0.045899    -0.67355    -0.88857     -0.1321
-0.0047713    0.014717  -0.0099683    0.040702    -0.45495    -0.94834     -0.1636
0.047523    0.010495  -0.0060706    0.046223    -0.30684    -0.92625    -0.17465
0.10242    0.014068    0.008221    0.056942    -0.22889      -0.834    -0.17107
0.14886    0.024461    0.025436    0.067011    -0.20063    -0.69856      -0.161
0.17225    0.040377    0.039078    0.071883    -0.19608    -0.54655    -0.14866
0.1651     0.05272    0.042975    0.070259    -0.19576    -0.39941    -0.13632
0.13165    0.064088    0.036154    0.065387    -0.19089    -0.26916      -0.123
0.081627    0.073507     0.02641    0.063113    -0.17952    -0.16718    -0.10774
0.029009    0.084551    0.022188    0.064413    -0.16133   -0.094743   -0.090845
-0.016464     0.09397    0.027709    0.066362    -0.13632   -0.051219    -0.07428
-0.044723    0.095594    0.038103    0.067661    -0.10806   -0.028807   -0.058365
-0.056741    0.087474    0.045574    0.065387   -0.078178    -0.01549   -0.045697
-0.059014    0.066686    0.044599    0.057267    -0.04862 -0.00022403   -0.034654
-0.056741    0.037129    0.033231    0.045249   -0.016464    0.024137   -0.016789
-0.05804   0.0046481    0.015692    0.031282    0.019264    0.053369    0.012768
-0.064861   -0.025234  -0.0018481    0.018615    0.058566    0.082602    0.050446
-0.070707   -0.046671   -0.015815   0.0069217    0.093321     0.10794    0.090072
-0.070058   -0.054467   -0.024585  -0.0031473     0.11931     0.11995     0.12515
-0.062912   -0.048296   -0.028482  -0.0089938     0.14139     0.10404     0.14561
-0.052193   -0.034329   -0.029457   -0.014191      0.1638    0.056942     0.14626
-0.044073   -0.024585   -0.029132   -0.022311     0.18719   -0.010943      0.1258
-0.038227   -0.023285    -0.03238    -0.03173     0.20538   -0.079802    0.091696
-0.031081   -0.021986   -0.037252   -0.040175     0.21382    -0.13047    0.054993
-0.017764   -0.012892   -0.039526   -0.043748     0.20928    -0.15321    0.021538
0.00010078   0.0072465   -0.037252   -0.039526     0.18751    -0.15093  -0.0047713
0.016016     0.03453   -0.029457   -0.032055     0.14204    -0.13794   -0.018738
0.02706     0.06019   -0.019063   -0.022636    0.074806    -0.12333   -0.019063
0.028684    0.076106  -0.0093186   -0.015165  -0.0044465    -0.11131   -0.011592
0.023487    0.076755  -0.0034721  -0.0089938   -0.076229    -0.10254  -0.0034721
0.013418    0.062464 -0.00022403  -0.0050961    -0.12203   -0.092794   0.0033489
0.00075039    0.041676  0.00075039  -0.0080194    -0.13599   -0.078827   0.0095202
-0.011592    0.019589  -0.0037969   -0.013541    -0.11975   -0.059339    0.015367
-0.029132  -0.0018481   -0.011917   -0.017764   -0.080451   -0.036602    0.018615
-0.048945   -0.021986   -0.016464   -0.015165   -0.030431   -0.011267    0.019264
-0.063237   -0.035628   -0.013866  -0.0080194    0.021538    0.014068    0.016341
-0.066485   -0.040825  -0.0067202 -0.00087364    0.070259    0.035505    0.011469
-0.058689   -0.036602   0.0010752   0.0026992     0.10826    0.044924   0.0065969
-0.042124   -0.025559   0.0036737   0.0010752     0.13035    0.037129  -0.0021729
-0.023285   -0.012567   0.0036737  -0.0044465     0.13132    0.011794   -0.020687
-0.0044465  -0.0015233 -0.00022403   -0.012242     0.11411   -0.030431   -0.047321
0.013418    0.003024  -0.0076946   -0.017114     0.10079   -0.081751    -0.07428
0.032257   0.0023744   -0.018413   -0.016464     0.13684    -0.13047   -0.094418
0.049147  -0.0018481   -0.026858   -0.010943      0.2528    -0.16328    -0.10806
0.061165  -0.0060706   -0.029457  -0.0024977     0.44086    -0.17432    -0.11456
0.067011   -0.010618   -0.026533    0.008221     0.65914    -0.16523    -0.11618
0.073507   -0.018738   -0.021661    0.019589     0.85922    -0.13924    -0.11033
0.088773    -0.03238   -0.021012    0.032906      1.0008    -0.10026   -0.097666
0.11541   -0.043423   -0.022636    0.046873      1.0664   -0.044723   -0.080451
0.13977   -0.046022   -0.021012    0.053694      1.0505    0.026735   -0.062262
0.14756   -0.030106   -0.018088    0.046548     0.91768     0.10501   -0.046022
0.13262  0.00075039   -0.017439    0.023812     0.67115     0.17907   -0.032055
0.096893    0.036154   -0.018088   -0.012567     0.38467     0.23624   -0.019063
0.04395    0.067011   -0.017439   -0.056741     0.13977     0.26449   -0.013866
-0.021012    0.082277   -0.015165   -0.097017   -0.057065     0.24598   -0.022961
-0.086948     0.07708   -0.014191     -0.1217    -0.28248     0.16056   -0.042774
-0.14119    0.055318   -0.015815    -0.12982    -0.60696    0.016016   -0.063886
-0.174    0.026085   -0.018413    -0.12722     -1.0555    -0.15418   -0.076554
-0.18731 -0.00054884   -0.015815    -0.11748     -1.5889    -0.30262   -0.072331
-0.18147   -0.021012   -0.010618    -0.10449     -2.0855    -0.40558   -0.051219
-0.1597   -0.033354  -0.0054209   -0.090196     -2.3723    -0.46665   -0.021337
-0.11943   -0.043099  -0.0028225   -0.079152     -2.2963    -0.50173   0.0065969
-0.060963   -0.050569  -0.0044465   -0.069083     -1.8211    -0.51927    0.028034
0.009845   -0.048296   -0.010943   -0.059989     -1.0263    -0.51829    0.042975
0.089098   -0.026209   -0.017439   -0.047646   -0.085973    -0.48646    0.048172
0.17387    0.019914   -0.021012   -0.034329     0.77054     -0.4137    0.046223
0.25897    0.080328   -0.019388   -0.025234      1.3584     -0.2997    0.037778
0.33465       0.131   -0.016789   -0.026858      1.6017    -0.16263    0.027385
0.3889     0.15731   -0.015815   -0.044073      1.5283   -0.024909    0.020239
0.40936     0.15536   -0.015165   -0.072981      1.2451    0.090397    0.013093
0.39312      0.1271   -0.015165    -0.10449     0.88585      0.1664   0.0017248
0.3457    0.079679    -0.01549    -0.12495     0.57144     0.19856  -0.0093186
0.27359    0.024137   -0.014516     -0.1295     0.36096     0.19044   -0.016789
0.18751   -0.027183   -0.012892    -0.11878     0.23396     0.15406   -0.021012
0.10079    -0.06681  -0.0089938   -0.094093      0.1349     0.10924   -0.020687
0.025436   -0.096367  -0.0037969   -0.062262    0.045899    0.072533   -0.016789
-0.034004    -0.12268  -0.0028225   -0.034654   0.0078962    0.048172   -0.017114
-0.077528    -0.14964  -0.0089938   -0.027508    0.088773    0.028359   -0.027508
-0.10189    -0.17562   -0.022636   -0.046996     0.34245   0.0056225   -0.051219
-0.10514    -0.19641   -0.041799   -0.087597     0.74423   -0.021337   -0.081426
-0.090196    -0.20323   -0.063561    -0.13177      1.1863    -0.04862    -0.10579
-0.067134    -0.18536   -0.080776    -0.16328      1.5332   -0.069083    -0.11066
-0.048945    -0.14411   -0.087272     -0.1714      1.6933   -0.065186   -0.084349
-0.042124   -0.091495   -0.080451    -0.15613       1.655    -0.02426   -0.023285
-0.039526   -0.046996    -0.06551    -0.12138       1.476    0.050446    0.057917
-0.043423    -0.02426   -0.052193   -0.082725      1.2399     0.13684     0.13522
-0.060313   -0.029132   -0.039851   -0.050244      1.0103      0.2057     0.18589
-0.10189   -0.056741   -0.026533   -0.024585     0.81667     0.24013     0.19823
-0.16912   -0.094093   -0.012242  0.00010078     0.66271     0.24403       0.169
-0.25292      -0.123 -0.00022403    0.025111      0.5565     0.23071     0.10924
-0.3338    -0.13242   0.0075714    0.051096     0.49088      0.2109    0.045574
-0.38869    -0.12365    0.010819    0.076431     0.44801     0.19434   0.0062721
-0.40786    -0.10026    0.012443     0.10144     0.40838     0.19271   0.0043233
-0.39194   -0.066485    0.016991     0.12483     0.36064     0.21317    0.037454
-0.35491   -0.032055     0.02641     0.14269     0.29113      0.2502      0.0865
-0.31009  -0.0047713    0.040377     0.15341     0.19336     0.28723     0.13295
-0.26819   0.0069217     0.05142     0.16023    0.080978     0.30087     0.16088
-0.22597   0.0017248     0.05207     0.16673   -0.024585     0.27879     0.15828
-0.18471   -0.011592    0.044924      0.1716    -0.10384     0.22357     0.12548
-0.14964   -0.020687    0.034855     0.17355    -0.15126     0.14724    0.070909
-0.12398   -0.019063     0.02641     0.17127    -0.20453    0.055968    0.012119
-0.11001   -0.010618    0.024461      0.1625    -0.36011    -0.04992    -0.03303
-0.10384  -0.0041217    0.033231     0.14789    -0.69271      -0.174   -0.059339
-0.09994  -0.0063954    0.050771      0.1284     -1.1231    -0.31431   -0.074605
-0.09117   -0.012242    0.066686     0.10599     -1.4544    -0.45983   -0.084024
-0.074605  -0.0073698    0.072858     0.07708     -1.5197    -0.59397   -0.094093
-0.04992    0.015042    0.065387    0.039402     -1.2738    -0.69012    -0.11001
-0.016789    0.047198    0.041676  -0.0024977    -0.80672    -0.71772    -0.12657
0.031607    0.077405   0.0059473     -0.0405    -0.28151    -0.66413    -0.13534
0.096569    0.098193   -0.034978   -0.068109     0.14172    -0.53713    -0.13112
0.16673     0.10794   -0.068758   -0.081101      0.3798    -0.35296    -0.10968
0.22747     0.10501   -0.083375   -0.083375     0.44639    -0.14119   -0.076229
0.26709    0.094945   -0.080776   -0.077853     0.40676     0.06961   -0.035953
0.28463    0.083576   -0.063561   -0.066485     0.31257     0.25183   0.0046481
0.28658    0.073507   -0.038876   -0.050894     0.13522     0.39182    0.040377
0.27619    0.064413   -0.015165   -0.035628     -0.2172     0.47432    0.067661
0.25085    0.054668  -0.0028225   -0.027183    -0.74988     0.49576    0.090722
0.20473    0.044924  -0.0041217   -0.027508     -1.2796      0.4727     0.10826
0.13912    0.042326   -0.016464    -0.03303     -1.5661     0.42917     0.11541
0.061814    0.050446   -0.030106   -0.036278     -1.4742     0.39442     0.10891
-0.0060706    0.072208   -0.037252   -0.028482     -1.0263     0.39409    0.099492
-0.04115     0.10501   -0.028157  0.00010078    -0.31821     0.44736     0.10599
-0.034329     0.14074  -0.0024977     0.05207     0.52921        0.55     0.14334
0.011469     0.17225     0.03453     0.11801      1.3555      0.6796     0.21058
0.0852     0.19174     0.06961     0.18232      1.9811     0.80497     0.28366
0.17225     0.19531     0.09397     0.23526      2.2608     0.90664     0.33693
0.25248     0.18719     0.10956     0.27067      2.1269      0.9664     0.35739
0.31289     0.17387     0.11866     0.28918      1.5303     0.95374      0.3444
0.34505      0.1638     0.12125     0.29503     0.44184     0.82641     0.30347
0.34797     0.15666     0.11443     0.28723     -1.0682     0.55292     0.23851
0.32198     0.14561    0.097543     0.26482     -2.7461       0.169     0.15926
0.27684     0.13035     0.07708     0.22909     -4.3361    -0.21037    0.083576
0.22357     0.11638    0.057917      0.1781     -4.9695    -0.46892    0.021863
0.16998     0.11281    0.042001     0.11541     -4.9695    -0.56636   -0.018738
0.12158     0.11963    0.031607    0.050121     -4.9698     -0.5472   -0.041799
0.080653     0.13002    0.025436  -0.0067202     -4.9698    -0.49133   -0.054142
0.046223     0.13457    0.026735   -0.046347     -4.4059    -0.45268   -0.066485
0.01829       0.131    0.031607    -0.06551     -2.7442    -0.45788   -0.081751
-0.0050961     0.11606    0.029658   -0.072981     -1.0188    -0.52024    -0.10806
-0.029782    0.087799    0.014717   -0.085973     0.43209    -0.63717    -0.15029
-0.059014      0.0433   -0.014516     -0.1178       1.387    -0.78269    -0.20323
-0.09117   -0.010293   -0.055441    -0.17042      1.8947    -0.91131    -0.24838
-0.12495   -0.062912    -0.10416    -0.23311      2.1107    -0.97627    -0.27209
-0.15905    -0.10838    -0.14931    -0.28898      2.1958    -0.96165    -0.27111
-0.18861    -0.14444    -0.18082    -0.32146      2.2552    -0.87948    -0.25292
-0.20583     -0.1727    -0.19446    -0.32698       2.326     -0.7554    -0.22856
-0.21005    -0.19868    -0.18894    -0.31269      2.3709    -0.62061    -0.20875
-0.21037    -0.22272    -0.16912    -0.28963      2.3059    -0.49978    -0.19868
-0.21232    -0.23668    -0.14281    -0.26429      2.0789    -0.40851     -0.2016
-0.21037    -0.23474    -0.11651    -0.23701      1.7021    -0.34809    -0.21167
-0.19673    -0.21882   -0.093769    -0.21362        1.25    -0.30067    -0.22467
-0.16425    -0.19641   -0.079477    -0.19219     0.81764    -0.24286    -0.23961
-0.11358    -0.17627   -0.072656     -0.1727     0.49933    -0.16328     -0.2526
-0.04927    -0.15516    -0.06551    -0.15256     0.35869   -0.064211    -0.25715
0.017316    -0.12008   -0.050569    -0.13437     0.38662    0.045249    -0.24708
0.081952   -0.062587   -0.031081    -0.10806     0.50713     0.15016    -0.22012
0.14789   0.0095202  -0.0099683   -0.064536     0.61334     0.23591    -0.17627
0.2135    0.074806   0.0088706  -0.0099683     0.61788      0.2921    -0.12073
0.26579     0.11411    0.024137    0.041027     0.51395     0.31062   -0.065835
0.28236     0.11054    0.031282    0.078379     0.37655      0.2934   -0.021337
0.24988    0.070909    0.030308     0.10534     0.30737     0.25507    0.014392
0.17517    0.012443    0.030957     0.13067     0.35576     0.21252    0.046223
0.070909   -0.044073    0.032906     0.15731     0.48536     0.18232    0.071883
-0.042449   -0.086623    0.035505     0.18557      0.5984     0.17095    0.085525
-0.15061    -0.10481    0.042001     0.20928     0.60587      0.1755    0.091696
-0.23993   -0.090521    0.054344     0.22747     0.48439     0.18751    0.090722
-0.29288   -0.046671    0.071558     0.24143     0.27229     0.20376    0.083901
-0.30359     0.01017    0.088773     0.25378    0.036804     0.22682    0.072533
-0.27696    0.054019    0.096893     0.26319    -0.16328      0.2554    0.057917
-0.22142     0.06961    0.092021     0.26319    -0.28898     0.28756    0.042975
-0.14249    0.067011    0.078055     0.25605    -0.31951     0.32946    0.037129
-0.047971    0.068635    0.063113     0.24663    -0.24091     0.39052    0.050771
0.050771    0.082277    0.056617     0.23851   -0.054467     0.46782     0.08585
0.1362    0.096244    0.056617     0.22877     0.20278     0.54708      0.1349
0.18784    0.092671    0.056942     0.21123     0.44834     0.60294     0.17972
0.19304    0.061489    0.050771     0.18037     0.58475     0.61074     0.20343
0.15503    0.009845    0.041027     0.13717     0.56657     0.55032     0.20116
0.092346   -0.044073    0.028684    0.088448     0.43957     0.40903      0.1716
0.029333   -0.085324    0.015367    0.038753     0.33205     0.19661     0.12093
-0.020362    -0.10254  0.00075039  -0.0067202     0.38922   -0.045697    0.066362
-0.053817   -0.098316    -0.01614   -0.038551     0.66368    -0.25617    0.026735
-0.071032   -0.081101   -0.036602   -0.051544      1.0499    -0.37798     0.01894
-0.073306   -0.055766   -0.052518   -0.042449      1.3601     -0.3822     0.04395
-0.063886   -0.021986   -0.051868   -0.011592      1.4351    -0.27988    0.090397
-0.044723    0.019589   -0.029782    0.034855      1.2272    -0.11358     0.13912
-0.022636    0.061489   0.0059473      0.0865      0.8066    0.063438     0.17647
-0.0031473    0.094295      0.0433     0.13002     0.31744     0.20376     0.19271
0.0091954     0.10729     0.06896     0.15373   -0.094418     0.28723     0.18589
0.012119    0.095919    0.074157     0.15406    -0.35361     0.31516     0.15763
0.011144    0.063763    0.062139     0.13522     -0.4647     0.30282     0.11703
0.012443    0.020239    0.041351     0.11476    -0.48224     0.27132    0.078055
0.020239   -0.021337     0.02706     0.10306    -0.47055     0.23624     0.05207
0.034855   -0.048296    0.027709     0.10794    -0.47769     0.20213    0.039402
0.050121   -0.054792    0.044599      0.1271    -0.51959      0.1677     0.03453
0.059216   -0.043099    0.070909     0.14724    -0.56636     0.13002    0.029333
0.054019    -0.02361    0.095269     0.15406    -0.58033    0.087799     0.01894
0.036154   -0.007045     0.10599     0.13814    -0.55435    0.045574   0.0088706
0.012119   0.0039985    0.098842     0.10371    -0.49458    0.019264   0.0033489
-0.011917    0.011144    0.079354     0.06084    -0.36401    0.034206   0.0062721
-0.030431    0.015367    0.055643    0.017316    -0.11261      0.1206   0.0091954
-0.035953    0.014068    0.034206   -0.016464     0.27911     0.28463   0.0072465
-0.029782    0.011469    0.018615   -0.034329     0.75593     0.49153  -0.0060706
-0.020362    0.009845    0.011469   -0.036927      1.1934     0.67538   -0.026209
-0.017114    0.012768    0.013418   -0.026209      1.4416      0.7543   -0.046022
-0.020687    0.022837    0.020564  -0.0034721      1.3977     0.67375   -0.063886
-0.024585    0.038103     0.02641    0.027709      1.0116     0.42755   -0.075255
-0.02361    0.053044    0.030308    0.063438     0.35869    0.061165   -0.075904
-0.017114    0.067011    0.037778    0.098517    -0.33835     -0.3325   -0.063561
-0.0083442    0.083576    0.051096     0.12093    -0.85674    -0.67712   -0.042449
-0.0054209    0.097868    0.057592     0.11313     -1.1055    -0.95126   -0.027183
-0.015815     0.10371    0.046873    0.057592     -1.1799     -1.1692   -0.036602
-0.039526    0.092671     0.01894   -0.047971      -1.241     -1.3449   -0.075579
-0.072006    0.063113   -0.018088    -0.18049     -1.3232     -1.4589    -0.12657
-0.10481    0.016016   -0.050894    -0.30327      -1.344     -1.4697    -0.16165
-0.1295     -0.0405   -0.072331    -0.38674     -1.2478     -1.3504     -0.1649
-0.14119   -0.095068   -0.084999     -0.4228     -1.0714      -1.128    -0.13957
-0.13827    -0.13827   -0.098965    -0.42215    -0.87493     -0.8759    -0.10741
-0.12073    -0.16912    -0.12138    -0.40851    -0.68102    -0.66998   -0.087272
-0.088896    -0.18959    -0.14899    -0.39422    -0.48094    -0.53518   -0.084999
-0.048945    -0.20193     -0.1727    -0.37895    -0.27144    -0.44911    -0.10026
-0.0083442    -0.20225    -0.18147    -0.35751   -0.057715    -0.36109    -0.12365
0.026085    -0.18277    -0.17627    -0.33185     0.14464    -0.23311    -0.14801
0.054993    -0.14346     -0.1636    -0.30587     0.31127   -0.056741    -0.16393
0.081303   -0.092794    -0.14931    -0.28346     0.38532     0.15341    -0.16523
0.11183   -0.042774    -0.13632    -0.26267     0.28691     0.37753    -0.14899
0.14854  0.00010078     -0.1269    -0.23863   0.0017248     0.58898    -0.11553
0.18784    0.035505     -0.1204    -0.20485    -0.37018     0.75528   -0.066485
0.21512    0.061814    -0.11423     -0.1688    -0.67258     0.84103  -0.0096434
0.21675    0.078379   -0.099615    -0.13307    -0.79698     0.82381     0.04395
0.18946    0.083576   -0.073306   -0.094743    -0.72714      0.7124    0.087474
0.14074     0.07773   -0.042124   -0.052193    -0.52446     0.55422     0.11833
0.082602    0.064413   -0.013541  0.00042559    -0.29807      0.4282     0.13522
0.029009    0.048172   0.0072465    0.054993    -0.14834     0.39117     0.13587
-0.012242    0.033881    0.022512    0.099817     -0.1178     0.43924     0.12548
-0.038876    0.026735    0.033556     0.12807    -0.18601     0.52466     0.11638
-0.054142    0.031607    0.042975     0.14172    -0.30035     0.59352     0.12255
-0.059014    0.046548    0.054344     0.14659    -0.41663     0.60717     0.14821
-0.054142    0.064088    0.066037     0.15503    -0.51927     0.55909     0.18719
-0.04115    0.074806    0.072533     0.16803    -0.60924     0.45256     0.22617
-0.02426    0.074157    0.071234     0.18362    -0.66446      0.2908     0.24598
-0.011267     0.06019    0.061489     0.19661    -0.63945     0.08585     0.23591
-0.0080194     0.03453    0.048172      0.2057    -0.49978    -0.13502     0.19758
-0.017764   0.0020496    0.032257     0.20733    -0.26884     -0.3377     0.14464
-0.038551   -0.032055    0.016341     0.19434   -0.034329    -0.48711    0.091047
-0.06616   -0.061288   0.0010752     0.16218     0.14789     -0.5537    0.051096
-0.093119   -0.075904   -0.012567     0.11508     0.28561    -0.53128    0.031607
-0.11326    -0.07428   -0.021337    0.065062     0.41715    -0.44618    0.030308
-0.1217   -0.059014   -0.028482    0.024137     0.58475    -0.33575    0.044599
-0.11553    -0.04115   -0.033679 -0.00087364     0.78419    -0.23246    0.067661
-0.097017   -0.029782   -0.039526   -0.015165     0.91671    -0.16035    0.089423
-0.072981   -0.029457   -0.042774   -0.026209      0.8917    -0.13372    0.096569
-0.051219   -0.030756   -0.041475   -0.038227     0.68415    -0.15288    0.080328
-0.034654   -0.018413   -0.034978   -0.051868     0.32134    -0.19089    0.042651
-0.018413    0.011144   -0.025884   -0.060313    -0.11975    -0.21492  -0.0031473
0.0026992    0.053694   -0.017439   -0.056416    -0.54785    -0.20713   -0.042124
0.029333     0.09462  -0.0093186   -0.036602    -0.88727    -0.17562   -0.070382
0.051096     0.11606  -0.0024977  -0.0044465     -1.0701    -0.13989   -0.088572
0.059865     0.11281  0.00075039    0.028684     -1.0295     -0.1178    -0.10221
0.051745    0.087799 -0.00054884    0.050771    -0.75865    -0.10936    -0.11261
0.033231    0.054019  -0.0041217    0.058891    -0.33283    -0.10774    -0.12138
0.016016    0.023812  -0.0076946    0.061489     0.11833   -0.097991    -0.12495
0.0065969   0.0072465  -0.0089938    0.066037     0.46717    -0.06551    -0.11618
0.0046481   0.0046481  -0.0083442    0.072208      0.6338   -0.008669   -0.094093
0.0059473    0.010819  -0.0076946    0.078379     0.58475    0.055318   -0.068109
0.0075714    0.016341  -0.0050961    0.080003     0.32751     0.10306   -0.050244
0.011794    0.017965   0.0010752    0.073832   -0.086623     0.11411   -0.044398
0.019589    0.016016    0.010495    0.062789    -0.51245    0.082602   -0.052193
0.026735    0.016341    0.019264    0.049472    -0.74728    0.020888   -0.070382
0.029009    0.022188     0.02706     0.04395    -0.67225    -0.04992   -0.093444
0.023487    0.034206    0.038103    0.050121    -0.31886    -0.11423    -0.11391
0.014717    0.050771    0.049147    0.065062     0.20116    -0.15516     -0.1243
0.0085458    0.062789    0.056942    0.084551     0.75235    -0.15776    -0.12755
0.0046481    0.067336    0.061814    0.099492       1.209    -0.11326    -0.12527
-0.0031473    0.067336    0.060515     0.10079        1.45   -0.029782    -0.11651
-0.022311     0.06019    0.053044    0.087799      1.3581     0.06961   -0.096367
-0.056416    0.049796    0.042326    0.064737     0.90339     0.15309   -0.066485
-0.10221     0.03583    0.030633    0.035505     0.20635     0.19758   -0.038551
-0.14411    0.020239    0.021213   0.0085458    -0.52219     0.19271    -0.02426
-0.1649    0.008221    0.013743   -0.011592      -1.051     0.14821   -0.024585
-0.15873   0.0020496   0.0078962   -0.021661     -1.2442    0.088124   -0.037252
-0.13177   0.0046481   0.0078962   -0.024909     -1.1143    0.038428   -0.054467
-0.097991    0.014392    0.012119   -0.026858    -0.79893    0.010495   -0.075255
-0.072006    0.021863    0.010819   -0.031081    -0.46632   0.0017248   -0.096692
-0.05739    0.016666   0.0026992   -0.037577    -0.22239 -0.00087364    -0.11488
-0.055766  -0.0093186   -0.008669   -0.039526   -0.079802   -0.013216     -0.1256
-0.06551    -0.04862   -0.020037    -0.03303   0.0017248   -0.052193    -0.12398
-0.081101   -0.084024   -0.028807   -0.020037    0.081952    -0.12755    -0.10838
-0.095717    -0.10124   -0.035628  -0.0034721     0.21545    -0.22856   -0.077853
-0.098641    -0.09182    -0.04115     0.01764      0.4204    -0.33283   -0.033679
-0.084349   -0.061613   -0.042449     0.04395      0.6783    -0.41013    0.021863
-0.051219   -0.017114   -0.031081    0.081627     0.93457    -0.43969    0.084226
-0.0047713    0.031607  -0.0047713     0.12678      1.1074    -0.41435     0.14886
0.042975    0.072208    0.032906     0.17452      1.1217    -0.34549       0.207
0.081952    0.094945    0.080328      0.2187     0.94204     -0.2552     0.25085
0.11833    0.097868     0.12743     0.26027     0.58183    -0.16555     0.27359
0.15958    0.084226     0.16315     0.29795     0.10761   -0.090196     0.27749
0.20603    0.056942      0.1768     0.32653    -0.39259   -0.026209     0.26677
0.24566    0.016666     0.16608      0.3392    -0.83563    0.042651     0.24143
0.26417   -0.031406      0.1362     0.33011     -1.1689     0.13132     0.19986
0.25215   -0.081751    0.096244     0.29665     -1.3761     0.23721     0.13912
0.2057     -0.1269    0.054344     0.24566     -1.4833     0.32426    0.062464
0.13067    -0.16328    0.013093     0.18362     -1.5424     0.34147   -0.015165
0.038753    -0.18666   -0.025559     0.11606     -1.5638     0.25605   -0.074605
-0.04992    -0.17952   -0.058365    0.048497     -1.5284    0.091696   -0.099615
-0.1178     -0.1191   -0.077203   -0.010943     -1.4388   -0.079152   -0.079802
-0.15321  0.00042559   -0.072006    -0.05804     -1.3124    -0.18017    -0.01614
-0.15743     0.15114   -0.046347   -0.094743      -1.164      -0.174    0.079029
-0.13242     0.27846   -0.013866     -0.1243    -0.95256   -0.085648     0.18264
-0.085324     0.33758   0.0052977    -0.15126    -0.61249    0.023812     0.26807
-0.026209     0.32263   0.0020496    -0.17757    -0.12138    0.093321     0.30802
0.030957     0.26417    -0.01549    -0.20355     0.45873    0.092671     0.29178
0.071234     0.20408   -0.035303    -0.22532      1.0116    0.030957     0.22941
0.087799     0.17485   -0.051868    -0.24286      1.4806    -0.04992     0.14854
0.081303     0.18199   -0.060313    -0.25942      1.8941   -0.088572    0.078055
0.06831     0.20538   -0.062587    -0.28118      2.2806   -0.045697    0.040702
0.067986     0.21772    -0.06616    -0.31204      2.6129     0.06961    0.033881
0.089748     0.20213   -0.075579    -0.34777      2.8188     0.20668    0.036804
0.12937     0.16056   -0.088247    -0.38285      2.8854     0.30834     0.02641
0.17127     0.10956   -0.098965    -0.41111       2.924     0.34342  -0.0073698
0.19596    0.070909    -0.10709    -0.42929      3.0809     0.32134   -0.061937
0.19401    0.053044    -0.11488    -0.43449      3.3745     0.27651     -0.1308
0.17387    0.050771    -0.12333     -0.4189      3.6899      0.2463    -0.19706
0.15276    0.051096    -0.12527    -0.37505        3.85     0.24208    -0.24091
0.14821    0.044275    -0.11163    -0.30262      3.7305     0.25832    -0.24903
0.1677     0.02706   -0.082076    -0.20518      3.3144     0.28236    -0.21427
0.21025 -0.00054884    -0.04115   -0.094743       2.685     0.30347    -0.14509
0.26027   -0.036278 -0.00054884    0.016666      1.9467     0.31062   -0.068758
0.29438   -0.073955    0.032906     0.11541      1.1402     0.29438   -0.012567
0.29957    -0.10384    0.050771     0.18881     0.20278     0.24111    0.011794
0.27586     -0.1243    0.056942     0.23331    -0.93307     0.14886   0.0088706
0.23266    -0.13599    0.055643     0.24825     -2.1784    0.030957  -0.0073698
0.18751    -0.14444    0.053369     0.24533     -3.3006   -0.089546   -0.025884
0.14204    -0.15158    0.049472     0.24143     -4.0467    -0.18309   -0.043423
0.087149    -0.15808    0.048497     0.24695     -4.2594    -0.22142   -0.057065
0.012443    -0.16555    0.050771      0.2541     -3.9294     -0.2042   -0.069733
-0.084024    -0.17627    0.047847     0.23883     -3.1557    -0.16003   -0.085648
-0.18991    -0.18504    0.030308     0.18264     -2.0615    -0.12787    -0.10026
-0.28768    -0.18634  -0.0044465    0.087799    -0.82718    -0.11878    -0.10514
-0.36466    -0.17724   -0.045372   -0.013541     0.24176     -0.1178   -0.098641
-0.41565    -0.16393   -0.075579   -0.080776     0.81244    -0.11163   -0.084349
-0.45138    -0.15841   -0.089546   -0.096367     0.76665   -0.095068   -0.062587
-0.48224    -0.16555   -0.088247   -0.064211     0.18979   -0.059664   -0.038551
-0.50725    -0.17465   -0.077853  -0.0054209    -0.68297   0.0056225   -0.017764
-0.51634    -0.16685   -0.063886    0.049147     -1.5297     0.10339  -0.0093186
-0.5105    -0.13372   -0.050569    0.074482     -2.0462     0.21675    -0.01549
-0.5014   -0.087922   -0.043423    0.061489     -2.0368     0.32069   -0.027833
-0.4988   -0.048945   -0.044073    0.016016     -1.5314     0.39734   -0.038227
-0.49978    -0.03238   -0.055766   -0.052843    -0.86778     0.42073   -0.043748
-0.49036   -0.041799   -0.078178    -0.14022    -0.46535     0.36259   -0.049595
-0.46178   -0.064861    -0.10774    -0.23441    -0.44424      0.2148    -0.05804
-0.41273   -0.090845    -0.13502    -0.31269    -0.55564    0.009845   -0.067134
-0.34777    -0.11001    -0.14899    -0.34842    -0.43904    -0.19381   -0.072981
-0.26657    -0.11066    -0.14087     -0.3312    0.064413    -0.33543   -0.072006
-0.17172   -0.089546    -0.11098    -0.27111     0.78289     -0.3757   -0.059989
-0.068434   -0.051544   -0.069408    -0.19413      1.3932    -0.31821   -0.038227
0.033231  -0.0044465    -0.03173     -0.1269      1.6677    -0.21135    -0.01614
0.1219    0.042001  -0.0080194   -0.083375      1.5631    -0.11943 -0.00087364
0.18427    0.079029   0.0010752   -0.061288      1.2019   -0.081426   0.0023744
0.21512    0.099817   0.0023744   -0.046996      0.7621    -0.10156  -0.0060706
0.21675     0.10112  0.00010078   -0.030106       0.385    -0.15613   -0.022961
0.20051    0.089098 -0.00087364  -0.0073698     0.12775     -0.2107   -0.042124
0.18329    0.074482   0.0036737    0.019914   -0.026858    -0.24058   -0.053168
0.1781    0.066362    0.019914     0.05272    -0.13437    -0.24383   -0.054792
0.19076     0.06896    0.044599    0.082927    -0.24675    -0.23896   -0.054142
0.2148    0.077405     0.06896     0.10664     -0.3757    -0.23928    -0.05804
0.23754      0.0852    0.087799      0.1271    -0.48808    -0.25325   -0.067459
0.2476    0.086824    0.094945     0.14724    -0.53551    -0.27761   -0.080776
0.23981    0.081303    0.091372      0.1664    -0.48776    -0.30489   -0.092469
0.21577    0.072858    0.084551     0.18979    -0.34972    -0.32081   -0.097341
0.18069    0.062789    0.079354      0.2174    -0.15808    -0.31269   -0.095717
0.14172    0.051096    0.081952     0.23948    0.026735    -0.27664   -0.088247
0.11216    0.039402    0.088773     0.24955     0.14529    -0.21785   -0.065186
0.10144    0.032257    0.096569     0.25085     0.16803    -0.15321    -0.01614
0.10729    0.028359     0.10144     0.25053    0.092346    -0.10221     0.05272
0.11866    0.031282    0.098517      0.2515   -0.064536   -0.070058     0.12483
0.1232    0.040052    0.086824     0.24728    -0.28118   -0.044723     0.17939
0.11281    0.046548     0.06961     0.22974    -0.54168  -0.0063954     0.20538
0.083251    0.041676    0.054344     0.19953    -0.83043    0.050121     0.19953
0.037778    0.021863    0.044275      0.1651     -1.1166     0.10924     0.16478
-0.016464  -0.0073698    0.039402     0.13717     -1.3498     0.14367     0.11443
-0.070707   -0.035303    0.039727     0.12158       -1.48     0.14042    0.058241
-0.11488   -0.053817    0.045574     0.11606     -1.4771     0.11183   0.0049729
-0.13502   -0.059989    0.053369     0.11508     -1.3423    0.083251   -0.034978
-0.11748   -0.055766    0.056292     0.11476     -1.1029    0.073507   -0.056416
-0.056416   -0.045372    0.051096     0.11151     -0.8051    0.089098   -0.063237
0.035505   -0.027833    0.048822     0.10404    -0.50692      0.1206   -0.062587
0.13457  -0.0067202    0.054993    0.097868    -0.25292     0.15731   -0.053817
0.21642    0.013093    0.067336     0.10014   -0.057065     0.19336   -0.025234
0.27067    0.028034    0.078055     0.11573     0.11054     0.23006     0.03583
0.2934    0.034206    0.084226     0.13717     0.29113     0.26969     0.13002
0.28723    0.036154    0.083576     0.15406     0.48504     0.30542     0.23201
0.25962    0.033556    0.079029     0.16153     0.66141     0.32946     0.31062
0.21837    0.029658     0.07708     0.16218     0.78549     0.33173      0.3431
0.1716    0.027385    0.080328     0.15666     0.82446     0.30055     0.32361
0.12613    0.031607    0.084226     0.14756      0.7124     0.23689     0.26449
0.089748     0.04395    0.084876     0.13555     0.39052     0.15211     0.18849
0.064737     0.06019    0.080653     0.12678    -0.11228    0.056617      0.1206
0.050771    0.069934    0.075456     0.12158    -0.68135   -0.038876    0.075131
0.048172     0.06084    0.073832     0.12125     -1.1608     -0.1243    0.054668
0.061165    0.028684    0.079354     0.12613     -1.4469    -0.18731    0.048822
0.092346   -0.017114    0.090397     0.14204     -1.5167    -0.22532    0.042975
0.14659   -0.057065     0.10339     0.17582     -1.3888       -0.25    0.033231
0.2122   -0.073955     0.11736     0.22909     -1.1062    -0.28411    0.018615
0.26872   -0.062262     0.13262      0.2921    -0.75735    -0.34712   0.0043233
0.2908    -0.03238     0.14237       0.347    -0.47802    -0.42897  -0.0018481
0.26872  -0.0015233     0.14009     0.38045    -0.38804    -0.49068   0.0072465
0.21675    0.020888     0.12418       0.385    -0.54135    -0.48679    0.030957
0.16315    0.043625    0.094945     0.35447     -0.9334    -0.40883    0.058566
0.11801    0.077405    0.057267     0.29308     -1.4524    -0.28053    0.080328
0.069285     0.11801    0.017316     0.20863     -1.9143    -0.13437    0.089748
-0.0021729     0.15309   -0.020362     0.11021     -2.0982 -0.00022403    0.083251
-0.10546     0.17062   -0.056091   -0.011267     -1.8104    0.096244    0.061489
-0.22791     0.16575   -0.096692    -0.16653     -1.0347     0.13879    0.020888
-0.34322     0.13977    -0.14249    -0.35394    0.016016     0.13847   -0.036927
-0.42865     0.10501    -0.18471     -0.5472     0.98622     0.13295   -0.095393
-0.4686    0.069285    -0.21622    -0.69856      1.6414     0.16348    -0.13275
-0.45398    0.032582    -0.23019    -0.78009      1.9444     0.24208    -0.13924
-0.38642  -0.0067202    -0.22759    -0.78074      1.9808     0.34667    -0.12885
-0.28573   -0.043099     -0.2068     -0.7122      1.8473     0.44021    -0.11651
-0.17432   -0.061613    -0.16977    -0.60177      1.6469     0.48536    -0.10936
-0.068109   -0.052843     -0.1269    -0.47249      1.4679     0.47042    -0.10449
0.020564   -0.028157   -0.092794    -0.35232      1.3448     0.41033   -0.094418
0.080978   -0.011267   -0.080451    -0.26397      1.2578     0.32004   -0.075579
0.10436   -0.025234   -0.088896    -0.21622      1.1714     0.19823    -0.04992
0.088448   -0.070382    -0.10774    -0.20128      1.0742    0.032582    -0.03238
0.043625    -0.12755    -0.12917    -0.20063      1.0245    -0.16718   -0.034978
-0.0076946    -0.17562    -0.14476    -0.20453      1.1191    -0.35719   -0.053492
-0.044073    -0.20193    -0.15321    -0.21427      1.3698    -0.48419   -0.077203
-0.059339    -0.20031    -0.15841    -0.23409      1.6358    -0.51374   -0.096042
-0.054467    -0.17042    -0.16555    -0.26916      1.7138    -0.45138    -0.10741
-0.038227    -0.11715    -0.17984    -0.31139      1.4741    -0.33023    -0.11358
-0.019063    -0.04927    -0.19511    -0.34355       0.931    -0.18504    -0.11423
-0.0057458    0.019914    -0.20388    -0.35004      0.2187    -0.03238    -0.10676
0.0043233     0.07708    -0.20128     -0.3286    -0.46827      0.1349   -0.085324
0.025436     0.11086    -0.18634    -0.28248    -0.93275     0.32946    -0.04862
0.063438     0.11931     -0.1649    -0.22012     -1.0497     0.53701  0.00075039
0.10501     0.10956    -0.13924    -0.14704    -0.78301     0.72475    0.054668
0.1323    0.089748    -0.11326   -0.075255    -0.19803      0.8485     0.10209
0.13684    0.066037   -0.084999   -0.013216      0.5526     0.88488     0.13262
0.12288    0.040702   -0.055116    0.032582      1.2753     0.83323     0.13879
0.099492    0.013093   -0.026533     0.06019      1.7904     0.71793     0.12548
0.076106   -0.019712  -0.0037969    0.073507      1.9421     0.55942     0.10079
0.054993   -0.058689   0.0088706    0.079679      1.6833     0.37753    0.071558
0.034855    -0.10351    0.011469    0.083576      1.1558     0.19401    0.036479
0.0088706    -0.14444    0.012443    0.087474     0.60554    0.026735 -0.00054884
-0.024909    -0.16718    0.018615    0.096244     0.23104    -0.13047   -0.036278
-0.067459    -0.16165    0.031932     0.11021    0.093645    -0.29093   -0.067134
-0.11521    -0.12495    0.049472     0.13165     0.14594    -0.44878   -0.081426
-0.15353   -0.066485     0.06896     0.15731     0.30477    -0.58325   -0.075579
-0.16782   0.0017248    0.084226     0.18134      0.5029    -0.68264   -0.055441
-0.15776    0.068635    0.096244     0.19726     0.69064    -0.75085   -0.036278
-0.1334     0.12743     0.10534     0.20311     0.81537    -0.79178   -0.027508
-0.10644     0.17712     0.11183     0.20148     0.82056    -0.79893   -0.024585
-0.085324     0.21317     0.11313     0.19693     0.68934    -0.75767    -0.01614
-0.071032     0.22941     0.10631     0.19239     0.46328    -0.66186    0.003024
-0.064211     0.22097    0.090722     0.18069     0.21317    -0.52089    0.023812
-0.057715     0.19304     0.06831     0.15796 -0.00022403    -0.36173    0.036804
-0.044723     0.15309    0.044924     0.13295    -0.14606    -0.21655    0.035505
-0.019063     0.10729     0.02641     0.11216    -0.22726    -0.10384    0.024137
0.01894    0.059541    0.016341     0.10242    -0.26949   -0.028482    0.010819
0.062139    0.013093    0.014392     0.10209    -0.30782    0.012443      0.0014
0.096893   -0.030106    0.020239     0.10794    -0.35914    0.025436  -0.0024977
0.11476   -0.064536    0.031932     0.11898    -0.41955    0.016341  -0.0050961
0.10599   -0.085648    0.048822     0.13555    -0.47996  -0.0093186    -0.01484
0.073182   -0.086623    0.067336     0.15406    -0.53291   -0.044398   -0.037252
0.027385   -0.072656    0.082277     0.17127    -0.58001   -0.081751   -0.062262
-0.020687   -0.055116    0.090072     0.18394    -0.62158    -0.10611   -0.077528
-0.062262   -0.047971    0.088773     0.19141    -0.66056   -0.094418   -0.077203
-0.096692   -0.056741    0.078704     0.19141    -0.69369   -0.042124   -0.062262
-0.1243   -0.070707    0.064737     0.18492     -0.7187    0.037778   -0.037577
-0.14119   -0.075255    0.052395     0.17225    -0.73299     0.12937   -0.010618
-0.14314   -0.060313    0.044599     0.15731    -0.73624     0.21902    0.012119
-0.13015   -0.029132     0.04395     0.14691    -0.73202      0.2986    0.028684
-0.10384   0.0033489    0.053369     0.14626    -0.73104     0.35641    0.041676
-0.068434    0.019264    0.067661     0.15341    -0.73072      0.3785    0.049796
-0.030106   0.0078962    0.074806     0.15958    -0.72422     0.35512    0.050771
-0.00054884   -0.026209    0.072858     0.16153    -0.70538     0.28528    0.043625
0.012119   -0.062587    0.067011     0.15958    -0.67387     0.17615    0.025111
0.0020496   -0.079477    0.065062     0.15731    -0.63392    0.042326  -0.0057458
-0.027508    -0.06551     0.06896     0.15438    -0.59235   -0.089871   -0.043099
-0.059989   -0.027508    0.077405     0.15049    -0.54558    -0.18569   -0.072981
-0.076879    0.021863    0.087799     0.14594    -0.49556    -0.23084     -0.0837
-0.071357    0.070584    0.091047     0.13717    -0.45268    -0.24448   -0.069733
-0.046671     0.10696    0.084551     0.12028    -0.42767    -0.26754   -0.041475
-0.020037     0.12223    0.066037    0.091696     -0.4228    -0.33997   -0.017114
-0.0050961     0.11151    0.040052    0.054668    -0.40916    -0.46697  -0.0089938
-0.008669    0.081627    0.014717    0.021863    -0.35459    -0.60307   -0.015165
-0.025884    0.042651 -0.00022403   0.0023744     -0.2552    -0.67712   -0.023935
-0.048296      0.0014  0.00042559  -0.0018481    -0.13145    -0.64627   -0.024585
-0.068109   -0.038551    0.011144   0.0017248  -0.0076946    -0.51927   -0.015165
-0.077203   -0.076879    0.022837   0.0052977     0.10404    -0.34517 -0.00054884
-0.07493    -0.11618    0.022837   0.0052977      0.2122    -0.17984    0.011144
-0.061613    -0.15256   0.0056225   0.0023744     0.31159   -0.054792    0.020888
-0.036278    -0.18212   -0.022636  0.00042559     0.34082    0.022512    0.033556
0.0023744    -0.19413   -0.048945 -0.00054884     0.23494    0.070909    0.049796
0.046223    -0.18114   -0.064536  0.00042559   -0.028157     0.10469    0.062139
0.083576    -0.13762   -0.067134   0.0043233    -0.39746     0.13165    0.061165
0.10794   -0.068434   -0.058365   0.0056225    -0.76417     0.16283    0.047847
0.12255    0.012119   -0.044073  0.00010078     -1.0458     0.19856    0.030633
0.13067    0.087149   -0.034654   -0.010943     -1.2325     0.22617    0.028359
0.14074     0.14756   -0.032705   -0.022636     -1.3608     0.23136    0.050771
0.14724     0.19336   -0.035303   -0.031406     -1.4518     0.21967    0.095594
0.14367     0.22324   -0.036602   -0.033679     -1.4943     0.21675     0.14659
0.12093     0.23916   -0.031406   -0.027508     -1.4739     0.24988     0.18557
0.0865     0.23883   -0.016464   -0.010293     -1.3703     0.33498     0.20181
0.052395     0.21967   0.0052977    0.014717     -1.1578     0.46003     0.19434
0.022512     0.18004    0.024786    0.038103    -0.82686     0.59417      0.1703
-0.0031473      0.1232    0.037129    0.047847    -0.40948     0.69811     0.13912
-0.021012    0.055968    0.031282    0.039727    0.033556     0.74553     0.10371
-0.027833  -0.0096434   0.0078962     0.01894     0.45126     0.72897    0.069285
-0.019712   -0.062912   -0.027183   -0.010293     0.82024     0.65426    0.032257
-0.0018481   -0.090845   -0.061937   -0.040175      1.1265     0.52889   -0.010618
0.01894   -0.086298   -0.086298   -0.063237      1.3494     0.35901   -0.052843
0.031932   -0.053492    -0.10124   -0.073631      1.4504      0.1638   -0.085324
0.033556  -0.0050961    -0.10286   -0.072006      1.3578   -0.023935   -0.094418
0.023162    0.042651   -0.089871   -0.067459      1.0291    -0.17302   -0.072006
0.0049729    0.073507   -0.070707   -0.071682     0.51849    -0.27664   -0.025234
-0.024585    0.076431   -0.054142   -0.088247   -0.012242    -0.36531    0.024786
-0.069408    0.053044   -0.044073    -0.11196    -0.39844    -0.48679    0.047523
-0.13177     0.01017    -0.04115    -0.13567    -0.58001    -0.66218    0.026085
-0.20193   -0.038551   -0.040825    -0.15353    -0.60989    -0.86746   -0.030756
-0.26169   -0.083375   -0.044073    -0.15938    -0.55857     -1.0474   -0.096042
-0.29353    -0.11456   -0.046347    -0.15029    -0.44066     -1.1474    -0.14346
-0.29125    -0.12755   -0.045372    -0.13242    -0.26916     -1.1426    -0.15841
-0.25877    -0.12365   -0.038876    -0.11196   -0.092794     -1.0532    -0.14249
-0.20453    -0.10676   -0.030106   -0.093444    0.063763    -0.93567    -0.10611
-0.13404   -0.082076   -0.022311   -0.074605     0.22259    -0.83498   -0.062587
-0.052843   -0.054467   -0.017439   -0.051868     0.41066    -0.75865   -0.023935
0.031607   -0.029782   -0.018738   -0.030756     0.63965    -0.68005  0.00075039
0.10664   -0.011592   -0.026858   -0.021337     0.89527    -0.56409    0.010819
0.16575   0.0036737   -0.036602   -0.027833      1.1298    -0.39681   0.0091954
0.2044    0.023487   -0.043423   -0.045047      1.2535    -0.19641      0.0014
0.22097    0.046223   -0.046347   -0.065186      1.1649   0.0072465  -0.0044465
0.21675     0.06896   -0.043099   -0.076229     0.83193     0.19336  -0.0050961
0.19953    0.081627   -0.030431   -0.068758     0.33595     0.35966   0.0010752
0.1742    0.077405   -0.011592   -0.047321    -0.20583     0.51102   0.0072465
0.14594    0.057592   0.0069217   -0.028157    -0.65958     0.64322   0.0039985
0.11833    0.031932    0.013093    -0.02361    -0.92722     0.74976   -0.011917
0.09397   0.0072465   0.0062721   -0.042124     -1.0029     0.81862   -0.039526
0.074482   -0.012892   -0.011917   -0.084674    -0.95516       0.842   -0.075904
0.06019    -0.03238   -0.036927    -0.14769    -0.84797     0.81699     -0.1178
0.047523   -0.054792    -0.06551    -0.21817    -0.73591     0.75528    -0.16003
0.032582   -0.082725   -0.089546    -0.28183    -0.66835     0.68447    -0.18277
0.01829    -0.11098    -0.10774    -0.32146    -0.63652     0.63153     -0.1701
0.012768     -0.1308    -0.11813    -0.32471    -0.53258     0.60976    -0.12365
0.021863    -0.13372    -0.11521    -0.28443    -0.25292     0.62016   -0.059664
0.041676    -0.11326   -0.094418    -0.20388     0.16835     0.65361   0.0059473
0.062789   -0.069408   -0.054142   -0.095393     0.57014     0.69584    0.060515
0.078704   -0.010618  0.00075039    0.020239     0.78061     0.73644     0.10501
0.079679     0.05207    0.056617     0.12093     0.72475     0.77509     0.14821
0.055968     0.10696     0.10371     0.19401      0.4727     0.81699     0.19921
0.010819     0.14626     0.13327     0.23104     0.19628     0.86117     0.25735
-0.045697     0.16348     0.13977     0.22941    0.060515     0.89982     0.30347
-0.10384     0.15406     0.12418     0.19271     0.16705      0.9219     0.31874
-0.15613     0.12028    0.089748     0.13067     0.50907     0.92158     0.28983
-0.19283    0.065387    0.045899    0.061814     0.95861     0.89754     0.22097
-0.20128  0.00075039   0.0075714   0.0062721      1.3513     0.84298     0.13067
-0.17984   -0.059014   -0.016789    -0.02426      1.5553     0.75106    0.040702
-0.13372    -0.09994   -0.025234   -0.027508      1.5023     0.61074   -0.032055
-0.080776    -0.11618   -0.018088   -0.012242      1.1444     0.39864   -0.075255
-0.037252    -0.11358  -0.0021729   0.0017248     0.49413    0.073182   -0.093119
-0.014516    -0.10091    0.012443  -0.0050961    -0.26169    -0.39097    -0.10254
-0.0080194   -0.089221    0.014392   -0.035303     -0.7999    -0.95288    -0.11618
-0.0060706   -0.084674   0.0052977   -0.079802    -0.85317     -1.4976    -0.13112
0.0026992   -0.089546  -0.0083442    -0.11845    -0.32178     -1.8926    -0.14119
0.019589   -0.098965   -0.023285    -0.13892     0.65296     -2.0465    -0.14346
0.037454    -0.10579   -0.034329    -0.14216      1.7037     -1.9452    -0.14184
0.047523    -0.10156   -0.039201     -0.1282      2.4329     -1.6412    -0.14119
0.046548   -0.079802   -0.034329    -0.10156      2.5528     -1.2361    -0.14606
0.033881   -0.044723   -0.023935   -0.072331      1.9694    -0.83888    -0.15873
0.0095202  -0.0054209   -0.011592   -0.049595     0.81569    -0.52901    -0.18049
-0.02361    0.031607      0.0014   -0.040175    -0.60372    -0.33705    -0.20355
-0.059989     0.06019    0.016991   -0.038876     -1.8649    -0.23766    -0.21525
-0.090196    0.078704    0.030633   -0.033679     -2.6646     -0.1727    -0.20063
-0.11001    0.088448    0.041676   -0.015815      -2.839   -0.096692    -0.15613
-0.11845    0.091372    0.049796    0.016341     -2.3739  -0.0063954    -0.10124
-0.12105    0.087149    0.050121    0.053694     -1.4453    0.078055   -0.056416
-0.12008    0.078704    0.041351    0.079354    -0.35037     0.13977    -0.03238
-0.1178    0.074157    0.022512    0.082602     0.60294     0.17972    -0.02426
-0.11715     0.07708    0.003024    0.062789      1.2542     0.20473   -0.023285
-0.11651    0.081303   -0.011592    0.030308       1.617     0.22682   -0.025884
-0.12105    0.080328   -0.017439 -0.00087364      1.7456     0.25443   -0.029132
-0.13534    0.067011   -0.013866   -0.016789      1.6501     0.28723   -0.028157
-0.15191    0.037778  -0.0031473  -0.0089938      1.3399     0.31419   -0.021337
-0.16295  -0.0044465    0.012768    0.016016     0.91898     0.32036    -0.01549
-0.16068   -0.047646    0.032257    0.047847      0.5565     0.28366    -0.01484
-0.1334   -0.077203    0.049796    0.078704     0.38078     0.20116   -0.017114
-0.077528   -0.087922    0.055643     0.10274       0.423    0.092346   -0.018088
-0.0047713   -0.086948    0.048822     0.12028     0.60359  -0.0099683   -0.020362
0.073182   -0.081101    0.032257      0.1323     0.78191   -0.081426   -0.023935
0.14821   -0.069083    0.010495     0.14204     0.81829    -0.11878   -0.024585
0.22259   -0.050894   -0.012567     0.15146      0.6286    -0.13697   -0.018413
0.29438   -0.024585   -0.030756     0.16088      0.2148    -0.15093   0.0046481
0.35284    0.012443   -0.037902     0.16965     -0.2867    -0.16945    0.049147
0.38727    0.060515   -0.029132     0.18427    -0.69109    -0.18439     0.10989
0.39409     0.11216  -0.0011985     0.20993    -0.87785    -0.17594      0.1781
0.36811     0.15536    0.041676     0.24858    -0.83238    -0.12787     0.24143
0.31451     0.18557    0.089098      0.2934    -0.61866   -0.042449     0.28593
0.24955     0.20083     0.12613     0.33173    -0.38057     0.06019     0.30185
0.18492     0.19856     0.13944     0.35349    -0.29028     0.14561     0.28723
0.1271     0.17777      0.1297     0.35057     -0.4543     0.18881      0.2502
