-0.052193    0.074482    0.057592    0.061165    0.081303   -0.048945   -0.055441
-0.02426    0.066686     0.06896    0.059541    0.054668   -0.045047   -0.031406
0.0023744    0.077405    0.080978    0.056617  0.00042559   -0.037902   -0.012567
0.023162    0.096893    0.088448    0.047847    -0.10124   -0.033679  -0.0021729
0.034855     0.10859    0.087149    0.030308    -0.26137   -0.034329  -0.0076946
0.031932     0.10339    0.078055   0.0049729    -0.46827   -0.043748   -0.025234
0.011469    0.081627    0.062789   -0.021986    -0.67517   -0.054792   -0.047971
-0.019712    0.047847    0.038103   -0.039201    -0.81484   -0.069083   -0.069733
-0.054142   0.0056225   0.0065969   -0.043099     -0.8392   -0.085324   -0.088572
-0.077528   -0.035628   -0.021012   -0.035953    -0.74273    -0.10351    -0.10449
-0.08305   -0.072981   -0.033354   -0.017439    -0.56409     -0.1191    -0.11553
-0.066485    -0.11131   -0.028482    0.010495    -0.35719    -0.12787    -0.12398
-0.033354    -0.15418  -0.0089938    0.047198    -0.16912     -0.1269    -0.12982
0.0023744    -0.19446    0.015042    0.082602   -0.026533    -0.12495    -0.14054
0.028684    -0.21492    0.032582     0.10371    0.059865     -0.1295     -0.1636
0.040377     -0.2055    0.033556     0.10274    0.098517    -0.14541    -0.18959
0.038753    -0.16653    0.016341    0.076431     0.10664    -0.16523    -0.20258
0.024461    -0.10741  -0.0099683    0.031282     0.10664    -0.17562    -0.18959
-0.010943   -0.042124   -0.033679   -0.024585     0.11346    -0.16815    -0.14834
-0.074605     0.01829     -0.0405   -0.072656     0.12937    -0.14022   -0.088247
-0.16328    0.066362   -0.026209    -0.10449     0.15081    -0.10059   -0.027508
-0.2565    0.094945   0.0046481    -0.12008      0.1742   -0.057715    0.020239
-0.33185    0.099817    0.038103    -0.12268     0.19466   -0.019712    0.046873
-0.37278    0.077405    0.062789     -0.1178     0.20278   0.0078962    0.055318
-0.36791    0.028359    0.075131    -0.10416     0.19011    0.017965    0.056942
-0.32406   -0.040825    0.076755     -0.0837     0.15471    0.011144    0.063113
-0.25195    -0.10676     0.06831   -0.060963     0.10306  -0.0021729    0.073507
-0.15808    -0.13892    0.049472   -0.039851    0.049796  -0.0083442    0.083576
-0.045697    -0.11845    0.025436   -0.018088   0.0065969 -0.00022403    0.091696
0.079029   -0.050244   0.0036737   0.0072465   -0.014516    0.027385    0.098517
0.19953     0.03518  -0.0083442    0.036154  -0.0073698     0.06831     0.10209
0.29892     0.10729  -0.0076946     0.06961    0.029658     0.11508     0.10696
0.36194     0.14984   0.0052977     0.10112    0.087474     0.15601     0.11801
0.38013     0.17095    0.022512     0.12743     0.14561     0.18719     0.13425
0.35706     0.18232    0.039727     0.14626     0.18492      0.2057     0.14951
0.30185     0.19434    0.054993     0.15763     0.19141     0.20765     0.15438
0.23006     0.20505    0.070259      0.1651     0.16413     0.19239     0.14561
0.15373       0.207    0.085525      0.1664     0.10989     0.16185      0.1258
0.07708     0.18914    0.093645     0.16088    0.037778     0.12775     0.09462
0.0033489     0.13652    0.084876     0.14984   -0.043423    0.097543    0.052395
-0.05739    0.048822    0.054993      0.1362    -0.12268    0.073832   0.0039985
-0.096692   -0.051544    0.014392     0.12613    -0.19413    0.054344   -0.044398
-0.11066    -0.12755   -0.021012     0.12028    -0.26397     0.03518   -0.083375
-0.098641    -0.16003   -0.044398     0.11378     -0.3364   0.0088706    -0.10416
-0.061937    -0.16425   -0.059664     0.10339    -0.39779   -0.027183    -0.09994
-0.0076946    -0.17887   -0.074605    0.091372    -0.41988   -0.073955   -0.076554
0.044599    -0.23474   -0.090845    0.077405    -0.38902    -0.13112   -0.046022
0.072858    -0.32211    -0.09994    0.067661    -0.30847    -0.18147   -0.019388
0.070909    -0.39649   -0.087597    0.070259    -0.19413    -0.20875   0.0033489
0.051745    -0.40526   -0.047971    0.088773   -0.067784    -0.20713    0.027385
0.03518    -0.32633   0.0078962     0.11573    0.045899    -0.18991    0.056617
0.033231    -0.18342    0.054019     0.13327     0.13684    -0.17919    0.082602
0.045574   -0.030756    0.059216      0.1232     0.20505    -0.19901    0.090722
0.054993      0.0865    0.012119    0.078379      0.2593    -0.25942    0.071234
0.042001     0.14626   -0.073306   0.0046481     0.30347    -0.35296    0.029333
0.0020496     0.14951    -0.16782   -0.076879     0.34147    -0.45528   -0.017439
-0.045697      0.1258    -0.23116    -0.12755     0.37753    -0.52901   -0.043748
-0.076554     0.12125    -0.23181    -0.11715     0.41228    -0.53908   -0.021012
-0.074605      0.1664     -0.1649    -0.04115     0.44411    -0.46178     0.06961
-0.044723      0.2554   -0.056091    0.075131     0.47302    -0.29807     0.22552
-0.0076946     0.34894    0.051096     0.19271     0.49478   -0.077528     0.41391
0.013093     0.40871     0.12483     0.28138     0.49543     0.14496     0.58216
0.003024     0.41326     0.15406     0.32783     0.45775     0.31257     0.67797
-0.029782     0.36486     0.14886     0.33465     0.37428     0.39247     0.67115
-0.071682     0.28528     0.12418     0.31094     0.24468     0.38597     0.57209
-0.10416     0.19986    0.094945     0.26937    0.077405     0.31451     0.41326
-0.12008      0.1297     0.06831     0.21935    -0.11423     0.20668     0.23981
-0.12235    0.080653    0.048822      0.1716    -0.31301    0.092021    0.092021
-0.11813    0.050446    0.034855     0.13067    -0.49978  -0.0060706  -0.0041217
-0.11293    0.032582    0.028034    0.096893    -0.65276   -0.082725   -0.045697
-0.11131    0.015692    0.020239    0.070584    -0.75962    -0.15093   -0.048296
-0.11066   0.0017248    0.010819    0.049147    -0.81647    -0.22077   -0.033354
-0.10903   -0.012242   0.0017248    0.031282    -0.83433    -0.28443   -0.020687
-0.10254    -0.02361  -0.0060706    0.013743    -0.82491    -0.31886   -0.022961
-0.090521   -0.032705   -0.010943  -0.0037969    -0.79535    -0.30294   -0.040175
-0.076229   -0.039201   -0.011592   -0.025559    -0.74014    -0.23896   -0.064536
-0.063886     -0.0405   -0.010618   -0.052193    -0.65634    -0.13924   -0.085648
-0.050894   -0.036278  -0.0076946   -0.077203    -0.54265   -0.029132    -0.09929
-0.034978   -0.027183  -0.0028225   -0.093769    -0.40461    0.067011    -0.10189
-0.01549   -0.016464   0.0052977   -0.097991    -0.25585     0.14107    -0.10124
0.0046481  -0.0083442    0.014392    -0.09117    -0.11261     0.19304    -0.10319
0.021538  -0.0031473    0.022837   -0.075579     0.01764     0.23364    -0.11358
0.032257 -0.00087364    0.027385   -0.053817     0.13035     0.26839     -0.1321
0.037454 -0.00022403    0.028684    -0.03303     0.22747     0.29503    -0.15548
0.033556  -0.0037969    0.028684   -0.019712     0.30639     0.30315    -0.18212
0.015367   -0.008669     0.02641   -0.015815     0.35804     0.28885    -0.20648
-0.014191   -0.013541    0.019264   -0.019388     0.37525     0.25475    -0.22174
-0.043099   -0.018738     0.01017   -0.029132     0.36356     0.20376    -0.22954
-0.06616   -0.026533   -0.008669   -0.041475     0.33855     0.13749    -0.23181
-0.0824   -0.039201   -0.038227   -0.052843     0.31939    0.063113    -0.22726
-0.087272   -0.052518   -0.070058   -0.060313     0.31192   -0.013216     -0.2133
-0.075904   -0.059664   -0.097017   -0.058365     0.31159     -0.0824    -0.19446
-0.04927   -0.060313    -0.11878   -0.045372     0.30737    -0.13924    -0.17757
-0.011592   -0.061613    -0.13599   -0.029457     0.28918    -0.18049     -0.1662
0.03583   -0.069083    -0.14996   -0.025884     0.25443     -0.2055    -0.16458
0.081627   -0.084024    -0.15776   -0.037577       0.207    -0.21979     -0.1714
0.11118   -0.096692    -0.15841   -0.057065     0.15926    -0.22564    -0.17692
0.11021    -0.10286    -0.15288   -0.077203     0.11995    -0.21849    -0.16945
0.076755    -0.10091    -0.13957   -0.094743    0.097543    -0.18764    -0.14736
0.026735    -0.09117    -0.12365    -0.11033    0.093321    -0.12073    -0.11261
-0.0096434   -0.077528    -0.10514     -0.1295     0.10371    -0.01549   -0.073306
-0.018738   -0.059989   -0.086623    -0.16003     0.11833     0.10794   -0.037252
-0.0063954   -0.048945   -0.072006    -0.19966     0.12418     0.22584   -0.010293
0.013743    -0.04992   -0.070707    -0.24318     0.11963     0.31646   0.0039985
0.030957   -0.063561   -0.085324    -0.28183     0.10534     0.36648   0.0062721
0.036479   -0.077203    -0.11131    -0.31236     0.08585     0.37363  -0.0057458
0.027709   -0.080127    -0.14119    -0.33055    0.059865     0.35024    -0.03173
0.0095202   -0.073631    -0.16328     -0.3325    0.025436     0.31484    -0.06551
-0.0050961    -0.06616     -0.1688    -0.31659   -0.010943     0.28301   -0.096042
-0.0041217   -0.062912    -0.15678    -0.28768     -0.0405     0.25702    -0.11488
0.019589   -0.060638    -0.13469    -0.24773   -0.057065     0.22909    -0.11586
0.058566   -0.049595    -0.10903    -0.19998   -0.064211     0.18946    -0.10546
0.10014   -0.029457   -0.084999    -0.14964   -0.072981     0.13262   -0.094418
0.1297  -0.0063954   -0.062262   -0.097017   -0.089546     0.06084   -0.089221
0.13587    0.012119   -0.038551   -0.045697    -0.11488    -0.01549   -0.092145
0.11476    0.019589   -0.014191   0.0010752    -0.14411   -0.085648   -0.098641
0.06896    0.012443   0.0065969    0.039078      -0.174    -0.14639    -0.10221
0.015042  -0.0024977    0.018615    0.066037    -0.20388    -0.19706   -0.098316
-0.03303   -0.011267     0.02641    0.078379    -0.23149    -0.23603   -0.084349
-0.067459  -0.0047713     0.03453    0.077405    -0.25455    -0.26916   -0.060313
-0.085973    0.015692    0.046548     0.06831    -0.26819    -0.30327   -0.034329
-0.090845    0.036154    0.055643    0.053694    -0.26527     -0.3442    -0.01484
-0.088896    0.039727    0.061814    0.036154     -0.2448    -0.38674  -0.0047713
-0.081426    0.023487    0.065062    0.021538    -0.21265     -0.4254   0.0010752
-0.071357  -0.0028225    0.064413    0.015367    -0.17335    -0.44846   0.0085458
-0.062262   -0.024585    0.062464    0.019589     -0.1308    -0.44034    0.022837
-0.055116   -0.028807    0.065712    0.030308   -0.094743    -0.39487    0.049472
-0.048296  -0.0080194    0.080328    0.043625   -0.068434    -0.31789    0.084551
-0.043748    0.032257     0.10436    0.054019   -0.050244    -0.22726     0.11443
-0.045047    0.073182     0.12515    0.054668   -0.039526    -0.14606     0.12743
-0.050569    0.092996     0.12872    0.042651   -0.034004   -0.087922     0.11671
-0.04992    0.071558     0.11183    0.023162   -0.025234   -0.059664    0.087474
-0.037252    0.011144    0.080328  -0.0015233  -0.0011985   -0.055116    0.052395
-0.008669   -0.063237    0.047847   -0.034004    0.040702   -0.060313     0.02706
0.033231    -0.10936    0.021538   -0.069408     0.10047   -0.063561    0.024786
0.081303   -0.098965   0.0078962    -0.10384     0.16868   -0.064861    0.048172
0.1271   -0.038551   0.0072465    -0.13502     0.24046   -0.065835    0.087474
0.16185    0.037129    0.015042    -0.15678     0.30672   -0.063886      0.1258
0.17842    0.091696    0.029333    -0.15808     0.35706   -0.053168     0.15114
0.17582     0.10631    0.045249    -0.13989      0.3785   -0.035628     0.15958
0.15633    0.084551    0.061165    -0.10838     0.36096    -0.01614     0.14984
0.12418    0.045899    0.074482   -0.075255     0.30477   0.0026992     0.12483
0.089748   0.0085458    0.083901    -0.04862     0.21935    0.019589    0.087799
0.058566   -0.012242    0.087474   -0.035953      0.1245    0.036154    0.049147
0.030633    -0.01549     0.08585   -0.039851     0.03453    0.051096    0.015367
0.0072465  -0.0093186    0.081627   -0.050244   -0.037902    0.066362   -0.010618
-0.0096434  -0.0028225    0.075781   -0.053817    -0.08305    0.082602   -0.027833
-0.020362  0.00042559    0.069285   -0.044073    -0.10091    0.095919    -0.04115
-0.030431  -0.0018481    0.059865    -0.02426   -0.098316     0.10404   -0.050569
-0.042449   -0.013216      0.0433  -0.0063954   -0.087922     0.10436   -0.054792
-0.053168    -0.03173    0.025761   0.0043233   -0.076229    0.098517   -0.054467
-0.052843    -0.04992    0.012443   0.0062721   -0.059339    0.092996    -0.04927
-0.035628   -0.059014   0.0075714   0.0065969   -0.035628    0.095594   -0.044723
-0.0021729   -0.055116    0.010819   0.0088706   -0.012242     0.10729     -0.0405
0.038428   -0.035303     0.01894    0.016666  -0.0018481     0.12548   -0.033679
0.070584  -0.0037969    0.029009    0.030633   -0.016789     0.13814   -0.024909
0.080328    0.027709    0.032257    0.048822   -0.061937     0.13944   -0.021337
0.06896    0.050121    0.026735    0.067661    -0.12073     0.13327   -0.025884
0.046548    0.059541    0.016991    0.083901    -0.17465     0.12548   -0.036927
0.025111    0.054668   0.0049729     0.09462    -0.20388     0.12125   -0.046347
0.010819    0.037129  -0.0015233    0.094295    -0.20225     0.11736   -0.050894
0.0023744    0.013743 -0.00087364    0.084876    -0.17237     0.10794   -0.051544
-0.0083442  -0.0096434   0.0039985    0.074482    -0.12398    0.093645    -0.04927
-0.020037   -0.027183     0.01017    0.073507   -0.069733    0.074157   -0.047646
-0.030106   -0.037902    0.017965      0.0865    -0.01549    0.050121   -0.051544
-0.040825   -0.040175    0.028359     0.11313    0.035505    0.021538   -0.061937
-0.057715     -0.0405    0.036479     0.14594    0.083576   -0.012242    -0.07428
-0.076229   -0.051544    0.037454     0.17485      0.1245   -0.050244   -0.084349
-0.090521   -0.082725    0.028684     0.18654     0.15406   -0.083375   -0.085324
-0.09182    -0.12885   0.0062721     0.17907     0.17257    -0.10286   -0.072331
-0.076229    -0.17172   -0.025884     0.15763     0.18297    -0.10546   -0.046671
-0.045047    -0.18861   -0.059339     0.13197     0.18134   -0.092145  -0.0076946
-0.0024977    -0.16295   -0.084674     0.11054     0.16543   -0.067459    0.042975
0.042001   -0.089546    -0.09182    0.097543     0.14367   -0.034329     0.10079
0.074806    0.021538   -0.078827    0.093321     0.12223      0.0014     0.15373
0.086824     0.14886   -0.043423    0.099492     0.10177    0.031607     0.19141
0.086175     0.26092   0.0017248     0.11801    0.070909    0.048822      0.2109
0.081627     0.32848    0.041676     0.14919    0.019264    0.052395     0.21123
0.080653     0.33985    0.057592     0.18394   -0.054792    0.047198     0.19401
0.081627     0.29762    0.042001     0.21317    -0.13664    0.039402     0.15796
0.079354      0.2174   0.0020496     0.23136    -0.20388    0.035505     0.11086
0.065062     0.12353   -0.049595     0.23656    -0.23928    0.038428    0.064737
0.029658    0.044924   -0.090196     0.23136    -0.24091    0.050121    0.031282
-0.023935   0.0010752    -0.10871     0.22617    -0.22499    0.069285    0.013093
-0.076554    -0.01484    -0.10059     0.22649    -0.21557    0.092996   0.0085458
-0.10189   -0.024909   -0.075579     0.22974    -0.23116     0.11768    0.012768
-0.089546   -0.047971   -0.046996     0.22974    -0.26722     0.14821    0.022188
-0.056091   -0.088247   -0.023935     0.22129    -0.30717     0.18329     0.03518
-0.028157    -0.12982   -0.012242     0.20505     -0.3377     0.22032    0.053369
-0.020037    -0.14314  -0.0067202     0.18784    -0.34907     0.25962    0.078379
-0.021337    -0.10709   -0.007045     0.17225    -0.33705     0.30542     0.11118
-0.015165   -0.025234   -0.008669     0.15796     -0.2984     0.35934     0.15341
-0.00022403    0.071234  -0.0096434     0.14789    -0.23798     0.41033     0.19921
0.0085458     0.13847   -0.012892     0.13814    -0.16393     0.44184     0.23948
-0.0041217     0.15373   -0.018413     0.12255     -0.0824     0.44574     0.26449
-0.03303      0.1219   -0.022636    0.092021  -0.0031473     0.42462     0.26774
-0.061288    0.073832   -0.023935    0.044924    0.070259     0.37753      0.2515
-0.072331     0.03518   -0.020362  -0.0080194      0.1336     0.30964     0.22065
-0.065835     0.01894   -0.015815   -0.054792     0.18102     0.22844     0.18492
-0.04862    0.018615   -0.013541   -0.090521     0.21123     0.14269     0.15114
-0.029457    0.023162   -0.012892    -0.11293     0.22487    0.060515     0.11898
-0.010943    0.028034   -0.013866    -0.11845     0.22714  -0.0063954    0.087799
0.0020496    0.030957   -0.019063    -0.10546     0.22129   -0.044398    0.055643
0.0069217    0.032257   -0.025234   -0.075255     0.21123   -0.045697    0.026085
0.0039985    0.031282   -0.027508   -0.036602     0.19434   -0.014516  0.00042559
-0.00087364    0.029333   -0.024585   0.0039985     0.15763    0.031932   -0.020037
-0.0044465    0.029658   -0.014191      0.0433    0.088773    0.075781   -0.034654
-0.0034721    0.032906      0.0014    0.073507  -0.0099683     0.10144   -0.045372
0.0033489    0.037129    0.017965    0.084226    -0.11845     0.10242   -0.055766
0.017316    0.042651    0.029658    0.062464     -0.2107    0.079679   -0.066485
0.033881    0.046223    0.034855   0.0078962    -0.26202    0.036479   -0.075579
0.04395    0.041027    0.031932   -0.068758    -0.26527   -0.018088   -0.084024
0.049147    0.021538    0.023487    -0.15093    -0.22759   -0.078827   -0.089871
0.053369  -0.0060706    0.014068    -0.22044     -0.1675    -0.14087   -0.092145
0.052395   -0.034978   0.0072465    -0.26916    -0.10514    -0.20583   -0.087597
0.039078   -0.062262   0.0059473    -0.28898   -0.054467    -0.27858   -0.081101
0.01764   -0.086948    0.008221    -0.28086   -0.022961    -0.36433   -0.081101
-0.0031473    -0.10254    0.014392    -0.24805  -0.0093186    -0.45463   -0.092145
-0.017764   -0.098641    0.024786     -0.2042   -0.007045    -0.53811    -0.11033
-0.030106   -0.069408    0.038103    -0.16782   -0.011917    -0.60339    -0.13112
-0.042774   -0.023285     0.05207    -0.14704   -0.018738    -0.64627    -0.14411
-0.055116    0.023487    0.066037    -0.14249   -0.027508    -0.66023    -0.14216
-0.065186    0.053694    0.081303    -0.14346   -0.039201    -0.64594    -0.12592
-0.072656    0.058566    0.093645    -0.14379   -0.052518    -0.61086    -0.10319
-0.07493    0.038428    0.096244    -0.13794   -0.056416    -0.56799   -0.081426
-0.071357   0.0085458    0.084876      -0.123    -0.04115    -0.52739    -0.06616
-0.060313   -0.017114    0.061814   -0.098965  -0.0044465    -0.49296   -0.059339
-0.044723   -0.030756     0.03518   -0.073306    0.038753    -0.46372   -0.064861
-0.03173   -0.034329    0.014068   -0.055766    0.074157    -0.44066   -0.082725
-0.026533   -0.032705   0.0033489   -0.047646    0.099167     -0.4254    -0.11066
-0.028807   -0.030106    0.003024   -0.046671     0.11508    -0.41923    -0.13697
-0.034329   -0.027833    0.010495    -0.04992     0.11866     -0.4202    -0.15126
-0.040825   -0.025559     0.01764   -0.058365     0.11216     -0.4202    -0.15126
-0.046996   -0.023935     0.01894   -0.067134     0.10371    -0.40493    -0.14249
-0.04992   -0.021986    0.013743   -0.072331    0.095269    -0.36563     -0.1243
-0.048296   -0.022636   0.0033489    -0.07428    0.089748    -0.30294    -0.09994
-0.039851   -0.026533  -0.0073698    -0.07493    0.084226    -0.21914   -0.076229
-0.027508   -0.034329    -0.01549    -0.07493    0.082277    -0.12105   -0.052193
-0.017114   -0.041475   -0.020687   -0.073955    0.083901   -0.019712   -0.029782
-0.010293   -0.044073   -0.021986   -0.071682    0.086175    0.072208   -0.013216
-0.0076946   -0.042774   -0.022311   -0.066485    0.083576     0.14529  -0.0067202
-0.0073698   -0.037902   -0.023935   -0.053168     0.06896     0.19531   -0.010618
-0.0050961   -0.032055   -0.025559   -0.032705    0.038428     0.22227   -0.020362
-0.00022403   -0.023935   -0.026209   -0.010943  -0.0034721     0.23071   -0.028157
0.0014   -0.013541   -0.029457   0.0069217   -0.046671     0.22682   -0.028482
-0.0021729 -0.00054884   -0.035953     0.01829   -0.078503     0.22519   -0.021012
-0.0067202    0.017316   -0.047321    0.022512   -0.092469     0.23201  -0.0050961
-0.010618    0.033231   -0.063561    0.023487   -0.084674     0.24468    0.015692
-0.012242    0.038103   -0.080451    0.022188   -0.062262     0.25183     0.03518
-0.014191    0.028034   -0.096042    0.023487   -0.039201     0.25248    0.046873
-0.018413   0.0088706    -0.11131    0.031607   -0.026858     0.24793    0.050121
-0.022961   -0.012892    -0.12235    0.045899   -0.025884     0.24176    0.042651
-0.021661   -0.029132      -0.123    0.064413   -0.033354     0.23526    0.031607
-0.015815   -0.031406    -0.11423    0.087474   -0.040175     0.22779    0.021213
-0.010618   -0.021012    -0.10091     0.11736   -0.045372     0.21902    0.011794
-0.011267  -0.0073698    -0.09117     0.15536   -0.045697     0.20733      0.0014
-0.020687  -0.0015233   -0.088247     0.20343   -0.041799     0.19271   -0.016464
-0.034004   -0.010618   -0.091495     0.25995   -0.032705     0.17257   -0.044398
-0.042774   -0.038551   -0.095393     0.31354   -0.023935     0.15276   -0.073955
-0.038227   -0.080776   -0.097666     0.34635   -0.013866     0.14269   -0.092145
-0.02426    -0.11975   -0.095717     0.35219  0.00010078     0.14756   -0.094418
-0.0057458    -0.13404   -0.084349      0.3327    0.011794     0.16478     -0.0837
0.0046481    -0.10741   -0.062587     0.29827    0.016016     0.18492   -0.060638
-0.0057458   -0.034004    -0.03238     0.26677    0.014392     0.20311   -0.030106
-0.035303    0.071883 -0.00087364     0.24468   0.0069217     0.21642   0.0023744
-0.067784      0.1742    0.025111     0.22747  -0.0024977     0.22129    0.031282
-0.084024     0.23624    0.041351     0.20116  -0.0057458        0.22    0.055968
-0.072981     0.23754    0.048497     0.15633  -0.0028225      0.2135    0.075781
-0.029782     0.18167    0.043625    0.089423   0.0072465     0.20246    0.089098
0.03583     0.09397    0.024786   -0.011267    0.020888     0.18329    0.090722
0.10794   0.0046481  -0.0067202    -0.14769    0.036804     0.14951    0.074482
0.17355   -0.063237   -0.046671    -0.30035    0.046223    0.098193     0.03518
0.22259    -0.10026   -0.087272    -0.44196    0.044924    0.038103   -0.023285
0.24728    -0.09929    -0.11553    -0.55077    0.030957   -0.017114   -0.087272
0.24663   -0.063886    -0.12235    -0.60599    0.015692   -0.055441    -0.13242
0.22617  -0.0060706    -0.10416    -0.59397    0.011794   -0.068434    -0.14184
0.19726    0.055968   -0.069408    -0.52836    0.030308   -0.059339    -0.11553
0.17322     0.11118    -0.03173    -0.43806    0.072858   -0.036927   -0.063237
0.15991     0.15633 -0.00087364    -0.34712     0.13197  -0.0093186  -0.0044465
0.15211     0.18719    0.019264    -0.27371     0.19726    0.016666    0.045574
0.13814     0.19369    0.029333    -0.21785      0.2606    0.037454    0.083576
0.10794     0.16738    0.032906    -0.17627     0.31581    0.053044     0.11541
0.060515     0.10956    0.033881    -0.13957     0.35804    0.062464     0.14269
0.0036737    0.039402    0.033556    -0.10319     0.38435     0.06084     0.15503
-0.040825    -0.01614    0.030633   -0.069733     0.39344    0.045249     0.14691
-0.059339   -0.044073    0.021863   -0.048296     0.38175    0.019589     0.12385
-0.052518   -0.056741    0.010495   -0.039201     0.34602  -0.0096434    0.092671
-0.033679   -0.068434 -0.00087364   -0.033354     0.29048   -0.038227    0.059216
-0.018738   -0.079802  -0.0041217    -0.01484     0.22259   -0.058689    0.032582
-0.01614   -0.081751   0.0039985    0.026085     0.14854    -0.06616    0.022512
-0.027508   -0.064211    0.020888    0.084876    0.072533   -0.058365     0.03518
-0.047321   -0.032705    0.045574     0.15049  -0.0050961   -0.038876    0.059865
-0.068758  -0.0031473    0.073182     0.20473   -0.092469   -0.013541    0.082602
-0.086298   0.0095202    0.096569     0.23429    -0.19836   0.0085458    0.092996
-0.098316    0.003024     0.10826     0.23754    -0.32925    0.024137    0.083251
-0.10449   -0.016789     0.10436     0.22259    -0.47932    0.028684    0.054668
-0.10384   -0.040825    0.090072     0.20246    -0.62093    0.023812    0.011469
-0.094418   -0.064211    0.072208     0.18199    -0.72779    0.015042   -0.034329
-0.073955   -0.080127    0.053044     0.16478    -0.79243    0.010819   -0.071682
-0.042124   -0.080127    0.038428     0.15341    -0.83465    0.015692   -0.093769
-0.011267   -0.058689     0.03518     0.15016    -0.88435    0.031607    -0.10091
0.0069217   -0.025559    0.042651     0.14984    -0.95581    0.053369   -0.094418
0.0043233   0.0020496    0.054993     0.14691     -1.0185    0.071234   -0.077853
-0.013866    0.013093    0.065062     0.14691     -1.0172    0.074806   -0.051868
-0.043099   0.0069217    0.067986     0.15536     -0.9191    0.055643   -0.017764
-0.07428   -0.010618    0.062464      0.1742    -0.72812   0.0078962    0.021213
-0.095068   -0.027833    0.048172     0.19628    -0.48224   -0.067459    0.052395
-0.10091   -0.036278    0.029009     0.21317    -0.22791    -0.16035    0.070259
-0.09182     -0.0405   0.0017248     0.21902  -0.0037969    -0.25357    0.076106
-0.072006   -0.046671   -0.031406     0.20895      0.1703     -0.3338    0.075131
-0.048296   -0.056741   -0.064861     0.18264     0.28821    -0.38934    0.065387
-0.022311   -0.068758   -0.090845     0.14334     0.35349     -0.4189    0.050121
0.0017248   -0.076879    -0.10611    0.099492     0.37558    -0.43222     0.03518
0.017316   -0.080451    -0.10936    0.054668     0.35966    -0.44294    0.023812
0.023487   -0.082076    -0.10254    0.008221     0.32069    -0.46145     0.01829
0.021213   -0.079152   -0.090521   -0.039526     0.28496    -0.49036     0.01764
0.014068   -0.070382   -0.076554   -0.089871     0.27034    -0.52479    0.019914
0.0072465   -0.058689   -0.063237    -0.14054     0.28268      -0.555     0.02641
0.0036737   -0.046996    -0.04927    -0.18179     0.31257    -0.57643    0.034855
0.0023744   -0.040825   -0.034329    -0.20323     0.34375     -0.5826    0.038428
0.00075039   -0.036278   -0.016464    -0.20908     0.36129    -0.55564    0.031282
-0.0041217   -0.028157  -0.0031473    -0.20583     0.36356    -0.47444    0.011469
-0.010293   -0.016464   0.0085458    -0.19576     0.34992    -0.33185    -0.01549
-0.01549  -0.0041217    0.021213    -0.18082     0.32523    -0.15029   -0.044398
-0.021012   0.0043233    0.035505    -0.16555      0.2934    0.038428   -0.070058
-0.028482   0.0043233    0.045249    -0.14964     0.25735      0.2096   -0.087922
-0.035628  -0.0047713    0.047523    -0.12982     0.21285     0.36031   -0.096042
-0.042774   -0.021012    0.045574    -0.10676     0.14886     0.49283   -0.096367
-0.04862   -0.039201    0.042001   -0.084024    0.058891     0.60554   -0.097017
-0.04992   -0.052843    0.040702   -0.058689   -0.041475     0.69389   -0.098965
-0.046347   -0.053817    0.039078   -0.027508    -0.11845     0.74911    -0.10124
-0.034654   -0.043423    0.035505    0.013743    -0.13957     0.76697    -0.10156
-0.017114   -0.025559    0.029658    0.062139   -0.093444     0.74034   -0.098965
-0.0015233  -0.0067202    0.020888     0.11183   0.0085458     0.67115    -0.09182
0.0078962   0.0085458    0.013743     0.15373     0.12613     0.56429   -0.080776
0.011144     0.01829    0.008221      0.1781     0.22032     0.43599   -0.066485
0.008221    0.021863   0.0043233     0.17972     0.27099     0.30412   -0.044723
0.00010078    0.016991 -0.00022403     0.15633     0.28171     0.18069    -0.01549
-0.0044465    0.003024  -0.0054209     0.11378     0.26449    0.062139    0.019264
-0.00054884    -0.01484   -0.010943    0.055968     0.23039   -0.061613    0.054668
0.013418   -0.031081   -0.013541 -0.00054884     0.18816    -0.18407    0.089098
0.033881   -0.036927  -0.0096434   -0.043099     0.14464    -0.28346     0.12288
0.055318   -0.026209   0.0010752   -0.060963     0.10534     -0.3403     0.14724
0.067336  -0.0015233    0.012768   -0.059339    0.068635    -0.36141     0.15244
0.061489    0.029658    0.017965   -0.052193    0.027385    -0.36206     0.12937
0.038753    0.055318    0.016666   -0.054467   -0.022636    -0.35361    0.080328
0.0065969    0.066037   0.0065969    -0.06616   -0.075255     -0.3416    0.020239
-0.022636    0.055643  -0.0096434   -0.082725    -0.11553    -0.32828   -0.029457
-0.047971    0.032582   -0.027508   -0.096042    -0.13534    -0.32113   -0.056416
-0.070707    0.010495   -0.036602   -0.097666    -0.13664    -0.32243   -0.059664
-0.093769  -0.0018481   -0.032055   -0.085648    -0.12592     -0.3325   -0.045372
-0.11521  -0.0015233   -0.018088   -0.061613    -0.10871    -0.34484   -0.027183
-0.12982   0.0088706  -0.0011985   -0.029782    -0.09117    -0.35784   -0.017114
-0.13534    0.024461    0.015042   0.0046481   -0.074605    -0.36303   -0.020037
-0.1308    0.036804     0.02641     0.03583   -0.062587    -0.35296    -0.03173
-0.11748    0.044599     0.03518    0.055968   -0.056091    -0.31789   -0.045047
-0.098965    0.045899    0.041676    0.061489   -0.055441    -0.25325   -0.051868
-0.082076    0.041027    0.048822    0.058566   -0.056416    -0.16718   -0.049595
-0.07428    0.025761    0.055318    0.056617   -0.055116   -0.076879   -0.044073
-0.079802   0.0017248    0.057592    0.062789   -0.055441  -0.0018481   -0.044723
-0.085973   -0.021337     0.05272     0.07773   -0.059989    0.047523   -0.058365
-0.079152   -0.035303    0.033881    0.090397   -0.069083    0.074806   -0.076879
-0.050569   -0.038876   0.0010752    0.095269   -0.081101    0.090072   -0.085648
0.00075039   -0.029457   -0.037577    0.099167   -0.089546     0.10956   -0.070058
0.069934   0.0046481   -0.063237     0.10631   -0.088247     0.14496   -0.028157
0.14529    0.069285   -0.063886      0.1271   -0.074605     0.19336    0.029333
0.21447     0.15568   -0.035628     0.16218   -0.053817     0.24241    0.086824
0.26677     0.23754    0.010495     0.20116   -0.027833     0.27749      0.1284
0.29373     0.28593    0.056617     0.22779  -0.0011985     0.29275     0.14821
0.28756     0.28593    0.084876     0.22974    0.029658     0.29145     0.14464
0.24046     0.23786    0.090722     0.20603    0.066686     0.27586     0.12418
0.15796     0.15016    0.075781     0.17225     0.10534     0.25248    0.095269
0.054993    0.045249    0.049796     0.14334     0.13944     0.22779     0.06831
-0.047321   -0.044398    0.021213      0.1245     0.16575     0.20863    0.046548
-0.12592    -0.10384  -0.0063954     0.11151     0.18264     0.19336    0.031607
-0.16458    -0.13307   -0.031081    0.097868     0.18751     0.17907    0.025761
-0.16165    -0.13599   -0.050894    0.086824     0.18134     0.16283    0.027385
-0.12787    -0.10514   -0.055766    0.080003     0.16705     0.14789    0.033231
-0.076229    -0.02361   -0.043099    0.076106     0.14204      0.1336    0.041676
-0.015165     0.10566   -0.017114    0.072858     0.10729     0.12483    0.053694
0.044275     0.24728   0.0091954    0.071234    0.074157     0.12125    0.071883
0.093645     0.34667    0.019914    0.070909    0.053369     0.12385    0.091372
0.12775     0.36876    0.012119    0.071883    0.050771       0.131     0.10859
0.14659     0.31874  -0.0034721    0.074482    0.063113     0.14204     0.11898
0.15406     0.23266   -0.017439    0.073507    0.075456     0.15179     0.11638
0.15893     0.15309   -0.027183    0.066037     0.07773     0.15276    0.099167
0.16445     0.10371   -0.035628    0.042001    0.060515     0.13977    0.069934
0.1651    0.081627    -0.04992   -0.007045    0.022188     0.11443    0.031607
0.15146    0.064737   -0.070382   -0.073955   -0.028807    0.082277   -0.011267
0.11606    0.039078   -0.094743    -0.14671   -0.077528    0.044924   -0.052518
0.061489  0.00042559    -0.11553    -0.21297    -0.11228   0.0036737   -0.086948
0.0075714   -0.039851    -0.12398    -0.26397     -0.1269   -0.033679    -0.10644
-0.031081   -0.065186    -0.11488    -0.28768    -0.12008   -0.061288    -0.10481
-0.046347    -0.06551    -0.09117    -0.27956    -0.10091   -0.072331   -0.085324
-0.04115   -0.041799   -0.061613    -0.24188   -0.082076   -0.068434   -0.055766
-0.028482   -0.012242   -0.035303    -0.18666   -0.065835   -0.054467   -0.028807
-0.026533   0.0020496   -0.019063     -0.1321   -0.053168   -0.038876   -0.010618
-0.039851  -0.0018481   -0.016464   -0.090196   -0.042774   -0.028807  -0.0060706
-0.061613   -0.013541   -0.026209   -0.063561   -0.035628   -0.028482  -0.0099683
-0.079802   -0.022961   -0.039526   -0.048945   -0.032055    -0.03238   -0.013541
-0.084024   -0.030106   -0.053817     -0.0405   -0.035628   -0.037577  -0.0096434
-0.071032    -0.04862    -0.06551   -0.027833   -0.046347   -0.044723   0.0017248
-0.052193   -0.097017    -0.07493  -0.0015233   -0.060963   -0.053817    0.016666
-0.04115    -0.17562    -0.08305    0.037778   -0.077528   -0.064211    0.028034
-0.036927       -0.25   -0.085973    0.082927    -0.11098   -0.076554    0.023162
-0.021661    -0.27241   -0.077853     0.12255    -0.16718   -0.089871  0.00010078
0.020564    -0.22174   -0.059014     0.14984    -0.24513    -0.10254   -0.030106
0.086175    -0.11228   -0.034654      0.1638    -0.32795    -0.10936   -0.056091
0.15503    0.011144   -0.015165     0.16803    -0.38447    -0.10319   -0.064861
0.20083     0.10404  -0.0015233     0.17225    -0.39064   -0.081426   -0.051868
0.2057     0.14237   0.0085458     0.18297    -0.34484   -0.050569   -0.026858
0.169     0.12645    0.020239     0.20148    -0.26981   -0.017764  0.00075039
0.10014    0.071558    0.034855     0.21837    -0.19478   0.0059473    0.018615
0.008221  -0.0047713    0.048497     0.21155    -0.14152    0.011469    0.018615
-0.094418   -0.082076    0.056292     0.16088      -0.123  -0.0060706    0.003024
-0.18666    -0.14411    0.052395    0.056617    -0.14476   -0.042124   -0.014191
-0.24968    -0.17887    0.031932   -0.092145    -0.19738   -0.091495   -0.017439
-0.27534    -0.18731  -0.0031473    -0.25715    -0.25357    -0.14574  -0.0041217
-0.27241    -0.18342    -0.04115    -0.40623    -0.27696    -0.19413    0.015367
-0.25455    -0.18796   -0.070382    -0.51472    -0.23603    -0.22921    0.020888
-0.22921    -0.21005   -0.086948    -0.56799    -0.12073    -0.25065   0.0075714
-0.18731    -0.24026    -0.09182    -0.56701    0.048172     -0.2578   -0.017439
-0.11975    -0.25422   -0.090196    -0.52641        0.22    -0.25552   -0.039201
-0.03173    -0.23961   -0.085648    -0.47184     0.34115    -0.24578   -0.044723
0.050121    -0.20031   -0.080127     -0.4241     0.37948    -0.23538   -0.036927
0.10534     -0.1597   -0.076554    -0.38772     0.33433    -0.22369    -0.02426
0.12743    -0.13567   -0.072006    -0.35751     0.23331    -0.20063   -0.011917
0.1349    -0.12527   -0.057065    -0.31854     0.11898    -0.15029   0.0056225
0.15731    -0.10286   -0.029132    -0.26137    0.027385   -0.067459    0.032257
0.2044    -0.04115   0.0069217    -0.19089   -0.022961    0.030633    0.057592
0.25345    0.064088    0.049147    -0.12105     -0.0405     0.11183    0.075456
0.26807     0.19563    0.090722   -0.061613   -0.041799     0.15114    0.087474
0.23526     0.31679      0.1271   -0.012567   -0.034004     0.14919     0.10339
0.16543     0.39474     0.15406    0.029009   -0.019712     0.12223     0.12548
0.084876     0.41358     0.16608    0.064088 -0.00022403    0.088773     0.14821
0.009845     0.37525     0.16283    0.085525    0.015692    0.055643     0.16835
-0.051219     0.29925     0.14886    0.089423    0.016016    0.020239      0.1755
-0.092145     0.21317      0.1323    0.080978   -0.013216   -0.015165      0.1716
-0.10838     0.14269     0.12125    0.073832   -0.076554    -0.04927     0.16315
-0.097991    0.094945     0.11768    0.074806    -0.16523   -0.078178     0.14854
-0.063237    0.070909     0.11931      0.0852    -0.26104   -0.094743     0.13067
-0.016789    0.063438     0.12353     0.10079    -0.34225   -0.092145     0.10989
0.02641    0.063438      0.1219     0.11768    -0.38902   -0.069083    0.088773
0.054668    0.059216     0.11086     0.13555    -0.39487    -0.03303    0.066362
0.064413    0.046223    0.094945     0.15276    -0.35719   0.0062721    0.045574
0.060515    0.023812     0.07773     0.16543     -0.2867    0.044275    0.025761
0.052395 -0.00087364    0.064737      0.1729    -0.20096    0.078055   0.0088706
0.043625   -0.018413    0.055968      0.1716    -0.11001     0.10566  -0.0028225
0.028359   -0.028157    0.050771      0.1638   -0.025884     0.12418  -0.0099683
0.0010752    -0.03238    0.045899     0.15438    0.048497     0.13165   -0.011917
-0.034654   -0.032705    0.039078     0.14529     0.11313     0.12937   -0.011917
-0.070707   -0.031406    0.030308     0.13782     0.17192      0.1271   -0.010943
-0.09929   -0.028157    0.023812      0.1323        0.22     0.13035   -0.016789
-0.1191   -0.025234    0.020239     0.12905     0.23721     0.14107   -0.036927
-0.1282    -0.02361    0.016991     0.13067     0.20635     0.15114   -0.071032
-0.13047   -0.019063    0.011794     0.13652     0.12872     0.14951    -0.11163
-0.12755   -0.015815   0.0026992     0.14334    0.021863      0.1271    -0.15093
-0.12105   -0.017764   -0.012567     0.14496   -0.084024    0.086175    -0.17919
-0.11261   -0.025559   -0.032055     0.14237    -0.16653    0.037778    -0.18926
-0.10156   -0.038876   -0.052843     0.13977    -0.22109  -0.0024977    -0.18212
-0.088247   -0.056416   -0.067134     0.14009     -0.2474   -0.025559    -0.16588
-0.072981   -0.073631   -0.072006     0.14074    -0.24773   -0.035303    -0.14964
-0.059989   -0.084024   -0.067134     0.13782    -0.22499   -0.037577    -0.13534
-0.053492   -0.081751   -0.055766      0.1271    -0.18601   -0.041799    -0.12333
-0.055441   -0.071682   -0.044073     0.11151    -0.13892   -0.054467    -0.11001
-0.061937   -0.056416   -0.034654    0.094945   -0.085648   -0.073306   -0.095393
-0.065186   -0.039526   -0.031081    0.080978   -0.030106   -0.090845   -0.078178
-0.060313   -0.026858   -0.031406    0.070259    0.021538    -0.10124    -0.05804
-0.051219   -0.022636   -0.035303     0.06084    0.067336   -0.096367   -0.038227
-0.042774   -0.023285   -0.038227    0.051096     0.10826   -0.076554   -0.030756
-0.034978   -0.027508   -0.037577    0.038753     0.14496   -0.041799   -0.034004
-0.026858   -0.031081   -0.033679    0.029658     0.17745   0.0026992   -0.046022
-0.018413   -0.032055   -0.032705    0.028684     0.20343    0.048497   -0.063561
-0.0099683    -0.03303   -0.035953    0.038753      0.2187    0.084876     -0.0824
-0.00022403   -0.035628   -0.044398    0.053044     0.22065     0.10696   -0.094743
0.0056225   -0.036927   -0.053492    0.060515     0.20765     0.11573   -0.097341
0.0052977   -0.038551   -0.057065     0.06019     0.18232     0.11183   -0.092469
0.00075039   -0.036927   -0.055116    0.055318     0.15341     0.10242   -0.084024
-0.0031473   -0.031081   -0.050569    0.049147     0.13262     0.09397   -0.074605
-0.0063954   -0.023285   -0.044398    0.042326      0.1232    0.088773   -0.064211
-0.0050961   -0.017114   -0.041475    0.034855     0.12678    0.079679   -0.052843
0.00075039   -0.011917   -0.042124    0.029983     0.13912    0.057917   -0.043748
0.010495  -0.0057458   -0.042449    0.030957     0.15211    0.019914   -0.039201
0.020239      0.0014   -0.036602     0.03518     0.16121   -0.031081   -0.038876
0.026735    0.010819   -0.024585    0.042651      0.1625    -0.09182   -0.039201
0.030957    0.019589   -0.017114    0.054019     0.15373    -0.15386   -0.038551
0.033881    0.025436   -0.022636    0.067336     0.14009    -0.20972   -0.036278
0.034206    0.027385   -0.041799    0.077405     0.12613    -0.25682   -0.031406
0.031932     0.02706    -0.06551    0.082602     0.11346    -0.29645   -0.024909
0.024137    0.023812     -0.0837    0.082277     0.10404    -0.33283   -0.016464
0.016666    0.020888   -0.091495    0.078055    0.097543    -0.36238  -0.0083442
0.010819    0.019914   -0.085973    0.074806     0.09462     -0.3783  -0.0047713
0.008221    0.019914   -0.072006    0.079029    0.090397    -0.37733   -0.008669
0.0052977    0.017316   -0.052193    0.089098    0.082277    -0.36238   -0.017764
-0.00087364    0.012443   -0.034654     0.10177    0.071558    -0.34062   -0.032055
-0.012892   0.0049729    -0.02361     0.11346    0.057917    -0.31366    -0.04927
-0.026858  -0.0015233   -0.017764     0.12028    0.042326    -0.28411   -0.061613
-0.037252  -0.0054209   -0.013866     0.11768     0.02641    -0.25487   -0.062912
-0.039526  -0.0041217  -0.0073698     0.10664    0.014068    -0.22564   -0.054792
-0.029132 -0.00054884   0.0010752    0.080978   0.0069217    -0.19641   -0.046671
-0.0093186   0.0059473   0.0078962    0.041027   0.0052977     -0.1714   -0.042449
0.011469    0.012768     0.01017   -0.014191   0.0065969    -0.15223   -0.039851
0.024461    0.020564   0.0043233   -0.080127    0.008221    -0.13697   -0.042124
0.032582    0.023812  -0.0047713    -0.14769   0.0091954    -0.11845   -0.047321
0.036479     0.01764   -0.012242     -0.2042   0.0088706   -0.084349   -0.051544
0.033231   0.0049729   -0.016789    -0.24156   0.0059473   -0.027508    -0.04992
0.023162  -0.0099683   -0.013866    -0.25357 -0.00087364    0.042326   -0.040825
0.0056225    -0.02426  -0.0073698     -0.2461  -0.0099683     0.10534   -0.027833
-0.017114   -0.037577      0.0014    -0.23019   -0.014191     0.14756   -0.011592
-0.039201   -0.044073    0.008221    -0.21167   -0.010943     0.16185   0.0026992
-0.055441   -0.045697    0.011469    -0.19024 -0.00054884     0.15211    0.011469
-0.062912   -0.043423    0.013743    -0.16133   0.0088706     0.13035    0.011469
-0.063237   -0.039851    0.016016    -0.12657    0.010495     0.10989   0.0020496
-0.062262   -0.035628    0.015042    -0.08305   0.0020496    0.099492   -0.007045
-0.061288   -0.030106   0.0088706   -0.034978   -0.011917     0.10112  -0.0089938
-0.064536   -0.027833 -0.00054884    0.014068   -0.023935     0.11021   0.0010752
-0.064536   -0.030106  -0.0099683    0.054344    -0.03303     0.12483    0.023487
-0.056741   -0.034654   -0.016789    0.078704   -0.034978     0.14302    0.055318
-0.042124   -0.036927   -0.021986    0.088124   -0.029782     0.16088    0.087799
-0.022311    -0.03303   -0.027508    0.086824   -0.019712     0.17387     0.11313
-0.0031473   -0.025559   -0.034004    0.074157  -0.0096434     0.17972     0.12483
0.011469   -0.018088   -0.042124    0.044924  -0.0031473      0.1768      0.1232
0.016666   -0.012242   -0.045697 -0.00087364  -0.0083442      0.1651     0.10989
0.015042  -0.0083442   -0.046347   -0.059664    -0.02361     0.14561    0.091696
0.0088706  -0.0047713   -0.048296    -0.12592   -0.042449      0.1219    0.075781
0.0017248  -0.0024977   -0.047971    -0.19738   -0.054467     0.10209    0.062789
-0.00022403  -0.0034721   -0.042124    -0.26007   -0.053168    0.088448    0.052395
0.0049729   -0.007045   -0.029457    -0.30619   -0.042124    0.080328      0.0433
0.012768   -0.010618   -0.014191    -0.33088   -0.030756    0.079679    0.037778
0.01829  -0.0083442  -0.0015233    -0.32958   -0.025234    0.083901     0.03518
0.021213      0.0014   0.0069217    -0.30359   -0.021012    0.090722    0.033556
0.022188    0.016341    0.010819    -0.25617   -0.012892    0.099817     0.03453
0.022188    0.032257    0.010819    -0.19673    0.003024     0.10989    0.039727
0.027709     0.04395   0.0091954    -0.13567    0.022188     0.11898    0.046873
0.042001    0.050121   0.0078962   -0.079802    0.042651     0.12775    0.054993
0.063438    0.049147    0.010495   -0.038876    0.063763     0.13522     0.06019
0.082927    0.045574    0.016666   -0.013216    0.079029     0.13912     0.06019
0.094295    0.042651    0.028034  0.00075039    0.087149     0.13684    0.055968
0.093321    0.042651    0.042651    0.013093      0.0852      0.1271    0.047198
0.083576    0.046548    0.055968    0.028359    0.072858     0.11118    0.038103
0.067011    0.048172    0.064088    0.044924    0.056292    0.093321    0.031932
0.046873    0.048822    0.063763    0.058891    0.038103    0.081952    0.027709
0.027709    0.047847    0.051745    0.064737    0.021538    0.074157    0.023487
0.014068    0.045249    0.032582    0.063763    0.011469    0.067986    0.017965
0.0072465    0.038103    0.017965    0.062139    0.012119    0.058566    0.013418
0.0088706    0.030308   0.0095202    0.064413    0.020239    0.045249    0.012443
0.015042    0.024461   0.0078962    0.070259    0.031607    0.030633    0.014068
0.020564    0.023487   0.0095202    0.078379    0.038753    0.015367    0.013743
0.025111    0.023162    0.012119    0.081952    0.037129  0.00042559    0.010819
0.025436    0.023162   0.0095202    0.078379    0.024461   -0.010943   0.0039985
0.022188    0.022512   0.0059473    0.073832  -0.0034721   -0.017114  -0.0024977
0.01764    0.019589   0.0069217    0.076431   -0.047646   -0.019388  -0.0047713
0.01017    0.016991   0.0095202    0.093645    -0.10416   -0.014191  -0.0031473
0.0036737    0.012768    0.014068     0.12288    -0.17107 -0.00087364  -0.0034721
-0.0015233   0.0085458     0.01894     0.15503    -0.25195    0.016016  -0.0080194
-0.0047713   0.0052977    0.023812     0.17452    -0.35004    0.029333   -0.017764
-0.0096434   0.0020496    0.027709     0.17907    -0.46437    0.034206   -0.029457
-0.017764 -0.00087364    0.030957     0.17647    -0.57871    0.030633   -0.039201
-0.028157  -0.0028225     0.03583     0.17127    -0.66381    0.021213   -0.046347
-0.038227  -0.0037969    0.044275     0.16933    -0.69466    0.011469   -0.052843
-0.046022   -0.010943    0.051096     0.16933    -0.66316   0.0075714   -0.058365
-0.052193   -0.034329    0.054019     0.16543    -0.58098    0.016991   -0.063886
-0.060313   -0.078827    0.049472     0.15731    -0.47217    0.044275   -0.070058
-0.073306    -0.13242    0.037778     0.14496    -0.35816    0.090397   -0.076879
-0.090196    -0.17205    0.023162      0.1284    -0.26169     0.14594    -0.09117
-0.10838    -0.18342    0.012119     0.10761    -0.19381     0.20083     -0.1191
-0.12105     -0.1675   0.0062721    0.083576    -0.14899     0.24338     -0.1636
-0.11975    -0.13729   0.0036737    0.057917    -0.11423     0.26449    -0.21849
-0.11293    -0.10384  -0.0028225    0.031932   -0.075904     0.25897    -0.27144
-0.1178   -0.080127    -0.01614   0.0069217   -0.028157     0.23461    -0.31009
-0.14444   -0.079802   -0.034329   -0.013866    0.028684     0.19856    -0.33153
-0.18309    -0.10644    -0.05804   -0.033354    0.089423     0.15146    -0.33932
-0.22142    -0.14509   -0.091495   -0.054792     0.14691    0.084876    -0.33705
-0.25585    -0.17692    -0.13664   -0.078178     0.20213   -0.011592    -0.32146
-0.288    -0.19089    -0.18277   -0.096042     0.25443    -0.13664    -0.29158
-0.30197    -0.18374    -0.21492   -0.096692     0.30867    -0.27664    -0.24383
-0.25975    -0.15061    -0.22402    -0.07428     0.37006    -0.41403    -0.16977
-0.123   -0.087922    -0.20908    -0.03303     0.44021    -0.52901   -0.067784
0.11541   0.0095202    -0.17367    0.020564     0.51427    -0.61151    0.057592
0.43015     0.14042    -0.12495    0.073507     0.57858    -0.65861     0.19434
0.76502     0.29925   -0.066485     0.11995     0.62146    -0.67647     0.32653
1.0479     0.47432  -0.0037969     0.15698      0.6364    -0.67517     0.44411
1.211     0.63705    0.054344     0.18459     0.62665    -0.66705     0.53766
1.2133     0.73806    0.095594     0.19921     0.59872    -0.65763     0.60262
1.0528     0.73222     0.11086     0.20018     0.55455    -0.64497      0.6338
0.77801     0.61529    0.098842     0.18524     0.48991     -0.6271     0.63185
0.4688     0.43209    0.066686     0.15341     0.38695    -0.60047     0.60489
0.20213     0.25085    0.030633     0.10761     0.21967    -0.55727     0.57209
0.012443     0.11931   0.0033489    0.058891   -0.020037    -0.48549      0.5539
-0.11131    0.045899  -0.0044465    0.021213    -0.30424    -0.36563     0.56137
-0.19771    0.016991    0.010495  0.00042559    -0.56766    -0.18342     0.59028
-0.26949    0.012768    0.040052  -0.0067202    -0.73396    0.062789     0.62211
-0.32438     0.01829    0.074157  -0.0057458    -0.75767     0.34602     0.63315
-0.34809    0.021863     0.10079   -0.010618    -0.65309     0.61659     0.60976
-0.3338    0.016341     0.10826   -0.032705    -0.49166     0.83421     0.54903
-0.2919  -0.0041217    0.094945   -0.077203    -0.35621     0.98069     0.46068
-0.23149   -0.038876    0.066362    -0.13697    -0.30749      1.0564     0.35934
-0.16035     -0.0837    0.032906    -0.19836    -0.34712      1.0759     0.26482
-0.093119    -0.12105    0.008221     -0.2461    -0.42702      1.0483     0.19141
-0.038551    -0.12657   0.0020496    -0.27046    -0.48321     0.97647     0.13717
-0.0063954   -0.085973    0.016341    -0.26851    -0.47607     0.85857    0.088448
-0.0028225   -0.015815    0.041676    -0.24708    -0.39974     0.69909    0.033231
-0.026858    0.048822    0.061489    -0.21232    -0.27436     0.51167   -0.033354
-0.076229    0.083251    0.067986    -0.17432    -0.11813     0.31971   -0.094743
-0.13892    0.076106    0.062139    -0.13827    0.046873     0.14594    -0.13437
-0.19446    0.025761    0.046223    -0.10903     0.18134   0.0095202    -0.14736
-0.22824   -0.058689     0.02706   -0.078827      0.2489   -0.085973    -0.14606
-0.23571    -0.14899    0.011144   -0.042124     0.23883    -0.15029    -0.14054
-0.22174    -0.20972    0.009845  0.00010078      0.1638    -0.20615    -0.14184
-0.19738    -0.22174    0.022512    0.038753     0.05142    -0.26851    -0.15711
-0.1753    -0.19121    0.042975    0.064088   -0.069408     -0.3403    -0.18342
-0.15743    -0.14054    0.064737    0.071234    -0.17367    -0.41208     -0.2159
-0.14216   -0.090845    0.082277    0.062464    -0.23798    -0.47704    -0.24838
-0.12592   -0.053817    0.090072    0.044275     -0.2487    -0.52869    -0.27241
-0.10774    -0.03173    0.081952    0.022837    -0.21395    -0.56766    -0.28508
-0.089871   -0.021012    0.059216   0.0023744    -0.15516     -0.5917    -0.28281
-0.075255   -0.017114    0.028034    -0.01484   -0.092794    -0.59917    -0.27176
-0.062587   -0.017439  0.00010078   -0.025884   -0.041799    -0.59105    -0.26007
-0.04992   -0.024585   -0.016789   -0.028482   -0.012892    -0.56864    -0.24968
-0.038227   -0.037252    -0.02426   -0.018088  -0.0018481    -0.53063     -0.2435
-0.033679   -0.050569   -0.026858   0.0052977  0.00042559    -0.47737    -0.24513
-0.036278   -0.061288   -0.022636    0.035505   0.0026992    -0.40656    -0.25065
-0.042449    -0.06551   -0.016789    0.067661   0.0088706    -0.32568    -0.25682
-0.04927    -0.06551   -0.011267    0.095594     0.01894    -0.24383    -0.26299
-0.055116   -0.060313  -0.0099683     0.11866    0.033881     -0.1688    -0.26754
-0.060638   -0.054142    -0.01484     0.13782    0.054668    -0.10481    -0.27046
-0.063886   -0.050569   -0.025559     0.15926    0.082602   -0.051544    -0.26981
-0.064536    -0.04927   -0.035953     0.18492     0.11313   -0.008669    -0.26689
-0.063886    -0.04992   -0.039526      0.2109     0.14107    0.021863     -0.2591
-0.064861   -0.051219   -0.038551     0.23494     0.16023     0.04395    -0.25065
-0.069408   -0.051544   -0.035303      0.2554     0.16608    0.059216    -0.24221
-0.078503   -0.049595   -0.033679     0.26937     0.15861    0.067986    -0.23376
-0.085324   -0.046022   -0.037577     0.28041     0.13684    0.069934    -0.22791
-0.085973   -0.042449   -0.042774       0.296     0.10859    0.065062    -0.22272
-0.084024   -0.039851   -0.038227     0.31646    0.088448    0.056942    -0.21492
-0.080127   -0.041475   -0.029132     0.33205    0.086175    0.047847    -0.20355
-0.072981   -0.046671   -0.021337     0.32913     0.10144    0.040702    -0.19219
-0.063561   -0.048945   -0.020362     0.30282     0.12807    0.036804    -0.18342
-0.051544   -0.046671   -0.026533     0.25443     0.15698    0.033556    -0.17789
-0.039526   -0.037902   -0.039526     0.17939     0.18232    0.030308    -0.16815
-0.030756   -0.028157   -0.057065    0.069934     0.19791    0.030633    -0.15256
-0.026533   -0.020037   -0.073955   -0.080127     0.20148    0.036479    -0.13437
-0.025234    -0.01484   -0.082076    -0.25098     0.19466    0.046223     -0.1204
-0.023935   -0.011592   -0.079802    -0.41663     0.17939    0.054993    -0.11001
-0.021012  -0.0093186   -0.072331    -0.55467     0.16056    0.056942    -0.10579
-0.012242  -0.0083442    -0.06616    -0.65763     0.14529    0.055318    -0.10189
-0.0011985  -0.0057458   -0.060638    -0.72487     0.14107    0.051096   -0.096692
0.0059473  -0.0024977   -0.056416     -0.7541     0.14626    0.046548   -0.089221
0.0075714  -0.0034721   -0.054142    -0.74436     0.15438    0.047523   -0.081426
0.0043233   -0.007045   -0.052518    -0.70083     0.15568    0.054019   -0.071682
-0.00054884   -0.010943    -0.04992    -0.63197     0.14984    0.067011   -0.060963
-0.0041217   -0.010943   -0.046022     -0.5485     0.14269    0.081627   -0.046347
-0.0050961  -0.0067202   -0.038227     -0.4621     0.13425    0.089098   -0.027183
-0.0024977 -0.00054884   -0.027833    -0.38122     0.12353    0.088124  -0.0060706
0.0014   0.0059473    -0.01549    -0.31399     0.11183    0.075781    0.012119
0.0075714     0.01017  -0.0037969    -0.26494    0.099817    0.059216    0.022837
0.016991    0.013743   0.0052977    -0.22954    0.090722    0.044924    0.026735
0.02706    0.019264   0.0095202    -0.19511    0.080978    0.038428    0.029009
0.033231    0.025111     0.01017    -0.14769    0.069934    0.041351     0.03518
0.03518    0.029009   0.0091954   -0.086623     0.06019    0.045899    0.042326
0.036479    0.029009    0.012768   -0.025559    0.053044    0.051745    0.045899
0.042001     0.02706    0.021213    0.029009    0.047523    0.058891    0.046873
0.05207    0.025111    0.030308    0.074806    0.044599     0.06961    0.048172
0.061814    0.026085    0.035505     0.11346    0.042326    0.080328    0.055318
0.064088    0.030633    0.036479     0.14237    0.039402    0.089423    0.064413
0.056292    0.038428     0.03453     0.16121     0.03518    0.095269    0.070909
0.0433    0.044924    0.034206     0.16965    0.028684    0.093645    0.070909
0.031282    0.046223     0.03518     0.16965    0.021213    0.081303    0.065387
0.021863    0.042326    0.031607     0.16283    0.013743    0.065712     0.06019
0.01894    0.036154    0.022188     0.15406   0.0062721    0.053044    0.056617
0.01829    0.027385    0.014392     0.15146  -0.0021729      0.0433    0.054344
0.016341     0.01894    0.013093     0.15763   -0.011917    0.034206    0.049796
0.01017    0.013093    0.019264     0.16998   -0.021661    0.022188    0.042001
0.0043233   0.0085458    0.026735     0.18459    -0.03238   0.0095202    0.039078
0.0033489   0.0039985    0.029983     0.19758   -0.046996  -0.0011985     0.04395
0.0056225  -0.0028225     0.02706     0.20538   -0.064536  -0.0037969     0.05142
0.0072465   -0.012567    0.016666      0.2083   -0.080127  -0.0018481    0.053044
0.0078962   -0.021012   0.0062721     0.20668   -0.090845  -0.0015233    0.051096
0.0069217    -0.02426   0.0026992      0.2057   -0.092794  -0.0047713    0.045899
0.0056225   -0.020687   0.0056225     0.21123   -0.089221  -0.0093186    0.041676
0.00075039   -0.011267    0.012768     0.22292   -0.084674   -0.011592    0.037129
-0.0024977  -0.0011985     0.01829     0.23689   -0.082725   -0.012567    0.037129
-0.00087364   0.0059473    0.018615     0.24988   -0.087922    -0.01549    0.041676
0.0033489   0.0069217    0.016341     0.25865   -0.098965   -0.021337    0.049796
0.0091954   0.0033489    0.015042     0.26125    -0.10903   -0.030431    0.056292
0.015692 -0.00087364    0.015042       0.258    -0.11228   -0.039201    0.063438
0.020564  -0.0015233    0.013743     0.25053    -0.10709   -0.046671    0.067661
0.022837   0.0010752     0.01017     0.23818   -0.097991   -0.052518    0.066686
0.025111   0.0069217   0.0056225     0.22487   -0.087922    -0.05739    0.061489
0.028359    0.012768   0.0026992      0.2122   -0.079802   -0.060638    0.059541
0.032257     0.01829      0.0014     0.20051   -0.075579   -0.061613    0.062789
0.03453    0.021213 -0.00054884     0.19109   -0.070707   -0.059339    0.068635
0.033881    0.022837  -0.0011985     0.18362   -0.068109   -0.054467    0.073832
0.031282    0.022188  -0.0011985     0.17452   -0.070058   -0.053492     0.07708
0.028359    0.017965  -0.0018481     0.15861   -0.078503   -0.056741    0.080328
0.022512    0.011469  -0.0024977      0.1349   -0.090196   -0.063237    0.083576
0.015367   0.0036737  -0.0044465     0.10989   -0.097666   -0.067784    0.088124
0.01017  0.00042559  -0.0060706    0.088124   -0.095717   -0.070707    0.087799
0.009845   0.0049729  -0.0067202    0.074482   -0.084999   -0.071032    0.082927
0.016341    0.016016   -0.010618     0.06961   -0.069733   -0.068758     0.07708
0.021213    0.028684    -0.01614    0.070259   -0.056091   -0.062912    0.071234
0.020888    0.037778   -0.026533    0.073832   -0.047646   -0.053168    0.063763
0.013093    0.040377   -0.037902    0.076106   -0.047971   -0.043748    0.057592
0.003024    0.039402   -0.046671    0.076106   -0.054142     -0.0405    0.055318
-0.0057458    0.036479   -0.053168    0.072533   -0.067134   -0.042449    0.060515
-0.008669    0.032582   -0.059664    0.064088   -0.081101   -0.043099    0.070584
-0.0050961    0.032257   -0.059989     0.05142   -0.089221   -0.038876    0.080978
0.0017248    0.033231   -0.052518     0.03583   -0.092469   -0.033679    0.087474
0.010819    0.032582   -0.041799    0.020888   -0.097017   -0.031081     0.08585
0.019589     0.02706   -0.034654   0.0072465    -0.10838   -0.032055    0.078055
0.028359    0.016016   -0.034329  -0.0099683    -0.12268   -0.032705    0.065712
0.034206   0.0046481   -0.039851   -0.031406     -0.1321   -0.028807     0.05207
0.037129 -0.00087364   -0.049595   -0.052843    -0.13047   -0.022961    0.041351
0.03453  0.00075039   -0.059664   -0.067459    -0.11943   -0.020362    0.032906
0.02641    0.003024   -0.062587   -0.070707    -0.10676   -0.021661    0.027709
0.015692   0.0026992   -0.059339   -0.062912   -0.096042   -0.025884    0.024461
0.013093 -0.00054884   -0.051544   -0.046671   -0.090521   -0.031081    0.020239
0.018615  -0.0037969   -0.044723   -0.028482   -0.087922   -0.033354    0.017316
0.029983  -0.0041217   -0.039201   -0.014516   -0.085648   -0.033354    0.020564
0.039078  0.00075039   -0.035953   -0.011917   -0.079152   -0.031081    0.030633
0.041676   0.0091954   -0.031406    -0.01484   -0.068434   -0.025234    0.042326
0.041027    0.014392   -0.023285   -0.017439   -0.055116   -0.018088    0.049147
0.03583    0.011144   -0.012892   -0.014516   -0.042124   -0.013216    0.047523
0.029009  0.00075039  -0.0037969   -0.011267   -0.033679   -0.011267    0.041027
0.021213  -0.0089938  -0.0011985   -0.014191   -0.028482   -0.010618    0.036804
0.013418   -0.015165  -0.0041217    -0.02361   -0.025884  -0.0093186    0.036154
0.0056225    -0.01484   -0.011592   -0.034978   -0.026533  -0.0093186    0.040702
-0.0015233   -0.013216   -0.020362   -0.041475   -0.031406   -0.012892    0.045249
-0.010618   -0.012892   -0.027183   -0.038551   -0.036927   -0.017114    0.046223
-0.01549   -0.011592   -0.028482   -0.027183   -0.039851    -0.01614    0.036804
-0.015815   -0.010293   -0.024585   -0.012242   -0.040175  -0.0089938    0.019589
-0.012567  -0.0067202   -0.017114  -0.0034721   -0.037902   0.0017248  -0.0021729
-0.0073698  -0.0018481  -0.0089938  -0.0037969   -0.036278    0.011144   -0.022636
-0.0015233  0.00010078   0.0020496   -0.013541   -0.040175    0.015042    -0.03238
0.0043233 -0.00054884    0.009845   -0.026533   -0.051219    0.009845   -0.030106
0.0056225  -0.0034721    0.012768   -0.036602   -0.070707 -0.00087364   -0.021661
-0.0024977  -0.0047713    0.014717     -0.0405   -0.091495   -0.013216   -0.014191
-0.021337  -0.0018481    0.019589   -0.034978    -0.10806   -0.028157   -0.013866
-0.04992   0.0043233    0.025761   -0.022636    -0.11618   -0.044398   -0.027183
-0.077853    0.012443    0.034206   -0.010943    -0.11553   -0.061937   -0.051219
-0.095393    0.012443    0.041027  -0.0021729    -0.11163   -0.080451   -0.079802
-0.10124  -0.0096434     0.04395   0.0020496    -0.10903   -0.094418    -0.10449
-0.10546   -0.058689    0.040702  0.00075039    -0.11098    -0.10124      -0.123
-0.11228    -0.13047    0.030633  -0.0067202     -0.1178    -0.10741    -0.14087
-0.11683    -0.21622    0.010819   -0.019388     -0.1308     -0.1191     -0.1701
-0.11261    -0.30359    -0.01484   -0.037252    -0.14964    -0.13924    -0.21135
-0.10611     -0.3744   -0.036927   -0.053492    -0.16653    -0.16263    -0.25682
-0.11098     -0.4163   -0.046671   -0.064536    -0.17075    -0.18634    -0.30229
-0.13469     -0.4267   -0.046022   -0.072331    -0.15776     -0.2068     -0.3442
-0.1675    -0.40753   -0.046347   -0.085648     -0.1282    -0.22109    -0.37018
-0.18634    -0.36433   -0.059014    -0.10806   -0.087597     -0.2172    -0.35946
-0.17659      -0.301   -0.090196    -0.13729    -0.04115    -0.18666    -0.29775
-0.13534    -0.22272    -0.13534    -0.15841    0.010819     -0.1256    -0.19024
-0.079802    -0.12495    -0.17432    -0.15841    0.071558   -0.044723   -0.062912
-0.030431    0.015042    -0.18244    -0.13567     0.13847    0.036479    0.057267
0.016016      0.2109    -0.14671   -0.094093     0.20603     0.10826     0.16445
0.083251     0.44444   -0.073631   -0.043423     0.26644     0.17322     0.26644
0.17939     0.66238    0.018615    0.011469     0.30704     0.23689     0.36161
0.28171      0.8014     0.10371    0.063113     0.31516     0.29178     0.43404
0.35641     0.81959     0.15893     0.10436     0.28756     0.32588      0.4597
0.37948     0.71403     0.17745     0.12775     0.23104     0.32978     0.42592
0.35024     0.51979     0.16023      0.1336      0.1677     0.31419      0.3457
0.28885     0.29438     0.11931     0.13035     0.12288     0.30347     0.25053
0.22194    0.086824    0.071234     0.12353     0.10794     0.31224     0.17517
0.1664   -0.064211    0.033881     0.11573     0.11995     0.34082     0.14269
0.11736    -0.12982    0.017965     0.10274     0.15146     0.38045     0.14919
0.056942   -0.092469    0.021538    0.082602     0.19206     0.41456     0.17647
-0.011267    0.027709    0.036479    0.056617     0.23786     0.43015     0.20278
-0.062587     0.17907    0.055318    0.028359      0.2895     0.42495     0.22097
-0.068109     0.29633     0.06961   0.0033489     0.33855     0.41131     0.23396
-0.019388     0.32881    0.075131    -0.01484     0.37168     0.40416     0.24306
0.062464     0.27002    0.072208    -0.03238      0.3772     0.40416     0.24371
0.14367     0.15536    0.063113   -0.060963     0.35739     0.40579     0.23461
0.19336    0.033881    0.056292    -0.10254     0.31939     0.40091     0.21447
0.20635   -0.059664    0.053369    -0.15288     0.26514     0.38078     0.18264
0.19596    -0.11163    0.048172    -0.19868     0.19109     0.33952     0.13425
0.17452    -0.11683    0.033231    -0.23279    0.096244     0.27749    0.069285
0.14594   -0.088896    0.008221    -0.25455   -0.025559     0.19791  -0.0015233
0.11736   -0.043423   -0.019388    -0.26722    -0.16847     0.10891   -0.059989
0.091696  0.00010078   -0.043748    -0.26754    -0.31854    0.021213   -0.084674
0.070584    0.031607   -0.058689     -0.2513    -0.46665   -0.048945   -0.064211
0.047523    0.044275   -0.060638    -0.21882    -0.60534   -0.097341   0.0036737
0.020888    0.038753   -0.047646      -0.174    -0.72357     -0.1295    0.099492
-0.0057458    0.012119   -0.021986    -0.12365    -0.78593    -0.16263     0.18751
-0.026858   -0.028157     0.01017   -0.076879    -0.76287    -0.21427     0.23786
-0.040825   -0.065835    0.040377   -0.043748    -0.65536    -0.28898     0.24013
-0.051219   -0.076879    0.061814   -0.031406    -0.49361     -0.3744     0.20895
-0.063561    -0.04927    0.072858   -0.040175    -0.31659    -0.44748     0.16283
-0.077528   0.0046481    0.071558   -0.067459    -0.15548    -0.49815     0.11736
-0.085973    0.050446    0.053369    -0.11163   -0.019063    -0.52381    0.080978
-0.079477     0.05142    0.022188     -0.1675    0.092671    -0.52609    0.050771
-0.056416      0.0014  -0.0083442    -0.22207     0.17939    -0.50627    0.016016
-0.027833   -0.079477   -0.027183    -0.26267     0.24176    -0.46697   -0.030756
-0.0024977    -0.16555   -0.034654    -0.28476     0.27944    -0.40006   -0.084349
0.0088706    -0.23441   -0.036278    -0.28216     0.30412    -0.29775    -0.12787
0.00042559    -0.26916   -0.037577     -0.2578     0.32588     -0.1714    -0.15126
-0.022311    -0.25617   -0.045047    -0.22207     0.34667   -0.043099    -0.15678
-0.046022    -0.19413   -0.061937    -0.18309     0.36551    0.060515    -0.15061
-0.058689    -0.10221   -0.084024    -0.14509     0.37785     0.12385    -0.14119
-0.057065   -0.010943    -0.10676    -0.11066     0.37915     0.14139    -0.13437
-0.054142    0.054668    -0.12527   -0.085324     0.36064     0.11151    -0.13599
-0.060963    0.084226    -0.13762   -0.068109     0.30445    0.035505    -0.14541
-0.079802    0.075456    -0.14379   -0.059014     0.18329    -0.07428    -0.15873
-0.10351    0.034855    -0.14314   -0.056741   -0.014516    -0.19673     -0.1675
-0.12268   -0.020362    -0.13697   -0.057065    -0.26462    -0.31626    -0.16945
-0.1308   -0.069408    -0.11943   -0.048945    -0.49978    -0.42572    -0.16815
-0.12365   -0.099615   -0.094418   -0.027833    -0.64237    -0.51634    -0.16328
-0.10384    -0.10644   -0.064536   0.0052977    -0.64269    -0.56896    -0.15873
-0.078827   -0.097017   -0.037902    0.047198    -0.51017    -0.56669    -0.15548
-0.057065   -0.084999    -0.01614    0.092996    -0.29937    -0.50433    -0.15711
-0.045047   -0.077853      0.0014     0.14074     -0.0824    -0.40169     -0.1649
-0.046347   -0.074605    0.014717     0.18394    0.084551    -0.28476    -0.17594
-0.05739   -0.069083    0.020564     0.22032      0.1755     -0.1753    -0.19024
-0.07493   -0.058365    0.022837     0.24468     0.19921   -0.082725    -0.20778
-0.09182   -0.041475    0.029658      0.2567     0.18687   -0.008669    -0.22467
-0.10189   -0.022961    0.041351     0.26319     0.16445    0.045899    -0.23506
-0.10384  -0.0096434     0.05142     0.26969     0.14626    0.087149    -0.24156
-0.09994  -0.0057458    0.056617     0.27684     0.13652     0.11963    -0.24415
-0.09117    -0.01484    0.060515     0.27781     0.12223     0.14204    -0.24221
-0.084024   -0.034978    0.062789     0.26839    0.089423     0.15179    -0.23246
-0.0824    -0.05804    0.065712     0.25118     0.02641     0.14659    -0.21427
-0.086623   -0.074605    0.065062     0.23526   -0.058689      0.1271    -0.18959
-0.091495   -0.080127    0.065062     0.23006    -0.14704    0.094945    -0.16003
-0.092145   -0.068758    0.065712     0.23234    -0.21622    0.051096    -0.13242
-0.0824   -0.045047    0.067336     0.23364    -0.25098   0.0023744    -0.11066
-0.068758   -0.013866    0.066037     0.22292    -0.25975    -0.04862    -0.10189
-0.060963    0.015042     0.06019     0.19434    -0.27014    -0.09994    -0.10579
-0.062262    0.034855    0.049147     0.15049    -0.30749    -0.15321     -0.1204
-0.067784    0.040377    0.040702     0.10014    -0.37668     -0.2107    -0.13567
-0.070707    0.032906    0.039078    0.054019    -0.45755    -0.27046    -0.14476
-0.06681    0.020888      0.0433     0.01764    -0.51504    -0.32731    -0.15029
-0.055766    0.008221    0.048822  -0.0067202    -0.52122    -0.37733    -0.15191
-0.042449  -0.0018481    0.049796   -0.017764     -0.4647     -0.4189    -0.15581
-0.029457  -0.0073698     0.04395   -0.010943    -0.35914    -0.44911     -0.1597
-0.021012   -0.011267    0.033881   0.0085458    -0.22986    -0.45463    -0.16068
-0.021012   -0.014191    0.024137    0.022188    -0.10286    -0.42117    -0.15451
-0.027508   -0.018088    0.018615    0.012443   0.0062721    -0.34647    -0.14801
-0.034654   -0.021986    0.016991   -0.015815    0.088124    -0.23831    -0.14411
-0.035628   -0.022961    0.014392   -0.042774     0.14659    -0.11098    -0.14281
-0.028807   -0.018413   0.0056225   -0.049595     0.18849     0.01894    -0.13762
-0.019063   -0.011267  -0.0096434   -0.024909     0.22065      0.1323     -0.1256
-0.0096434  -0.0034721   -0.028482     0.02641     0.24825     0.21285    -0.10579
-0.0015233      0.0014    -0.04927    0.090072     0.27424     0.26157   -0.081101
0.0039985   0.0052977    -0.06551     0.14854     0.29697     0.28301   -0.056091
0.003024   0.0088706   -0.069083     0.18881     0.30769     0.28756   -0.033354
-0.0073698    0.011794   -0.055116     0.21415     0.30542     0.28853   -0.018088
-0.019063    0.013418   -0.030431     0.22974     0.29178     0.28756   -0.011592
-0.025234    0.016991  -0.0057458     0.24338     0.27391     0.28463  -0.0076946
-0.026209    0.020888    0.016016     0.25962     0.25897     0.27976 -0.00022403
-0.023935    0.022837    0.030957     0.27391     0.25085     0.27424   0.0091954
-0.020687    0.019914    0.040702     0.28236      0.2528     0.27099    0.015367
-0.01484    0.012768    0.046548     0.27619     0.25995     0.26579    0.016341
-0.0080194   0.0072465    0.044599     0.24371     0.26644     0.25735    0.014717
0.00010078   0.0088706    0.033231     0.18264     0.26514     0.24858    0.012768
0.0039985    0.020564    0.015367    0.098193      0.2554     0.24306    0.013743
-0.0011985    0.037129  0.00042559   0.0072465     0.23948     0.24013     0.01764
-0.013541    0.048172   -0.011267   -0.077528     0.22617     0.23916    0.023162
-0.025559    0.051745   -0.019063    -0.14801      0.2187     0.23883     0.02641
-0.028157    0.048172   -0.022961    -0.19608     0.21675     0.23851    0.029983
-0.022961    0.040377   -0.021661    -0.21979     0.21415     0.23169     0.03583
-0.01484    0.033231   -0.018088    -0.21687     0.20376     0.21772    0.050446
-0.0060706    0.030957    -0.01484    -0.19056     0.18329     0.19758    0.067661
0.00042559    0.033881   -0.013541    -0.14769     0.15893     0.17615    0.080003
0.0023744    0.040052   -0.013541   -0.097341      0.1362     0.15893    0.084226
0.0017248    0.044275   -0.012892   -0.051219     0.11736     0.14984    0.083576
-0.00054884    0.045249   -0.013216   -0.014191     0.10339     0.14626    0.081627
-0.0031473    0.042001   -0.014191   0.0078962     0.09397     0.14399    0.076431
-0.0018481    0.036804   -0.015815    0.014392      0.0852     0.14204     0.06896
0.0020496     0.03583   -0.012892   0.0088706    0.071883     0.13847    0.063763
0.0075714    0.034855  -0.0093186   0.0033489    0.054344     0.13067    0.063438
0.011794    0.031607   -0.010943   0.0085458    0.036479     0.11963    0.070259
0.015367    0.024461   -0.017439    0.024137    0.021863     0.10534    0.081952
0.016016    0.015692   -0.023285     0.04395    0.013093    0.088124    0.097543
0.014717   0.0075714   -0.021661    0.063438   0.0069217     0.06961     0.11248
0.016991 -0.00054884   -0.010943    0.080003  -0.0034721    0.054019     0.12613
0.023487   -0.008669   0.0056225    0.093645   -0.020037    0.045249     0.14009
0.030633   -0.014191    0.020239     0.10371   -0.037577    0.041027     0.15081
0.036154    -0.01484    0.026735     0.11313   -0.047971    0.042651     0.15536
0.042326   -0.012892    0.025111     0.12288   -0.047646    0.047198     0.15471
0.047523  -0.0093186     0.01894     0.13327   -0.038876    0.049472     0.15179
0.053694  -0.0054209    0.012443     0.13879    -0.03238    0.045899     0.14919
0.059216  -0.0034721   0.0062721     0.13457   -0.034978    0.038103     0.14919
0.061165  -0.0018481   0.0023744     0.11833   -0.046671    0.029333     0.15211
0.060515  -0.0011985  -0.0018481    0.092671   -0.061613    0.020564     0.15601
0.063438 -0.00022403  -0.0093186    0.063438   -0.075579    0.012119     0.15991
0.067986      0.0014   -0.017439    0.039727   -0.083375   0.0017248     0.15601
0.06961  0.00010078   -0.024585    0.028034    -0.08305  -0.0096434     0.14432
0.06831  -0.0047713   -0.027183    0.027385   -0.076879   -0.020687     0.12678
0.064088  -0.0093186   -0.026209    0.034855   -0.070382   -0.028157     0.11183
0.056292  -0.0099683   -0.025559     0.04395   -0.067134    -0.03238     0.10371
0.046548   -0.007045   -0.026533     0.05142   -0.067459   -0.038551     0.10371
0.038753  -0.0021729   -0.029132    0.053694   -0.069083   -0.046996     0.10599
0.033881   0.0026992   -0.033679    0.051745   -0.068758    -0.05804     0.10566
0.029983   0.0026992   -0.041799    0.046548   -0.071032    -0.06551     0.10047
0.030308  0.00042559   -0.049595    0.029658   -0.077853   -0.068758    0.097868
0.03583  -0.0034721   -0.055766  -0.0073698   -0.088896   -0.067459     0.10079
0.041351   -0.007045   -0.059664   -0.067459   -0.098316    -0.06551     0.10599
0.044275   -0.010618   -0.063561    -0.14931    -0.10286   -0.064211     0.10891
0.039402    -0.01614   -0.068758    -0.24221    -0.10124   -0.060963     0.10859
0.033231   -0.020362   -0.073306    -0.33023   -0.098641   -0.059339     0.10761
0.029333   -0.020037   -0.072656    -0.39616    -0.10124   -0.059014     0.10501
0.030308    -0.01614   -0.070058    -0.43644    -0.11131   -0.061937     0.10631
0.033231   -0.010618   -0.069083    -0.45171    -0.12592   -0.070058     0.10696
0.032257  -0.0057458    -0.06681    -0.45788    -0.14087   -0.082076     0.10339
0.028359  -0.0024977   -0.064861    -0.45755    -0.15191   -0.091495    0.092671
0.021538  -0.0011985   -0.062912    -0.44554    -0.15743   -0.094743    0.074806
0.01764      0.0014    -0.05739     -0.4189    -0.15808    -0.09182    0.058566
0.017965   0.0046481   -0.045047    -0.37733    -0.15256   -0.084999    0.050121
0.021538   0.0078962   -0.027508    -0.32308    -0.14022   -0.076879    0.051096
0.025436   0.0088706  -0.0083442     -0.2591    -0.12592   -0.072331    0.054344
0.030308   0.0088706   0.0046481    -0.19186    -0.11488   -0.076554    0.054993
0.033231   0.0085458    0.011144    -0.12852    -0.11131   -0.089221    0.053044
0.034206   0.0069217    0.013093   -0.074605    -0.11878    -0.10416    0.047198
0.03518   0.0056225    0.014717    -0.03303     -0.1321    -0.11423    0.040052
0.033556   0.0026992    0.017965  -0.0063954    -0.14379    -0.11715    0.032582
0.031607  -0.0044465    0.019914   0.0095202    -0.14769    -0.11845    0.025111
0.025761   -0.012242     0.01894    0.021213    -0.14184     -0.1217     0.01764
0.01764   -0.017764    0.016666    0.034855     -0.1295    -0.12333    0.008221
0.0091954   -0.018738    0.015367    0.051745    -0.11618    -0.12398   0.0017248
0.0059473   -0.014516    0.016991    0.071234    -0.10903    -0.12008   0.0010752
0.0043233  -0.0080194    0.019264    0.090072    -0.11033    -0.11261   0.0033489
0.0010752  -0.0021729    0.023162     0.10924    -0.11456    -0.10254   0.0091954
-0.0041217   0.0010752    0.026085     0.12872    -0.11521    -0.09182    0.016991
-0.0076946   0.0036737    0.023487     0.14334    -0.10709   -0.086298    0.024461
-0.0060706   0.0075714    0.014717     0.14919   -0.094093    -0.08305    0.031282
0.00042559    0.013743   0.0036737     0.14496   -0.079802   -0.081751    0.032906
0.0069217    0.021863   -0.007045     0.13652   -0.069733   -0.080776    0.029658
0.014068    0.029983   -0.013216      0.1297   -0.069083   -0.078503     0.02706
0.019914     0.03453   -0.015165     0.12678   -0.073955   -0.077203    0.027709
0.024137     0.03518   -0.013866     0.12678   -0.080776   -0.076554    0.030957
0.02641    0.033881  -0.0099683     0.12775   -0.086948   -0.080776    0.032257
0.022837    0.029983  -0.0031473     0.12807   -0.086298   -0.086623    0.025761
0.014068    0.027385   0.0020496     0.12288   -0.072331   -0.090845    0.012443
-0.00054884    0.026735   0.0020496     0.11151   -0.050569   -0.093444  -0.0050961
-0.015165     0.02641  -0.0047713    0.097218   -0.031081   -0.097017   -0.020687
-0.022961    0.024786    -0.01614    0.084551   -0.020362    -0.10351   -0.031406
-0.021337    0.021538   -0.027833    0.075781   -0.018738    -0.10124   -0.039526
-0.013541     0.01829   -0.035628    0.070584   -0.022636   -0.078503   -0.044398
-0.0050961    0.014717   -0.039851    0.065712   -0.029132   -0.032705    -0.04927
-0.0044465    0.010819   -0.038876    0.059216   -0.037902    0.024461   -0.060963
-0.012567   0.0062721   -0.033679    0.048172   -0.045697    0.075131   -0.076554
-0.020687   0.0017248   -0.025559    0.033881   -0.051544     0.10306   -0.087597
-0.024585   0.0010752    -0.01614    0.021538   -0.053492     0.10306   -0.087922
-0.023285   0.0085458  -0.0063954    0.011469   -0.046347    0.077405   -0.077528
-0.021012    0.020239   0.0020496   0.0059473   -0.036278     0.03453   -0.064861
-0.021661    0.031282   0.0075714   0.0052977   -0.029132   -0.012242   -0.054142
-0.025234    0.036479    0.010819    0.010819    -0.02426   -0.054467   -0.050894
-0.033679     0.03453    0.010495    0.020239   -0.018413   -0.094743   -0.056416
-0.045697    0.027709   0.0091954    0.032257  -0.0096434    -0.13534   -0.062587
-0.051544    0.019914    0.011469    0.039727   0.0046481     -0.1714   -0.063561
-0.047971    0.014068     0.01764    0.042001    0.018615    -0.19933   -0.055441
-0.041799   0.0095202    0.025436      0.0433    0.026735    -0.22109     -0.0405
-0.036278   0.0059473    0.029333    0.045574    0.025111    -0.23441   -0.027183
-0.029457  0.00075039    0.029983    0.051096    0.016341    -0.23441   -0.019063
-0.019063  -0.0028225    0.029333    0.056292   0.0046481    -0.21622   -0.018088
-0.0096434  -0.0044465    0.028034    0.062464  -0.0054209    -0.17952   -0.020362
-0.0057458  -0.0031473    0.024461    0.073182  -0.0080194     -0.1295   -0.021012
-0.0037969  0.00010078    0.023162    0.089098  -0.0057458   -0.071357    -0.01614
0.00075039   0.0062721    0.024461     0.10436 -0.00087364   -0.013216   -0.007045
0.011469    0.013093    0.029658     0.11378   0.0059473    0.040052   0.0072465
0.023487    0.018615    0.037129     0.11541    0.015042    0.081952    0.026085
0.032582    0.022512    0.047523     0.11021    0.023162     0.10956    0.041351
0.039727    0.022188     0.06019     0.10306     0.02641       0.131    0.046223
0.048497    0.021213    0.070909    0.096569    0.023162     0.15309    0.038103
0.061489    0.022188    0.077405    0.090072    0.012768     0.17745    0.019589
0.074157     0.02706    0.074157    0.081952      0.0014     0.19888  -0.0024977
0.080003    0.035505    0.058566    0.070584  -0.0099683      0.2083   -0.019063
0.070909    0.041676    0.036479    0.057592   -0.016789     0.20116   -0.027508
0.045899    0.040702    0.016991      0.0433   -0.017764     0.17647   -0.034654
0.014717    0.034206   0.0072465    0.031282   -0.014516     0.14074   -0.046347
-0.015165    0.028359   0.0072465    0.024137  -0.0080194     0.10631   -0.064211
-0.043099    0.029983    0.010819    0.019914  0.00042559    0.078055   -0.084674
-0.067459    0.039078    0.018615    0.018615    0.013093    0.054344    -0.10384
-0.084349    0.049147     0.03518    0.020239    0.027709    0.038753    -0.11715
-0.085648    0.055643    0.064088    0.028034    0.041027    0.030957    -0.12333
-0.069733    0.057917     0.10014    0.046873    0.050121    0.031932    -0.12398
-0.03173    0.057592      0.1336    0.070584    0.056942    0.038428     -0.1217
0.026735    0.058891     0.15146    0.087799    0.063438    0.042001    -0.12203
0.094945    0.053369     0.13977    0.085525     0.06961    0.038428    -0.13275
0.14886    0.029983    0.094295    0.055643    0.072208    0.024137     -0.1623
0.16705   -0.017114    0.019914   0.0078962    0.064088  -0.0031473    -0.20843
0.14334   -0.077528   -0.066485   -0.045697    0.050771   -0.039201    -0.26332
0.087799     -0.1269    -0.14639   -0.095717    0.041676   -0.081101    -0.31139
0.021213    -0.14541    -0.20031     -0.1321      0.0433      -0.123    -0.34452
-0.035303    -0.11618     -0.2094    -0.14249     0.06084    -0.15938    -0.35134
-0.070382   -0.036602    -0.16555     -0.1204    0.092021    -0.18666    -0.33055
-0.081751    0.074482   -0.081101   -0.071357     0.13425    -0.19543    -0.28313
-0.071357     0.17939    0.016666   -0.008669     0.18459     -0.1753    -0.21947
-0.044398     0.23786    0.097218    0.045899     0.23494     -0.1256    -0.15288
-0.0093186     0.22877     0.13814    0.076755     0.27651   -0.055441    -0.10059
0.01894     0.15179     0.13002    0.080003     0.30737    0.029658    -0.06616
0.017965     0.01764    0.082927    0.066362     0.33855     0.12385   -0.039851
-0.022311    -0.14834    0.023812    0.052395     0.37818     0.22162  -0.0083442
-0.095068    -0.30392   -0.020687    0.050121       0.423     0.31906     0.03453
-0.1753    -0.40981   -0.038551    0.061814      0.4584     0.40546    0.080328
-0.23474    -0.44683   -0.035953    0.082277     0.47335      0.4701     0.11508
-0.25455    -0.41305   -0.026209    0.096569     0.45905      0.5107     0.13587
-0.23116    -0.32341   -0.019712    0.095594     0.41033     0.53116     0.14561
-0.1714    -0.19933   -0.013216    0.082927       0.334     0.53766     0.15341
-0.0837   -0.072331   0.0052977    0.065062     0.24436     0.53506      0.1677
0.011469    0.031607    0.034206    0.047847     0.15114     0.51979     0.18232
0.087799    0.098842    0.063113    0.031932    0.054993     0.48796     0.18492
0.12223     0.12937    0.076106    0.016341   -0.047971     0.44411      0.1716
0.11151     0.13262    0.065062 -0.00022403    -0.16003     0.40643     0.15698
0.076755     0.11866    0.029658   -0.019063    -0.28248      0.3837     0.15991
0.049147     0.10014   -0.022961   -0.038227     -0.4254     0.36518     0.18719
0.049796    0.089748   -0.076229   -0.057715     -0.5878     0.32946     0.23396
0.079354    0.098193    -0.11748   -0.075579    -0.75962      0.2515     0.27944
0.1206     0.12807    -0.14281   -0.092794    -0.91781     0.11931     0.31094
0.14496     0.16933    -0.15256    -0.11326     -1.0302   -0.052843     0.32653
0.14042     0.19856    -0.14964    -0.14769     -1.0718    -0.23344      0.3327
0.11054     0.19823    -0.14314    -0.19901     -1.0334    -0.39649      0.3314
0.071558      0.1716    -0.13859    -0.25942     -0.9243    -0.53518     0.32004
0.038753     0.13587    -0.13989    -0.31918    -0.76742    -0.65828     0.29568
0.021538     0.10436    -0.15029    -0.38025    -0.59625    -0.77392     0.25475
0.017316    0.081303    -0.16782    -0.44261    -0.44326    -0.88208     0.20311
0.023812    0.063438    -0.19478     -0.5027    -0.32568      -0.974     0.15406
0.040377    0.047198    -0.22304    -0.55435    -0.24903     -1.0305     0.12678
0.062139    0.031932    -0.24188     -0.5917    -0.20453     -1.0396      0.1297
0.080653    0.016991    -0.24318    -0.61379     -0.1753    -0.99511     0.15698
0.08585   0.0033489    -0.22499    -0.62093    -0.15191    -0.90254     0.19369
0.071883  -0.0083442    -0.18959    -0.61216    -0.13502    -0.77879     0.21935
0.041351   -0.022961    -0.14996     -0.5878    -0.14087    -0.64659      0.2187
0.0065969   -0.043748     -0.1178     -0.5511    -0.17919    -0.53161     0.18654
-0.020362   -0.072981    -0.09929    -0.49815    -0.23441    -0.44618     0.13132
-0.039526    -0.10286   -0.089871     -0.4124    -0.27534    -0.39032    0.062464
-0.051868    -0.12203   -0.082725     -0.2919    -0.28118    -0.35426   -0.007045
-0.060963    -0.12463   -0.074605    -0.14606    -0.24415    -0.31756   -0.069083
-0.068109    -0.10838   -0.062912   0.0052977    -0.16165    -0.26169     -0.1217
-0.075255   -0.084999   -0.042774     0.14139   -0.040175    -0.18017    -0.16393
-0.079477   -0.063886   -0.011592      0.2528     0.10859   -0.082076    -0.19738
-0.079802   -0.053168    0.023812     0.34147     0.26807    0.011469    -0.22207
-0.073306   -0.052193     0.05272     0.40871     0.41228    0.082277    -0.23993
-0.064536   -0.052843    0.067336      0.4571     0.51687     0.12678    -0.25585
-0.060963   -0.051868    0.067986     0.48082     0.56267     0.14984    -0.26754
-0.064861   -0.046347    0.063113     0.46652     0.54935     0.16088    -0.27761
-0.077528   -0.038227    0.059216     0.41033     0.48926      0.1716    -0.28995
-0.090196   -0.029132    0.056292     0.32134     0.40546     0.18622    -0.30035
-0.093769    -0.02426    0.051745     0.22292     0.31419     0.20083    -0.30717
-0.086623   -0.021012    0.049796     0.13165     0.22747      0.2109    -0.30782
-0.072656   -0.019712    0.055968    0.059865     0.15211     0.21577    -0.30327
-0.056741   -0.020037    0.071234   0.0095202    0.095919     0.21935    -0.29385
-0.046996   -0.021986    0.089098   -0.023935     0.06831     0.22649    -0.28346
-0.042774   -0.024585     0.10079   -0.043748    0.075781     0.23266    -0.27566
-0.044723   -0.028807     0.10566   -0.053492     0.11151     0.23721    -0.26916
-0.053817   -0.034329     0.10339   -0.056091     0.16218     0.24111    -0.26104
-0.068758   -0.038227    0.096893   -0.054792     0.21188     0.24403    -0.25162
-0.084349   -0.040175    0.086824   -0.051219     0.25118     0.24403    -0.23896
-0.092794   -0.038876     0.07773   -0.040825     0.27261     0.24176    -0.22564
-0.086948   -0.035953    0.074482   -0.023285     0.28008     0.24208    -0.21427
-0.070058   -0.032055    0.079354   0.0065969     0.27944     0.24468    -0.20323
-0.046996   -0.027183    0.091696     0.04395     0.27456     0.25215    -0.18959
-0.026209   -0.018088     0.10599    0.081952     0.26807     0.26222    -0.17205
-0.01484  -0.0024977     0.12028     0.11054     0.25995     0.26937    -0.15093
-0.01614     0.01764      0.1284     0.12255     0.25085     0.26904    -0.12722
-0.021661    0.038428     0.12905      0.1206     0.24208     0.26287    -0.10319
-0.026533    0.054344     0.11833     0.11021     0.23429     0.25572   -0.081426
-0.028807    0.064413     0.10079     0.09397     0.22487     0.24988   -0.063237
-0.02426     0.06896    0.082602    0.075456     0.21772     0.24371   -0.052193
-0.012242    0.066037    0.066686     0.06019      0.2148     0.23754   -0.048945
0.003024    0.057267    0.054668    0.050446     0.21252     0.22519   -0.050244
0.017316    0.044924    0.048822    0.053369     0.20895      0.2044   -0.051544
0.026085     0.03518    0.046873    0.077405     0.20051     0.17842   -0.051544
0.030308     0.02706    0.047523      0.1206     0.18946     0.15373   -0.047971
0.031932    0.022188    0.047523       0.169     0.18167     0.13327   -0.036927
0.031607    0.022837    0.047847     0.21415     0.17582     0.11768   -0.020687
0.029983    0.030957    0.050121     0.24695     0.16705     0.11086  -0.0024977
0.031282     0.04395    0.054019     0.26904     0.15341     0.11086    0.013743
0.031932    0.056292    0.060515      0.2908      0.1362     0.11118    0.024137
0.029333    0.062139    0.066686     0.31711     0.11703     0.10664    0.028684
0.024137    0.062464     0.06961     0.34732    0.099167    0.097868    0.028034
0.017316    0.056292    0.066037     0.37785    0.085525    0.088124     0.02706
0.011469    0.047523    0.054668     0.40481    0.078379    0.078379    0.025761
0.0065969    0.036479    0.044275     0.42235     0.07773    0.073182    0.028034
0.0026992     0.02706    0.039402     0.43047    0.080328    0.066686     0.03518
0.0020496     0.01829    0.037454     0.43469    0.079029    0.058566    0.047523
0.0033489   0.0088706    0.031607     0.43534    0.068635    0.046873    0.057917
0.0049729 -0.00022403    0.020239     0.43242     0.05272     0.03453    0.065712
0.0062721  -0.0067202  0.00075039      0.4204    0.031607     0.02706     0.06831
0.0056225   -0.013866   -0.023285     0.39637    0.012443    0.026735     0.06896
0.003024   -0.021661   -0.047646     0.36226  -0.0015233    0.030957    0.070909
-0.0037969   -0.031406    -0.06681     0.32231   -0.010293    0.038428    0.074157
-0.015815   -0.043423   -0.079152     0.27846    -0.01614      0.0433    0.076755
-0.029782   -0.051544   -0.084024     0.23331   -0.022961    0.039078     0.07773
-0.038876   -0.054467   -0.086298     0.18946   -0.030431    0.021863    0.079679
-0.040825   -0.050244   -0.085973     0.14172   -0.037902  -0.0031473    0.085525
-0.035303   -0.041475   -0.080776    0.085525   -0.047321   -0.026858    0.095919
-0.024585   -0.027833   -0.067784    0.026085   -0.059989   -0.045697     0.10761
-0.013216   -0.013541   -0.054142   -0.030756   -0.075904   -0.054142     0.11346
-0.0031473  -0.0011985   -0.044398   -0.075579   -0.090845   -0.054467     0.11216
0.003024   0.0059473   -0.037902   -0.098965    -0.10091    -0.04862     0.10566
0.0056225   0.0095202   -0.034329    -0.10416    -0.10416   -0.039526    0.096569
0.0052977    0.011144   -0.032055    -0.10644    -0.10091   -0.030106    0.089423
0.003024    0.012768   -0.028807     -0.1217   -0.096692   -0.027183    0.083251
-0.00087364    0.014392   -0.023935    -0.15223   -0.095068   -0.030106    0.078055
-0.0047713    0.015367   -0.018413    -0.19251    -0.09994   -0.034004    0.076106
-0.007045    0.014392   -0.010293    -0.23474    -0.10936   -0.035628    0.078055
-0.0063954    0.014717  0.00010078    -0.26722    -0.12073   -0.034004    0.085525
0.00042559    0.015042   0.0088706    -0.28411     -0.1308   -0.026533    0.098193
0.010819    0.014392    0.012768    -0.27826    -0.13275  -0.0037969     0.10794
0.023812    0.013093    0.013093    -0.25162    -0.12527    0.038428     0.11054
0.037454    0.013093    0.012768     -0.2107    -0.11651    0.090397     0.10859
0.045249    0.012119    0.016016    -0.16523    -0.11131     0.13782     0.10469
0.045574    0.010819    0.019264    -0.12073    -0.10741      0.1677    0.099492
0.040377   0.0078962    0.020888   -0.076229    -0.10709     0.17907    0.092021
0.030308   0.0033489    0.019914   -0.032705    -0.11553      0.1781    0.082602
0.018615  -0.0015233    0.020564   0.0065969    -0.13047     0.16965    0.075131
0.0043233  -0.0063954    0.021538    0.039727    -0.14249     0.15309    0.070259
-0.012567  -0.0083442    0.025111    0.065387    -0.14509     0.12678    0.075781
-0.027183  -0.0073698    0.025436    0.081303    -0.13664    0.087799    0.084876
-0.038551   -0.008669    0.017316    0.087799     -0.1282    0.039727    0.089748
-0.046996    -0.01614  0.00010078    0.085525    -0.12755    -0.01484    0.084226
-0.050569   -0.027183   -0.019063    0.073832    -0.13762   -0.070707    0.071883
-0.047646   -0.033679   -0.034978    0.054019    -0.15776    -0.12787    0.061489
-0.036602   -0.032055   -0.045047     0.02706    -0.17887    -0.18471    0.060515
-0.022636   -0.021986    -0.04862  -0.0083442    -0.19251    -0.23636     0.06831
-0.011592   -0.010618   -0.050244   -0.051219    -0.19413    -0.27858    0.085525
-0.0037969 -0.00054884   -0.049595   -0.094418    -0.18569    -0.31334     0.11054
0.0075714   0.0046481   -0.048296    -0.13989    -0.17075    -0.34387     0.13295
0.024137   0.0036737   -0.043099    -0.19478    -0.15516    -0.38057     0.14204
0.042975  -0.0011985   -0.036602     -0.2578    -0.14541    -0.43059     0.13684
0.06084  -0.0028225   -0.028482    -0.31399    -0.14249    -0.49133     0.12353
0.075781  -0.0011985   -0.020362    -0.35751    -0.14249    -0.55142     0.10989
0.08585   0.0026992   -0.013866    -0.38155    -0.14704    -0.59949     0.10177
0.089423   0.0085458   -0.010293    -0.38025    -0.15093    -0.62678     0.10177
0.086824    0.013093  -0.0096434    -0.35232    -0.15418    -0.63425     0.10664
0.080328    0.016666   -0.011592    -0.30262    -0.15386     -0.6232     0.11248
0.072533    0.019914    -0.01614     -0.2435    -0.14996    -0.58618     0.11281
0.062139    0.022188   -0.021337    -0.18342    -0.14119    -0.52284     0.10729
0.047847    0.023162    -0.02361    -0.12657     -0.1269    -0.43384     0.09462
0.034206    0.022512   -0.022311   -0.075904    -0.10449    -0.32601     0.07773
0.021863    0.021213   -0.017439   -0.036927   -0.073955    -0.21265    0.063113
0.01764    0.021863  -0.0096434   -0.012242   -0.045697    -0.10806    0.056617
0.022512    0.025436  -0.0011985   0.0020496   -0.027183   -0.019388    0.058241
0.036479    0.032257   0.0072465    0.012768   -0.022636    0.044599    0.063438
0.053694    0.038428    0.013093    0.021863   -0.028482    0.083576    0.070259
0.066686    0.042975    0.013418    0.029983    -0.04115     0.10112    0.073182
0.071558    0.044599   0.0085458    0.035505   -0.052518     0.10534    0.069934
0.06896    0.044599  -0.0018481    0.036479   -0.056741     0.10079    0.058241
0.054668    0.041351    -0.01549    0.032906   -0.048945    0.091696    0.039078
0.033231    0.033556   -0.031081    0.027385   -0.030106    0.089748    0.013743
0.011794    0.020564   -0.044398    0.023812  -0.0089938     0.10209   -0.010293
-0.0063954   0.0020496   -0.050244    0.024461    0.009845      0.1258   -0.023935
-0.021661   -0.022636   -0.048296    0.029983    0.016991     0.14789    -0.02426
-0.035303   -0.050894    -0.04115    0.041027    0.015042     0.15763   -0.019063
-0.051544   -0.078827    -0.03303    0.056292     0.01017     0.15049   -0.016464
-0.069408    -0.10059   -0.031081    0.067661   0.0088706     0.12418   -0.025559
-0.090845    -0.10968   -0.035628    0.073182    0.013743    0.078055   -0.055766
-0.11261    -0.10156   -0.045047    0.072208    0.022512    0.016991    -0.10351
-0.1282   -0.081426   -0.052843    0.066362    0.034206   -0.052843    -0.15613
-0.1269   -0.060963   -0.057715    0.058891    0.047198    -0.12235    -0.19706
-0.10384    -0.04927   -0.058365    0.052395    0.064737    -0.18114    -0.21492
-0.062587   -0.045372   -0.060638    0.048497    0.085525    -0.21849    -0.21005
-0.013541   -0.036927   -0.068109    0.047198     0.10696    -0.22921    -0.18959
0.028359   -0.015815   -0.077853    0.042975     0.11995    -0.21232    -0.16263
0.051096    0.016341     -0.0824    0.030633     0.12255    -0.17075    -0.13372
0.055318      0.0433   -0.082076    0.014068     0.11378    -0.11358    -0.10871
0.053369    0.049796   -0.086623   0.0017248    0.092996   -0.052518   -0.084024
0.056942    0.033231   -0.095717  -0.0037969    0.060515   0.0056225   -0.057065
0.061165     0.01017    -0.10449  -0.0073698    0.016666    0.061489   -0.021337
0.055318   0.0023744    -0.10449   -0.011592   -0.034978     0.12613    0.031607
0.032257    0.021213   -0.090196   -0.013216    -0.09182     0.21155     0.10404
-0.0080194    0.058566   -0.059339  -0.0067202    -0.15288     0.31906     0.18329
-0.055766    0.098517   -0.016464   0.0069217    -0.22402     0.42462     0.25118
-0.093119     0.12548    0.029983    0.021213    -0.31301     0.50095      0.2934
-0.11033     0.13002    0.070909    0.032906    -0.42247     0.52759     0.30607
-0.10774     0.11183     0.10112    0.036154    -0.54103     0.49608     0.28918
-0.089221    0.077405     0.11768    0.033231    -0.63392     0.41163     0.25378
-0.059014    0.038428     0.12158    0.026085    -0.66608     0.29275     0.21025
-0.018088   0.0062721     0.11281    0.014392     -0.6258     0.16705     0.16705
0.028034   -0.011267     0.09397  -0.0050961    -0.52544    0.051096     0.12548
0.072858   -0.010618    0.071558   -0.030106    -0.39357   -0.039526    0.086175
0.11021   0.0069217    0.054344   -0.056091     -0.2565    -0.10286    0.047198
0.13132    0.032906    0.046223   -0.073631    -0.13632    -0.14541   0.0085458
0.1323     0.05272    0.044275   -0.075579   -0.040175    -0.16847   -0.031081
0.11476    0.050121    0.039078   -0.069733    0.031282    -0.17659   -0.071032
0.086175    0.023162    0.027385    -0.06681      0.0865    -0.17172    -0.10416
0.058241   -0.010293    0.011469   -0.068109     0.13457    -0.14639    -0.11845
0.036804   -0.030106 -0.00022403   -0.072331      0.1755   -0.093769    -0.10903
0.021538   -0.026533  -0.0047713   -0.080451     0.20213   -0.022961   -0.082076
0.014717  -0.0044465  -0.0060706   -0.088896      0.2096    0.049472   -0.050244
0.012119    0.019914  -0.0080194   -0.092469     0.20148     0.11281   -0.021012
0.0023744    0.037129   -0.011917   -0.087597     0.19174     0.16153 -0.00054884
-0.021661    0.041676    -0.01614   -0.071682     0.19239     0.19758   0.0072465
-0.059664     0.03453   -0.018088   -0.045697      0.2057     0.22747      0.0014
-0.10026    0.018615   -0.017764   -0.010943     0.22844      0.2515   -0.017439
-0.12917   0.0020496   -0.017764    0.024137     0.25378     0.27164   -0.046347
-0.13794   -0.013541   -0.019063    0.053044     0.27521     0.28788   -0.075579
-0.1256   -0.025884   -0.022636    0.072208      0.2895     0.29503   -0.096692
-0.096042   -0.034329   -0.028482      0.0865     0.29762     0.28658    -0.11001
-0.060313   -0.037902    -0.03173    0.095919      0.2934     0.25507    -0.11943
-0.028807   -0.033679    -0.03303     0.10209     0.27132     0.19953    -0.12592
-0.0011985   -0.017439   -0.034654     0.10436     0.23266      0.1336     -0.1243
0.02706   0.0095202   -0.040175     0.10242     0.18427     0.07708    -0.11066
0.06084     0.03583    -0.04862    0.097543     0.13067    0.041676   -0.080776
0.092671    0.049796   -0.056741    0.091372    0.074482    0.027385   -0.040175
0.11118    0.051096   -0.060963    0.089423    0.024786    0.022512  0.00042559
0.10826    0.041676   -0.062912    0.091372   -0.013216    0.015692    0.024786
0.086824    0.029333   -0.067459    0.097218   -0.040175   -0.008669    0.026735
0.056292    0.020239   -0.075255     0.10274   -0.053492   -0.056416   0.0062721
0.025436    0.014068   -0.083375     0.10371   -0.053817    -0.12235   -0.025559
-0.00054884    0.010495   -0.085973    0.093645   -0.042774    -0.19511   -0.058365
-0.018088   0.0069217   -0.079802    0.070259   -0.027183    -0.26397   -0.079477
-0.025234   0.0020496   -0.067134    0.031282   -0.013216    -0.31594   -0.082725
-0.025234  -0.0015233   -0.051219   -0.016464  -0.0054209      -0.339   -0.067784
-0.021986  0.00010078   -0.035303   -0.070058  -0.0011985    -0.33055   -0.039851
-0.01614   0.0043233   -0.021337    -0.12333   0.0039985    -0.30782  -0.0073698
-0.0080194   0.0078962   -0.010618    -0.16945    0.011469    -0.28735    0.015367
0.00075039   0.0072465  -0.0067202     -0.2081     0.01829    -0.27436    0.019914
0.0075714   0.0039985   -0.013866     -0.2435    0.023487    -0.26949   0.0043233
0.011144  0.00075039   -0.027833    -0.27371    0.021213    -0.27014   -0.029457
0.0095202   0.0010752   -0.039201    -0.29677    0.011469    -0.26722    -0.07428
0.0036737   0.0062721   -0.037577    -0.30944  -0.0047713    -0.25357     -0.1191
-0.010943    0.014392   -0.019712    -0.30717   -0.025559    -0.22434    -0.15386
-0.030106    0.021863   0.0069217    -0.28476   -0.045697    -0.18374    -0.17237
-0.053492    0.027385    0.033231    -0.24415   -0.054142    -0.13599    -0.17042
-0.077528    0.025111    0.054993    -0.19446   -0.047646   -0.089546    -0.15711
-0.10254    0.012443    0.066037    -0.14899   -0.028807   -0.046671    -0.14119
-0.12657   -0.010293    0.065712    -0.11813  -0.0073698   -0.012567     -0.1321
-0.14216   -0.038876    0.055318    -0.10416    0.011794    0.013093    -0.13112
-0.14249    -0.06551    0.040377    -0.10286    0.028359    0.028034    -0.13469
-0.1256   -0.079802    0.024137    -0.10514    0.042001    0.036154    -0.13632
-0.093769   -0.081751    0.010495    -0.10254    0.054344    0.037454    -0.13372
-0.059339    -0.07493   0.0049729   -0.094743    0.067986    0.028684     -0.1282
-0.029457    -0.06551   0.0059473   -0.087597    0.082602    0.010819    -0.12852
-0.0099683   -0.059014    0.011794   -0.077853    0.097868   -0.013216    -0.13729
-0.0018481   -0.059664     0.01829   -0.060638     0.11216   -0.039851    -0.14996
-0.007045   -0.068758    0.024786   -0.033354     0.12353   -0.061288     -0.1597
-0.019388   -0.083375    0.032257   0.0062721     0.13067   -0.068434     -0.1623
-0.029132   -0.097991    0.039402    0.048172     0.12775   -0.058689    -0.15223
-0.029457    -0.11131    0.045899    0.080653     0.10729    -0.04115    -0.13015
-0.021337    -0.11683    0.045899    0.099817    0.067011   -0.025559    -0.10676
-0.008669    -0.10871    0.037129     0.10924    0.016016   -0.019063   -0.085648
0.0075714   -0.078503    0.021213     0.11346   -0.029132   -0.022636   -0.070058
0.022837   -0.029132    0.008221     0.11736   -0.057065   -0.032055   -0.059339
0.036479    0.028034     0.01017     0.12645   -0.061613   -0.039851   -0.049595
0.046548    0.076431    0.029333     0.14074   -0.041475   -0.042449   -0.039851
0.049147     0.10306    0.057267     0.15926 -0.00054884   -0.041475   -0.029782
0.042651     0.10534    0.083251     0.18167    0.049147   -0.042449   -0.020037
0.028034    0.086824    0.098193     0.20538    0.097868    -0.04927  -0.0093186
0.013418    0.052395    0.097218     0.23039     0.13944   -0.055766      0.0014
0.0052977   0.0088706    0.083901      0.2528      0.1703   -0.058689   0.0072465
0.0039985   -0.028807    0.064088     0.26872     0.18622   -0.053168   0.0075714
0.01017   -0.049595    0.042651     0.27489     0.18622   -0.039851   0.0065969
0.024137   -0.044723    0.026735     0.27326      0.1742    -0.02426    0.011144
0.04395   -0.018738    0.020888     0.26482     0.15601   -0.010618    0.025761
0.065712    0.016341    0.021538     0.25475     0.13814   0.0023744    0.049472
0.08585    0.049147     0.02706     0.24566     0.12385     0.01829    0.075781
0.098842    0.069934     0.03518     0.23818     0.12093    0.036804    0.097218
0.10112    0.075131    0.038753     0.23104     0.12743    0.055643     0.10696
0.092021    0.070584    0.038103     0.22584      0.1349    0.072533    0.098842
0.072533     0.06019    0.037129     0.21805      0.1323    0.081627    0.076106
0.048822    0.049147    0.038428      0.2057     0.11411    0.081627     0.05207
0.030957    0.040052    0.042975     0.19434    0.081627     0.07708    0.037129
0.021863    0.036154    0.046873     0.18557    0.035505    0.077405    0.033231
0.022512    0.036479    0.042975     0.18102    -0.02361    0.086175    0.033231
0.033231    0.036479    0.028034     0.17874   -0.098965    0.099817    0.032582
0.05142    0.032257   0.0062721     0.17355    -0.19316     0.11443    0.029009
0.071883    0.024137   -0.013866     0.15926    -0.30489     0.12223    0.021213
0.090722    0.017316   -0.023285     0.14237    -0.41565     0.11541    0.013418
0.10274    0.012119   -0.022311     0.13425    -0.49263    0.088773   0.0052977
0.10956   0.0078962   -0.017764     0.13749    -0.50757     0.04395  -0.0041217
0.11411   0.0046481   -0.015815     0.14854    -0.45658   -0.008669   -0.018413
0.11736   0.0017248   -0.014191     0.15958    -0.35914   -0.054142    -0.03173
0.11736  -0.0011985  -0.0096434     0.16803    -0.24513   -0.082076   -0.043748
0.10924 -0.00022403  -0.0018481      0.1716    -0.13697   -0.090521    -0.04992
0.087474   0.0056225   0.0088706     0.16965   -0.050244     -0.0824   -0.045697
0.051745     0.01764    0.021538     0.16185   0.0095202   -0.062262   -0.026858
0.014717    0.029009    0.031932     0.14334    0.043625   -0.036278   0.0039985
-0.01484    0.031932    0.037778     0.11021    0.059216   -0.011917    0.039727
-0.032705    0.024137    0.036154     0.06084    0.058241   0.0033489    0.070909
-0.046022   0.0017248    0.030308   0.0059473      0.0433   0.0049729    0.086824
-0.066485   -0.032055    0.020239   -0.041799    0.021538   -0.007045    0.078704
-0.10189   -0.077203    0.010819   -0.072981  -0.0021729    -0.03173    0.045574
-0.15158    -0.12982   0.0033489   -0.087922    -0.02361   -0.061613   0.0026992
-0.20518    -0.18764  -0.0018481   -0.093444   -0.042449   -0.088572   -0.029132
-0.24318    -0.24643   -0.008669   -0.096692   -0.056416    -0.10741    -0.03303
-0.25422    -0.29677   -0.021986    -0.10579    -0.06681    -0.10936  -0.0060706
-0.24188    -0.32308   -0.040825    -0.11878   -0.077203   -0.087922    0.033881
-0.21557    -0.31301   -0.062912    -0.13827   -0.088896     -0.0405    0.063438
-0.18666    -0.26137   -0.079477     -0.1597    -0.10026    0.029333    0.072858
-0.15418    -0.17594   -0.082076    -0.17724    -0.10481     0.10826    0.065712
-0.11163   -0.072006   -0.068758    -0.18471    -0.10091     0.18687    0.055643
-0.056416     0.02641   -0.045047    -0.17562   -0.084349     0.25995    0.053369
0.0069217     0.10047   -0.023285    -0.15646   -0.056091     0.31906    0.061489
0.066037     0.15114   -0.010618    -0.13762   -0.023285     0.35447    0.072208
0.10599     0.18979   -0.008669    -0.12722   0.0091954     0.36064    0.073507
0.11476     0.22844   -0.013866    -0.12657    0.035505      0.3418    0.061165
0.093645     0.26449   -0.021337    -0.12755     0.05142     0.31386    0.046548
0.048497     0.28853   -0.027508     -0.1217    0.056942      0.2895    0.046873
-0.0080194     0.29015   -0.032705    -0.10254    0.052395     0.27976    0.070259
-0.068434     0.26255   -0.039201   -0.076879    0.042651     0.27846     0.11476
-0.12787      0.2096    -0.04927   -0.059014    0.034855     0.27651     0.16965
-0.17919      0.1362   -0.061613   -0.054467    0.031932     0.27424     0.22357
-0.2055    0.048497   -0.073306   -0.059989    0.031607     0.27164     0.26774
-0.19608   -0.043423   -0.080127   -0.071032    0.030633     0.26514     0.29633
-0.15288     -0.1243   -0.075904    -0.08305    0.026735     0.25183     0.30542
-0.084674     -0.1675   -0.056416   -0.096042    0.020888     0.22747      0.2947
-0.0076946    -0.15256    -0.03173    -0.10871    0.013418     0.19141     0.27261
0.070909   -0.086298   -0.014191    -0.12073   0.0069217     0.13879     0.25215
0.13555  -0.0015233   -0.011267    -0.13015   0.0026992    0.063438     0.23494
0.1781    0.070584   -0.020362    -0.13372  0.00075039   -0.035303     0.22065
0.19628     0.11086   -0.037577    -0.13177   0.0023744    -0.14964     0.20733
0.19466      0.1258    -0.04862    -0.12268    0.013418    -0.26722     0.19758
0.1768      0.1206   -0.045372    -0.10351     0.03453    -0.37278     0.19628
0.15081     0.10729   -0.026533    -0.07493    0.062139    -0.44976     0.20473
0.12125    0.085525  -0.0018481   -0.042124     0.09462    -0.49296     0.21545
0.089098    0.049147    0.018615   -0.012242     0.12385    -0.51115     0.21577
0.059216  0.00042559    0.026735    0.010819     0.13295    -0.51829     0.20116
0.040702   -0.044073    0.022188    0.024461     0.11411    -0.52381     0.17095
0.032582   -0.059014    0.013743     0.02706    0.069285    -0.53291     0.13067
0.028034   -0.024909    0.012119    0.025436    0.014068    -0.54233    0.087799
0.020239    0.048497     0.01894    0.025436    -0.03173    -0.54655    0.045574
0.011469     0.13197    0.030633    0.032906   -0.052193    -0.54817    0.010495
0.0039985     0.19174    0.038103    0.045899   -0.043748    -0.54623   -0.018738
-0.00087364     0.20895    0.041676    0.059541   -0.010943    -0.53778   -0.044073
-0.0015233     0.18622    0.041027     0.06831    0.038753    -0.52739   -0.063561
0.0023744     0.13879    0.038753     0.06896     0.10242    -0.51959   -0.084024
0.008221    0.085525    0.033881    0.063113     0.17939    -0.52154    -0.10806
0.010495    0.039078    0.023487    0.052395     0.26514    -0.52966    -0.13632
0.0014   0.0033489   0.0075714    0.039402     0.34894    -0.52609    -0.16815
-0.019063   -0.020037   -0.014191    0.026085     0.40546    -0.49036    -0.19836
-0.035303   -0.033354   -0.038227    0.013743     0.40546    -0.40493    -0.22142
-0.035628   -0.040175   -0.061613   0.0039985     0.32588    -0.27404    -0.23149
-0.020037   -0.044073   -0.079152  -0.0018481     0.16868     -0.1204    -0.22954
0.00075039   -0.047971   -0.086948  -0.0041217    -0.03303    0.025436    -0.22207
0.016666   -0.046996   -0.080776  -0.0031473    -0.23636     0.13944    -0.21135
0.022512   -0.034654   -0.061288  -0.0018481    -0.41046     0.21188    -0.20355
0.020888   -0.013866   -0.037252  -0.0024977    -0.55077     0.24663     -0.2055
0.013743   0.0065969   -0.019388 -0.00022403    -0.65958     0.25215    -0.21947
0.0052977    0.011794   -0.010293   0.0091954    -0.73916     0.23786    -0.23863
-0.0011985  -0.0047713   -0.011592    0.031282    -0.78788     0.21155    -0.25617
-0.012242   -0.033354   -0.021012    0.062139    -0.80022     0.18459    -0.26689
-0.036602   -0.055441   -0.033354    0.092346    -0.76677     0.16315    -0.27404
-0.068109    -0.05739   -0.044723     0.11768    -0.69076     0.15114    -0.27469
-0.093119   -0.037902   -0.046022     0.14074    -0.58942     0.15536    -0.26332
-0.10124  -0.0083442   -0.038551     0.16315    -0.48224     0.18751    -0.23474
-0.087922     0.01894    -0.02426     0.19076    -0.37635     0.25378    -0.18179
-0.061937    0.035505   -0.010618     0.22487    -0.27274     0.34635    -0.11163
-0.036278    0.037778      0.0014     0.26027     -0.1753     0.44346   -0.036278
-0.021986    0.026735   0.0078962     0.29243   -0.092469     0.51849    0.029333
-0.020362   0.0039985   0.0065969     0.31386   -0.027183     0.55032    0.071234
-0.030106    -0.02361  -0.0037969     0.31322    0.021213     0.53019    0.084551
-0.050894   -0.053168   -0.021661     0.29048     0.05272     0.46945     0.06961
-0.082076   -0.080776   -0.037252     0.25313    0.067661     0.38597    0.033231
-0.11196    -0.10481     -0.0405     0.21447    0.082277     0.30087  -0.0096434
-0.12398    -0.12105   -0.027833     0.18492     0.11054     0.22454   -0.039201
-0.11683    -0.12495  -0.0034721     0.16218     0.16315     0.15958    -0.04862
-0.097341    -0.12235    0.022188      0.1336     0.23948     0.10664   -0.038876
-0.076879    -0.11683    0.036804      0.0865     0.32198    0.065387   -0.019388
-0.060638    -0.11098    0.030633     0.01764      0.3863    0.038103  -0.0018481
-0.046996    -0.10221   0.0065969   -0.067459      0.4217    0.023812   0.0039985
-0.028807   -0.082725   -0.026209    -0.15938     0.42982    0.021863  -0.0044465
-0.0054209   -0.050894   -0.061288    -0.24415      0.4282    0.029009   -0.019712
0.020564   -0.016464   -0.090196    -0.30847      0.4282    0.046223   -0.030106
0.042975   0.0072465    -0.11098    -0.34712     0.43404    0.069934   -0.031406
0.054019    0.014717     -0.1217    -0.36563     0.44054    0.097543   -0.021337
0.05207   0.0091954    -0.12463    -0.38155     0.44151     0.12872  -0.0011985
0.045249  0.00075039    -0.11423    -0.40493     0.43307     0.16738     0.02706
0.037129  -0.0034721   -0.089871    -0.43384     0.41066      0.2161    0.059541
0.027385  -0.0021729   -0.054792    -0.46048     0.37201     0.26742    0.091047
0.014392  0.00075039    -0.01549    -0.47509     0.31809     0.30997     0.11476
0.0052977   0.0039985    0.021213    -0.47412     0.25637      0.3314     0.12678
0.0026992   0.0069217    0.049796    -0.45528     0.18914     0.32653     0.12807
0.0059473   0.0075714     0.06896     -0.4163     0.11736      0.2986     0.11703
0.01017  0.00042559    0.081303    -0.35816    0.037454      0.2515    0.095919
0.011144    -0.01614    0.090397    -0.28768   -0.065186     0.19726    0.068635
0.0065969   -0.037902    0.094295    -0.22044    -0.21362     0.14496    0.042651
0.0010752   -0.055441    0.094295    -0.16718     -0.4202    0.098842    0.025111
-0.0024977    -0.06681    0.088448    -0.13177    -0.66283    0.050446    0.016341
-0.00087364   -0.072656    0.075456    -0.10838    -0.88045   -0.012242    0.013743
0.0026992    -0.07493    0.056292   -0.086298    -0.99771   -0.090845    0.015042
0.0091954   -0.071357    0.033556   -0.057715    -0.96653    -0.17302     0.01894
0.021863   -0.059014    0.011469   -0.021012     -0.7986    -0.24091    0.024137
0.042326   -0.036927  -0.0031473    0.020888    -0.55564    -0.27891    0.029333
0.06896  -0.0063954  -0.0044465    0.066362    -0.31106    -0.28735    0.029983
0.092021     0.02641   0.0072465     0.10696    -0.12463    -0.27793    0.019589
0.10404    0.054668    0.022837     0.13684   -0.022636     -0.2591  -0.0018481
0.10014    0.072208    0.030308     0.15503   0.0043233    -0.23376   -0.028157
0.084226    0.075456     0.02641      0.1651   -0.013216    -0.20388   -0.050894
0.06019    0.062464    0.015692     0.16868   -0.038227    -0.17107   -0.061288
0.033556    0.041351   0.0078962     0.16283   -0.045372    -0.14249   -0.059664
0.010495    0.016666   0.0056225     0.14756   -0.029132     -0.1243   -0.050244
-0.0018481 -0.00022403   0.0088706     0.12905   0.0017248    -0.11423   -0.038876
0.0036737  -0.0037969     0.01764     0.10826    0.036479    -0.10416   -0.032055
0.028684   0.0052977    0.029983    0.078379    0.069934   -0.090845   -0.029782
0.064737    0.022188      0.0433    0.030308     0.10014   -0.076879   -0.028482
0.10306    0.037778    0.053044   -0.036927     0.12353   -0.066485   -0.027508
0.12937    0.050121    0.053044    -0.11683     0.14009   -0.063561   -0.028482
0.13197    0.062139    0.037778    -0.20323     0.14821   -0.072981   -0.035628
0.10534    0.072208   0.0065969    -0.28118     0.15309   -0.087272   -0.051219
0.054019    0.073507   -0.032705    -0.33315     0.15991   -0.088572   -0.062262
-0.0031473    0.060515   -0.069083    -0.34549     0.17192   -0.061288   -0.058689
-0.047971    0.036804   -0.087272    -0.31529     0.18557   0.0010752   -0.036927
-0.069733    0.013093   -0.080776    -0.25227     0.19856    0.089098  -0.0024977
-0.067134   0.0023744   -0.050894    -0.16782      0.2057     0.18557    0.032906
-0.047321   0.0091954   -0.008669   -0.073306     0.20538     0.27034    0.057267
-0.020037    0.026735    0.030957    0.016991     0.19531     0.32848    0.067336
0.0072465    0.045899    0.054668    0.093645     0.17939     0.35771    0.063438
0.028034    0.057917    0.055643     0.15049     0.15731     0.35901    0.047198
0.033556    0.056617    0.041676     0.18459     0.13067     0.33433    0.023812
0.024137    0.044599    0.022512     0.20116     0.10599     0.28983 -0.00022403
0.0091954    0.031282   0.0065969     0.20798    0.088448     0.23266   -0.020037
-0.00087364    0.025111  -0.0050961     0.21285    0.083901     0.17225   -0.033354
-0.0028225    0.025436   -0.013216     0.22552    0.097218     0.11151   -0.037902
0.00042559    0.023812   -0.017439     0.25085     0.12645    0.050446   -0.033354
0.0020496   0.0062721   -0.016464     0.28593     0.15893   -0.015815   -0.024585
-0.0021729   -0.031406   -0.013216     0.31646     0.18134     -0.0837   -0.018088
-0.011267   -0.076879   -0.013541     0.33075     0.19304    -0.15158   -0.020687
-0.023285    -0.10124   -0.018088     0.32881     0.19369     -0.2146   -0.034654
-0.036602    -0.08305   -0.017114     0.31484     0.18329    -0.26559   -0.058365
-0.049595    -0.02426  -0.0024977     0.29957      0.1651    -0.30132   -0.082725
-0.059664     0.05207    0.025111     0.29503     0.14172    -0.32308    -0.10286
-0.061937     0.11476    0.055643     0.30152     0.11898     -0.3325    -0.11358
-0.054142     0.13944    0.076106     0.30574     0.10339    -0.33445    -0.11228
-0.040825     0.11833    0.080653     0.30282    0.093321    -0.33218    -0.10449
-0.028482    0.061489    0.067011     0.28821    0.087149    -0.32503   -0.098316
-0.023935  -0.0089938    0.038103     0.26287    0.081627    -0.31301    -0.10221
-0.027508   -0.065186   0.0049729     0.22454    0.075131      -0.301     -0.1191
-0.027508   -0.085648   -0.018413     0.17452     0.06831    -0.29028    -0.13924
-0.012242   -0.064536   -0.025559      0.1258    0.058891    -0.27599    -0.14964
0.021538   -0.014191   -0.022311    0.087799    0.048172    -0.25812    -0.13957
0.065062    0.039402    -0.01484    0.059865    0.038103    -0.23311    -0.10903
0.10209    0.073832  -0.0089938    0.036154    0.027385    -0.20193    -0.06616
0.11995    0.079354  -0.0044465    0.012443    0.013418     -0.1675   -0.022961
0.11898    0.059865  -0.0031473   -0.013866  -0.0015233    -0.12787    0.012119
0.10599    0.031607  -0.0050961   -0.046022   -0.019712   -0.084349    0.037778
0.088124   0.0056225  -0.0099683   -0.080451   -0.040825   -0.044723    0.055318
0.066686   -0.010618    -0.01484    -0.10806   -0.061288    -0.01614     0.06896
0.048497   -0.016789   -0.017439    -0.12495   -0.079152 -0.00054884    0.078379
0.035505   -0.017764   -0.017114    -0.12852   -0.096042   0.0020496    0.080003
0.026085   -0.013541   -0.017764    -0.11975    -0.11391  -0.0076946    0.074157
0.013743  -0.0083442   -0.016789    -0.10156    -0.13469   -0.029782    0.066686
-0.0024977  -0.0076946  -0.0089938   -0.079802    -0.15321   -0.057715     0.06084
-0.021986  -0.0089938      0.0014   -0.055766    -0.16718   -0.086623    0.058891
-0.042124  -0.0093186    0.012768   -0.031406    -0.17432    -0.11001     0.06019
-0.055766  -0.0057458    0.022512  -0.0073698    -0.17042    -0.12365    0.062464
-0.056416   0.0039985     0.02641    0.013093    -0.15386    -0.13112    0.063113
-0.046671    0.019914    0.026085    0.030308    -0.12495    -0.13892    0.062464
-0.031406    0.037129    0.025761    0.043625   -0.094093    -0.14704    0.058891
-0.021661     0.05272    0.027385    0.050121   -0.068109    -0.15093    0.048172
-0.019712    0.064088    0.028034    0.054344   -0.053817    -0.14769     0.03518
-0.023935     0.06831    0.027709    0.057592   -0.052518    -0.13989    0.021538
-0.029132    0.063438    0.024461    0.061165    -0.05804    -0.12787    0.010495
-0.030431    0.044924    0.016666    0.062464   -0.065186    -0.10871   0.0052977
-0.026858    0.012768    0.003024    0.058566   -0.069733   -0.080776    0.011794
-0.01484   -0.029132   -0.012242    0.049147   -0.067134   -0.044398     0.03583
0.0078962   -0.068758   -0.025234    0.038103   -0.056416  -0.0037969     0.07708
0.038753    -0.09117   -0.029782    0.027709   -0.041799    0.036479     0.12288
0.072533   -0.087272   -0.023935    0.018615   -0.031081     0.06831     0.16185
0.099492   -0.057715   -0.008669    0.012119   -0.028157    0.090072     0.18849
0.11021   -0.012242    0.009845    0.011144   -0.027508     0.10274     0.20278
0.10079    0.032257    0.024137     0.01764   -0.022961     0.10469     0.20408
0.073182    0.061814    0.029333     0.02641   -0.014516    0.096244     0.19076
0.035505    0.069285    0.027709    0.032582  -0.0044465    0.080003     0.16315
-0.0060706    0.058566    0.019589    0.036154   0.0056225     0.06084     0.12385
