-0.06551    -0.03238    0.044599     0.14302     0.49673    -0.13404   -0.026209
-0.064536   -0.031081    0.041676     0.14172     0.18232    -0.14671  0.00010078
-0.070707   -0.036927    0.044275     0.14107    -0.13892    -0.16523    0.028359
-0.064211   -0.037252    0.050771     0.14367    -0.39616    -0.17562    0.056617
-0.035628   -0.022636    0.059541     0.14626    -0.57773     -0.1714    0.080978
0.0085458   0.0046481    0.066037     0.14561     -0.7122    -0.14216    0.097868
0.050446    0.031607     0.06831     0.13912    -0.82783   -0.084999     0.10534
0.075781    0.047523    0.063113     0.12515    -0.92105   -0.012892     0.10112
0.083251    0.051096    0.050121     0.10696    -0.97887    0.050121     0.08585
0.078379    0.044924    0.032582    0.087474    -0.98049    0.075131    0.064737
0.066362    0.033231    0.017316    0.067661    -0.90741    0.053044    0.043625
0.054019    0.019264   0.0075714    0.049796     -0.7658  -0.0050961    0.025436
0.045574   0.0046481    0.003024    0.034855    -0.58195   -0.073955    0.016016
0.043625  -0.0083442   0.0017248    0.024137    -0.38057     -0.1308    0.013743
0.045574   -0.017439  -0.0018481     0.01764     -0.2094      -0.161    0.012119
0.052395   -0.019063  -0.0093186    0.011144    -0.15711    -0.16328   0.0065969
0.059216   -0.018088   -0.019712   0.0039985    -0.30197    -0.15483  -0.0044465
0.059541   -0.016464   -0.031081  -0.0067202    -0.63068    -0.15743   -0.016464
0.055318   -0.016789     -0.0405   -0.019063     -1.0084    -0.18634   -0.031406
0.051096   -0.017439   -0.045372   -0.029457     -1.2381    -0.23961   -0.044073
0.050121   -0.018738   -0.042124   -0.035628      -1.178    -0.30944   -0.050569
0.051096   -0.020362   -0.034004   -0.038227    -0.82588    -0.38382   -0.050244
0.049147   -0.018413   -0.021986   -0.039526     -0.3312    -0.45853    -0.04992
0.038103  -0.0099683   -0.011267   -0.038876    0.086175    -0.52966   -0.055441
0.016666   0.0010752  -0.0057458   -0.039851      0.2593     -0.5891   -0.067459
-0.01484    0.011794  -0.0067202   -0.044398     0.16933    -0.61379   -0.081101
-0.048945     0.01829   -0.014191   -0.044723   -0.070707    -0.58618   -0.087922
-0.0837     0.01829   -0.028157   -0.034654    -0.29028     -0.5105   -0.084024
-0.11683    0.011469   -0.045372    -0.01484    -0.35361    -0.40753   -0.065835
-0.14769  -0.0015233   -0.058365    0.011794     -0.2094    -0.30457   -0.034978
-0.174   -0.012567   -0.061288    0.037778     0.10696    -0.22337  0.00010078
-0.19056   -0.012892   -0.051544    0.056292     0.49738    -0.17724    0.029658
-0.18959  -0.0021729   -0.034329    0.058241     0.82511    -0.15808    0.045249
-0.16523    0.016341   -0.016464    0.044599     0.98037    -0.14866    0.046873
-0.12463    0.037454  -0.0021729    0.019589     0.96705    -0.13957    0.039078
-0.072656    0.057267   0.0049729  -0.0096434     0.88195    -0.12495    0.031282
-0.013216    0.075456   0.0069217   -0.036278     0.81537    -0.10806    0.030308
0.054019    0.091372   0.0056225   -0.056091     0.79328   -0.098965    0.037129
0.1271     0.10306  -0.0015233   -0.065835     0.78613    -0.10124    0.050121
0.19726     0.10112   -0.012892   -0.069408     0.73027    -0.10156    0.065387
0.25572    0.080003   -0.025559   -0.072656     0.53733   -0.087922    0.075456
0.29308    0.038753   -0.038876   -0.077528     0.17647   -0.064211    0.071234
0.3025    -0.01484   -0.050569   -0.083375    -0.30847   -0.041799    0.048497
0.28171   -0.072006   -0.060638   -0.087922    -0.81841   -0.027833    0.013743
0.22974     -0.1282   -0.071032   -0.087272     -1.2108   -0.017439   -0.013541
0.14951    -0.17822   -0.085324   -0.079477     -1.3885   0.0069217   -0.023935
0.045249    -0.22077   -0.098965    -0.06616      -1.356    0.067336   -0.023935
-0.07428    -0.25487    -0.10936   -0.055116     -1.1858     0.17582   -0.020037
-0.18439    -0.27793    -0.11391   -0.047646    -0.95938     0.32101   -0.013216
-0.2565    -0.28476    -0.11391   -0.045372    -0.73851     0.47399  -0.0057458
-0.27404    -0.26949    -0.11098    -0.04862    -0.56409     0.60457  -0.0021729
-0.23441    -0.22759    -0.11066   -0.057715    -0.43741     0.69844  -0.0073698
-0.14639    -0.15451    -0.11228   -0.068109    -0.31496     0.75593   -0.011592
-0.026533   -0.050569    -0.10709    -0.06551    -0.14704     0.79133   0.0036737
0.098193    0.070259   -0.088896   -0.042124    0.054019     0.81115    0.042651
0.19888     0.18362   -0.061288  -0.0041217     0.20278     0.80692    0.097543
0.25313     0.26482   -0.031406    0.033231     0.22194      0.7543     0.15016
0.25085     0.30315  -0.0044465     0.05272      0.1245     0.63802     0.18589
0.20051     0.30412    0.016666    0.046548    0.031932     0.45775     0.20603
0.13295     0.28496    0.029983    0.021863    0.092996     0.23948     0.21935
0.080978     0.26125    0.037454  -0.0034721      0.3457    0.020564     0.23721
0.063438     0.23461    0.042975   -0.014191     0.60359    -0.16263     0.25702
0.083576     0.19271    0.045899  -0.0080194     0.57923    -0.29125     0.26969
0.13165      0.1323    0.045899   0.0078962     0.15568    -0.36109     0.26092
0.19044    0.062139    0.045249    0.027385    -0.51927    -0.37668     0.23494
0.2515   0.0078962    0.044599    0.048497     -1.1185    -0.34679       0.207
0.31322   -0.013216    0.041351    0.066686      -1.367    -0.27956     0.19109
0.37493   0.0020496     0.03583     0.07708     -1.1984    -0.19186     0.18784
0.4204    0.041027    0.024786    0.072858     -0.7606    -0.10059     0.18849
0.423    0.084551    0.013093    0.053369    -0.31399   -0.022636     0.18232
0.36876     0.12223    0.008221    0.028034    -0.11651    0.032582     0.16998
0.26807     0.15179    0.016991   0.0075714    -0.30392    0.068635     0.15211
0.14821      0.1703    0.037129   0.0020496    -0.79178    0.092996     0.13782
0.038103      0.1742    0.061165    0.016016      -1.355     0.11931     0.12807
-0.043423     0.15958    0.077405    0.048172     -1.7961     0.15731     0.11931
-0.092794     0.12483    0.082927    0.090072     -2.0192     0.21382     0.10144
-0.11813    0.079354    0.083251       0.131     -1.9942     0.27781    0.062464
-0.13729    0.036154    0.084226     0.15341      -1.761     0.31809  -0.0034721
-0.1701  -0.0034721    0.087149     0.14756     -1.4164     0.30217   -0.088247
-0.21849   -0.045047    0.084551     0.10534     -1.0649     0.21415    -0.18049
-0.28021   -0.095717    0.071234    0.033881    -0.76222    0.065387    -0.26494
-0.33737    -0.15353    0.042651    -0.04862    -0.48938    -0.11715    -0.32731
-0.36953    -0.20193  0.00075039    -0.12008    -0.16912    -0.30035    -0.35361
-0.36141    -0.22109   -0.046347    -0.16425     0.26644    -0.46048    -0.33997
-0.30912    -0.19511   -0.086948    -0.17627     0.82609    -0.57708    -0.29093
-0.2081     -0.1191    -0.11033    -0.16035      1.4348     -0.6323    -0.21687
-0.065186  -0.0028225    -0.10579    -0.13047       1.948    -0.62613    -0.13469
0.087799      0.1323   -0.075579   -0.097991      2.2159    -0.57156   -0.060963
0.20603     0.25605   -0.027833   -0.070058      2.1883    -0.48744  -0.0060706
0.25865     0.34147    0.015367   -0.048945      1.9499    -0.37992    0.031282
0.23851      0.3746    0.036154   -0.035953      1.6579     -0.2578    0.056292
0.16121     0.35836    0.028684   -0.031081      1.4296    -0.12982    0.075131
0.061165     0.30185   0.0072465   -0.032705      1.2873  -0.0076946    0.081303
-0.029782     0.21415   -0.011917   -0.038551      1.1743     0.09397    0.071558
-0.09182     0.10274   -0.024909   -0.044073       1.007      0.1625    0.049147
-0.12073   -0.016464   -0.031081   -0.048296     0.73676     0.19141    0.017965
-0.12073    -0.12495   -0.030431   -0.052518     0.40091     0.18394   -0.015165
-0.10351    -0.19673   -0.023935    -0.05739     0.10469     0.14951   -0.044723
-0.085324    -0.21135   -0.011917   -0.062912   -0.057715     0.10274   -0.070382
-0.073631    -0.16263   0.0017248   -0.064861   -0.064861    0.062139   -0.088896
-0.058689   -0.064536     0.01764    -0.05804    0.037778    0.044599   -0.098965
-0.020362    0.057267    0.037129    -0.04115      0.1755    0.058891   -0.096367
0.058891      0.1703    0.057917   -0.016464      0.2986     0.10566   -0.076229
0.17387     0.24923    0.073182    0.013743     0.40871     0.17127   -0.040825
0.29373     0.27944    0.083251    0.044599     0.52791     0.23818   0.0020496
0.38857     0.27521    0.095269    0.075456     0.65491     0.29048    0.040702
0.44086     0.25865     0.11021     0.10371     0.77022     0.32134    0.064088
0.43697     0.24143      0.1232     0.12743     0.84752     0.33693    0.067986
0.37006     0.21123     0.12353     0.14009     0.86409     0.34505     0.05142
0.2463     0.15763     0.10794     0.13749     0.78289     0.34732    0.019264
0.096893     0.07773    0.082602     0.11995     0.57696      0.3353   -0.016464
-0.035303    -0.02426    0.055318    0.097868     0.24695     0.29957   -0.046347
-0.11553    -0.13534    0.032257    0.081952    -0.16523     0.24078   -0.069733
-0.13437    -0.24318    0.016016    0.072208    -0.57253     0.16965    -0.09182
-0.11715    -0.34095  0.00075039    0.065712     -0.8837     0.10047    -0.12008
-0.10936    -0.43384   -0.020037    0.055968     -1.0331    0.045899    -0.14834
-0.15451    -0.51829   -0.047321    0.037778     -1.0036    0.012443    -0.16685
-0.25975    -0.58228   -0.076879    0.014068    -0.82394  0.00075039    -0.16588
-0.39519    -0.61184    -0.10221   -0.012242    -0.52966   0.0043233    -0.14216
-0.52122    -0.59462    -0.11456   -0.031081    -0.14704    0.017316    -0.10319
-0.60534    -0.52934    -0.11196   -0.037902      0.2934    0.033556   -0.062587
-0.64432    -0.43384   -0.095717   -0.030106     0.72052    0.048172   -0.034004
-0.66868     -0.3377   -0.076554   -0.015815      1.0385    0.056617   -0.029132
-0.71675    -0.26527   -0.063237  -0.0011985      1.1818    0.054993    -0.04927
-0.80542    -0.22597   -0.055766   0.0085458      1.1545    0.040702   -0.087922
-0.90611     -0.2107   -0.051544    0.014717      1.0232    0.016341    -0.12852
-0.97042    -0.19771   -0.044073    0.024137     0.87188  -0.0050961    -0.15256
-0.96165     -0.1727   -0.028482    0.042975      0.7595   -0.018738    -0.14736
-0.87396    -0.13469  -0.0076946     0.06831     0.70786   -0.025559    -0.11715
-0.72   -0.089221    0.015042    0.095269       0.715   -0.027183    -0.06681
-0.51504   -0.046671    0.036154     0.11768     0.78159   -0.020362   -0.010293
-0.26949  -0.0096434    0.053369     0.13522     0.89365  -0.0021729    0.033881
-0.0031473    0.022837    0.067011     0.14789      1.0018    0.032257    0.057267
0.24046    0.057267     0.07773     0.15796      1.0431    0.074482    0.056292
0.41878    0.097543    0.084226     0.16705     0.96575     0.10664    0.037778
0.5133     0.13782      0.0852     0.16803     0.74001     0.11736   0.0095202
0.52759     0.16088    0.075131     0.15309     0.35706     0.11151   -0.020037
0.4727     0.14269    0.048172      0.1206    -0.15418     0.10469   -0.052518
0.36843    0.073507   0.0059473    0.075456    -0.70246     0.11118   -0.080451
0.23981   -0.028482   -0.039851     0.02706     -1.1702      0.1349    -0.09994
0.10989     -0.1269   -0.072006   -0.016789     -1.4768      0.1716    -0.10806
0.0020496    -0.19576   -0.086948   -0.052518     -1.6733     0.19791    -0.10481
-0.062587    -0.23181   -0.094093   -0.086298     -1.8698     0.17582   -0.093444
-0.081426    -0.23701    -0.10124    -0.12527     -2.0829    0.072533     -0.0837
-0.06551    -0.20875    -0.11261    -0.17822       -2.18     -0.1217     -0.0837
-0.026858    -0.13697    -0.12268    -0.24026     -1.9624    -0.37603   -0.094093
0.025761   -0.019712     -0.1243    -0.29482     -1.3264    -0.63132    -0.10806
0.090722     0.13295    -0.10838    -0.32048    -0.36498    -0.83173    -0.10936
0.17355      0.2999   -0.072006    -0.30489     0.64582    -0.93957   -0.082725
0.27002     0.45678   -0.020687     -0.2578      1.3666    -0.94964    -0.02361
0.36194     0.57988    0.033881    -0.19803      1.5793    -0.88532    0.052395
0.4282     0.65199    0.083901    -0.13989      1.2318    -0.79503     0.11573
0.45743     0.66141     0.11898   -0.094093     0.47724    -0.72195     0.14074
0.46165     0.60132     0.12678   -0.063237    -0.39292    -0.68557     0.12125
0.46425     0.48179     0.10306   -0.044723     -1.0841    -0.68037    0.071883
0.47757     0.33238    0.052395   -0.035628     -1.4495    -0.68264   0.0088706
0.5042      0.1781   -0.012892   -0.034004     -1.4664    -0.67193   -0.060963
0.54675    0.036154   -0.084349   -0.040825     -1.2007    -0.62873    -0.12527
0.62438   -0.077853    -0.15548   -0.047646    -0.76352    -0.53713    -0.16718
0.75171    -0.13307    -0.21005   -0.043748    -0.27339    -0.38382    -0.17075
0.90501    -0.10644    -0.23084   -0.014516     0.16868     -0.1753     -0.1256
1.033  -0.0041217    -0.20258    0.049796      0.5094     0.06961   -0.034329
1.0817     0.13457     -0.1282     0.15373     0.74488     0.31744    0.093321
1.02      0.2619   -0.030431     0.28366     0.90469     0.53506     0.23364
0.84493     0.35284     0.06084     0.41196      1.0167     0.69746     0.35414
0.5854     0.40319     0.12418     0.51167      1.0856     0.79555     0.43112
0.29275     0.41618     0.15309     0.56462       1.085     0.83453     0.45905
0.016016     0.38402     0.15211     0.56234     0.95471     0.83161     0.45743
-0.20745     0.30347     0.12905     0.49868     0.63705     0.79555     0.44346
-0.35686     0.18362    0.092671      0.3733     0.15049     0.72605       0.423
-0.428    0.050771    0.050446     0.20343    -0.36466     0.61886      0.3889
-0.4267   -0.059664   0.0052977    0.016666    -0.71707     0.48017     0.33693
-0.36953    -0.12268   -0.037902    -0.15256    -0.79503     0.33108     0.26774
-0.29093    -0.13372   -0.070707    -0.27988    -0.61281     0.20051     0.19466
-0.24578    -0.11748   -0.084999    -0.35751    -0.27696     0.10956      0.1258
-0.27176    -0.10774   -0.079802    -0.39292    0.078704    0.062464    0.064737
-0.36823     -0.1217   -0.061613    -0.39779     0.34894    0.050121    0.016016
-0.49588    -0.15288   -0.037577    -0.38187     0.49478    0.053369   -0.014516
-0.59982    -0.18699   -0.013541    -0.35069     0.55422    0.051096   -0.024585
-0.63717    -0.20453   0.0075714    -0.31204     0.62016    0.031282   -0.018413
-0.59462    -0.19413    0.022512    -0.26559     0.75528   0.0017248  -0.0047713
-0.49036    -0.15711    0.034206    -0.20713     0.95146   -0.011592    0.011144
-0.35914    -0.10514    0.046548    -0.11845      1.1288    0.019589    0.023487
-0.23279   -0.050569    0.059216    0.023162      1.1934     0.10956    0.033881
-0.13437 -0.00054884    0.072533     0.23006      1.0866     0.23754    0.042975
-0.068109    0.041351    0.086824     0.48699     0.78743     0.37265    0.051745
-0.025234    0.074157     0.10339     0.75106     0.32946     0.48991    0.054993
0.0059473    0.097868     0.11963     0.97257    -0.21005     0.57501    0.049796
0.03453     0.11443     0.13165      1.1031    -0.76807     0.62308    0.036804
0.061814     0.12158     0.13587      1.1194     -1.3553     0.62698     0.01764
0.081952     0.11671       0.131      1.0239     -1.9978     0.56851  -0.0076946
0.083576    0.098517     0.11573      0.8381     -2.6399     0.42625   -0.043099
0.06084    0.071558    0.091696     0.60164     -3.1525     0.19693   -0.088896
0.016016    0.040702    0.058241     0.35609     -3.4341    -0.10221    -0.13729
-0.046022   0.0043233    0.020888     0.13717     -3.4929    -0.43449    -0.17952
-0.1178   -0.041799   -0.013866    -0.03173     -3.3656    -0.75313    -0.20908
-0.18731   -0.095393   -0.040175    -0.14541      -3.057     -1.0195    -0.22597
-0.23506    -0.14509   -0.054792    -0.21135     -2.5597     -1.2085    -0.23311
-0.23831    -0.17562   -0.055441    -0.24513     -1.8802     -1.3079    -0.23181
-0.19186    -0.17692    -0.04992    -0.26429     -1.0656     -1.3235    -0.22434
-0.11521    -0.15483   -0.043099    -0.28053    -0.21167      -1.265    -0.21557
-0.0405    -0.12105   -0.038551    -0.29937     0.57436     -1.1426    -0.20713
0.0069217   -0.092469   -0.037252    -0.31756      1.1934     -0.9688    -0.19771
0.020564   -0.076554   -0.040175    -0.33218      1.5835    -0.76515    -0.18601
0.0072465   -0.073955   -0.046347    -0.34225      1.7187    -0.55759    -0.17042
-0.01549   -0.080451   -0.050894    -0.34907      1.6245    -0.37375    -0.15191
-0.026858   -0.088247   -0.051219    -0.35134      1.3857    -0.23311    -0.13307
-0.021986   -0.089871   -0.053168    -0.34712      1.1061    -0.14411    -0.11391
-0.0063954   -0.085973   -0.060313    -0.33672     0.86539    -0.10059   -0.090196
0.0014    -0.08305   -0.070058    -0.31756     0.69649   -0.084999   -0.061937
-0.017764   -0.082076   -0.072656     -0.2893     0.58735   -0.077203   -0.034329
-0.062262   -0.080127   -0.066485    -0.25715     0.49868   -0.065835   -0.010618
-0.11001   -0.072981   -0.053817    -0.22597     0.40351   -0.048296   0.0095202
-0.13404   -0.067459   -0.037902    -0.20063      0.3038   -0.025884    0.021538
-0.12105   -0.073631   -0.024585    -0.18212     0.22292  -0.0024977    0.021538
-0.073955   -0.089546   -0.018088     -0.1714     0.18524    0.019589    0.011469
-0.0096434   -0.096042   -0.015815    -0.16653     0.19044    0.041027  0.00010078
0.051745    -0.07428   -0.011267     -0.1649     0.21902    0.061814  -0.0060706
0.098842   -0.021986   0.0010752    -0.16425      0.2463    0.079354  -0.0050961
0.13555    0.040702    0.016666    -0.16263     0.23591    0.090397 -0.00087364
0.16738    0.080328    0.025111     -0.1623     0.15016    0.090722   0.0043233
0.19011    0.080328    0.025436     -0.1597    -0.03303    0.077405    0.012768
0.19531    0.044924    0.017316    -0.15613    -0.28963    0.057917    0.025761
0.17972  -0.0021729   0.0085458    -0.15126    -0.54752    0.045249    0.042326
0.15633   -0.035628  0.00075039    -0.14184    -0.72747     0.05207    0.064088
0.14074   -0.044073  -0.0034721    -0.12657    -0.78171    0.087799    0.092346
0.14432   -0.031406  -0.0041217    -0.10676    -0.70181     0.14919     0.12223
0.1677   -0.010293  -0.0054209   -0.087922    -0.52966     0.22714     0.14919
0.19726    0.012768  -0.0093186   -0.073631    -0.32958     0.29892     0.16575
0.21512    0.044275   -0.015815   -0.069408    -0.14509     0.35057     0.16705
0.20668    0.092346   -0.022636   -0.073955    0.016991      0.3798     0.15049
0.17647     0.15406   -0.028807   -0.087272     0.15211     0.39117     0.12028
0.13814      0.2148   -0.029457    -0.10449     0.24695     0.38467    0.088448
0.10924     0.25605   -0.028157    -0.11943     0.30412     0.36713    0.066686
0.10112     0.26417   -0.027508    -0.12398     0.35999     0.35219    0.063763
0.10664     0.23851   -0.023935    -0.11423     0.46328     0.35154    0.079029
0.11183     0.19044   -0.018413   -0.095068      0.6364     0.36616    0.096244
0.099492     0.12743   -0.012242   -0.079477     0.84882     0.39117     0.10014
0.065712    0.054019   -0.012892   -0.071357      1.0486     0.41488    0.084226
0.016666   -0.020687   -0.021986   -0.073955      1.1821     0.42203    0.048822
-0.03238    -0.08305   -0.037252   -0.084024      1.2188     0.40708  -0.0021729
-0.070058    -0.12203   -0.051868   -0.097991      1.1437      0.3746   -0.055441
-0.090196     -0.1334   -0.060963    -0.10481     0.95406     0.33498   -0.095068
-0.094743     -0.1204    -0.05804   -0.097991     0.65166     0.29697    -0.10676
-0.086298   -0.088247   -0.041799   -0.078827      0.2593     0.26384   -0.093444
-0.06616   -0.053817   -0.017439   -0.052193    -0.14574     0.23461   -0.069408
-0.035303   -0.032705   0.0036737   -0.028157    -0.46372     0.20505    -0.04992
0.00042559    -0.03303    0.012443  -0.0080194    -0.62353     0.17615   -0.045047
0.037129   -0.052843   0.0095202   0.0095202    -0.59917     0.14789   -0.056741
0.075781   -0.077853 -0.00022403    0.026735    -0.40851     0.12775   -0.077203
0.12255   -0.095393  -0.0057458    0.043625    -0.10254     0.11931   -0.094418
0.17387   -0.097991  -0.0089938    0.057917     0.25313     0.11801    -0.10189
0.21123   -0.081426   -0.010943     0.06961     0.58995     0.11216    -0.10091
0.2148     -0.0405  -0.0057458    0.080003     0.84038    0.090072    -0.09929
0.1742    0.025436    0.011469    0.091696     0.94074     0.05207   -0.097991
0.096244     0.10794    0.041027     0.10599     0.83908     0.01017   -0.096042
-0.0083442     0.18849    0.078704     0.12125     0.51914   -0.025559   -0.093769
-0.12527     0.23981     0.11216     0.13002    0.030308   -0.048945   -0.093444
-0.24805     0.22877      0.1284     0.12158    -0.51342    -0.05804   -0.096042
-0.36303     0.14464     0.11378    0.092346    -0.96588    -0.04862    -0.10514
-0.44456   0.0085458    0.074157    0.050771     -1.2033   -0.024585     -0.1178
-0.47087    -0.13599    0.028684    0.015042     -1.1585      0.0014    -0.12495
-0.44034    -0.24643  -0.0044465 -0.00054884     -0.8444    0.014392    -0.12268
-0.36596    -0.31496   -0.025234   0.0046481    -0.34679    0.014392    -0.10709
-0.27046    -0.36921   -0.044398    0.024786      0.2135   0.0091954   -0.079802
-0.17172    -0.44164   -0.075904    0.048497     0.71922    0.012443   -0.044073
-0.084349    -0.53616     -0.1256    0.067011      1.0856    0.028684  -0.0050961
-0.021012    -0.61249    -0.18277    0.076106      1.2613    0.053369    0.032906
0.008221    -0.61606    -0.22889    0.068635      1.2389    0.078379    0.067011
-0.0028225     -0.5001    -0.23993    0.054344      1.0755    0.097868    0.097543
-0.056416    -0.27241     -0.2042    0.048822     0.86961     0.10956     0.12288
-0.14964  -0.0031473    -0.13047    0.062464     0.70298     0.10859     0.14302
-0.26299      0.2096   -0.048945    0.088773     0.60067      0.0865     0.16056
-0.35719      0.3025   0.0062721     0.10989     0.52564    0.041027     0.18329
-0.40169     0.27586     0.01894     0.11021     0.40254   -0.026858     0.21123
-0.37473     0.18264  -0.0041217    0.084876     0.16315    -0.11878     0.23396
-0.28735    0.089748   -0.044723    0.039402    -0.19706    -0.23831     0.23786
-0.16945    0.045574   -0.079152  -0.0099683     -0.5878    -0.36985     0.21415
-0.055441     0.06896   -0.092469   -0.043423    -0.87526    -0.47867     0.16803
0.039402     0.15244   -0.075255   -0.047646    -0.95938    -0.53128     0.12125
0.11118     0.27261   -0.032705   -0.017114    -0.85187    -0.51634     0.10112
0.16608     0.38922    0.020564    0.036804    -0.69921    -0.45106      0.1245
0.207      0.4623    0.065712    0.094295    -0.68264    -0.37278     0.18589
0.23299      0.4662    0.095269      0.1336    -0.87753    -0.30944     0.25995
0.24338     0.40449     0.10371     0.14432     -1.2075    -0.26624     0.31906
0.23851     0.29892    0.094295     0.12743     -1.5258    -0.23376     0.34375
0.22454     0.18394    0.074806     0.09462     -1.7022    -0.19771     0.33238
0.21252     0.09462    0.056292    0.063763     -1.6749    -0.14509     0.29243
0.21188    0.045249    0.042651    0.046548      -1.455   -0.071682     0.24436
0.22487    0.030633    0.032582     0.04395     -1.1007    0.013743     0.20148
0.23916    0.035505    0.024461    0.048172    -0.69076    0.094295     0.16868
0.24598    0.045249    0.021538    0.053369    -0.30522     0.15438     0.13977
0.24078    0.055643    0.022512    0.056617   -0.007045     0.18362     0.10469
0.22065    0.065062     0.02706    0.055968     0.18459      0.1768    0.064088
0.19304    0.070909    0.032257     0.05272     0.30185     0.14237     0.01894
0.16835    0.070259    0.038103    0.050771     0.40319    0.098842   -0.025559
0.15309     0.06019    0.044599    0.053369     0.53506    0.063438   -0.064536
0.13587    0.037454     0.05272    0.058241     0.69551    0.042001   -0.097341
0.092346   0.0065969    0.055318    0.063113     0.82966    0.027385    -0.12982
0.011794   -0.026209    0.047523    0.064413     0.85954   0.0085458    -0.16458
-0.098641   -0.054467    0.034206    0.057917     0.74423   -0.022636    -0.20355
-0.22174   -0.075904    0.022837    0.044924     0.51525   -0.071682    -0.24318
-0.34095   -0.096692    0.014717    0.030308     0.25767    -0.13697    -0.28118
-0.43482     -0.1204   0.0085458    0.017965    0.047198     -0.2094    -0.31789
-0.48744    -0.14574   0.0062721   0.0095202   -0.075255    -0.27696    -0.34614
-0.49296    -0.17237   0.0039985   0.0075714    -0.10741    -0.32601    -0.35621
-0.46178    -0.20258  -0.0015233    0.013093   -0.057065     -0.3429    -0.33932
-0.41338    -0.22954  -0.0093186    0.026085     0.06831    -0.32016    -0.29385
-0.35361    -0.24091   -0.018088    0.048172     0.26709    -0.25292    -0.22564
-0.26916    -0.22337   -0.022311    0.079354     0.49446    -0.15191    -0.14152
-0.14964    -0.16945   -0.013541     0.11443     0.64614     -0.0405   -0.055766
-0.0093186   -0.086623     0.01017     0.14496     0.60749    0.048822   0.0085458
0.11671   0.0020496    0.038428      0.1625     0.32556    0.091047     0.03453
0.18914    0.072533    0.059865     0.16023    -0.14704    0.084226    0.020239
0.18427     0.11346    0.070259     0.14561    -0.67582    0.048172    -0.01614
0.10859     0.12483    0.071234     0.12645      -1.115    0.016991   -0.045697
-0.0067202     0.11216    0.066686     0.11118     -1.3875    0.015042   -0.053492
-0.11358    0.088773    0.057267     0.10242     -1.5522    0.045574     -0.0405
-0.17822    0.070259    0.046223    0.097218     -1.7425      0.0865   -0.022961
-0.19478    0.064413    0.036154      0.0852     -2.0251     0.10469   -0.019388
-0.17854    0.069285    0.029983    0.060515     -2.2937    0.076431   -0.044073
-0.15158    0.076431    0.025761    0.023162     -2.3232  -0.0037969   -0.092794
-0.13437     0.07708    0.019589   -0.020362     -1.9016    -0.11813    -0.15256
-0.13437     0.06961   0.0091954   -0.062587    -0.96263    -0.23376    -0.21037
-0.14509    0.058566  -0.0093186    -0.09994     0.35154    -0.32178    -0.26234
-0.14346    0.045574   -0.032705    -0.13145      1.6872    -0.36173    -0.30944
-0.10026    0.022512   -0.057715    -0.14346      2.7412    -0.34484    -0.34907
0.0046481  -0.0060706   -0.068434     -0.1243      3.3723    -0.27534    -0.36758
0.17355   -0.024909   -0.047971   -0.070707      3.5831    -0.17659    -0.35556
0.37883   -0.034004 -0.00087364   0.0026992      3.4626   -0.077528    -0.32016
0.56234   -0.053168    0.048822    0.069285      3.1325   0.0010752    -0.28021
0.66726   -0.092794    0.075456     0.10729      2.6973    0.061165    -0.24903
0.66466    -0.13599    0.064737     0.10729      2.2049     0.11151    -0.22304
0.56527    -0.16035    0.021213    0.076106      1.6371     0.15373    -0.18309
0.39182    -0.17172   -0.036602    0.031282      0.9664     0.18589    -0.10481
0.17842    -0.19738   -0.087922   -0.012892     0.25443     0.20148    0.015042
-0.026209    -0.24708    -0.11521   -0.038551    -0.33932     0.20018     0.15536
-0.17367    -0.30229    -0.11131     -0.0405    -0.67193     0.18134     0.27619
-0.24383     -0.3403   -0.078503   -0.022961    -0.76092     0.13782      0.3431
-0.2487    -0.34712   -0.035628  -0.0044465    -0.72032    0.063438     0.33725
-0.21817    -0.32666  -0.0050961  -0.0063954    -0.64854   -0.040175     0.26969
-0.19251    -0.28963 -0.00054884    -0.03173    -0.57546    -0.15191      0.1729
-0.19608    -0.24675   -0.022636   -0.070382    -0.48646    -0.24708    0.081627
-0.2133     -0.2016    -0.05804    -0.10416    -0.37635     -0.2997    0.026085
-0.20193    -0.15938   -0.087272    -0.11423     -0.2435    -0.29677    0.024461
-0.1295    -0.11878    -0.10254   -0.093769   -0.062912    -0.23506    0.078379
0.0036737   -0.068758    -0.10481   -0.045372     0.19109    -0.12203     0.17712
0.16348   0.0085458   -0.095393    0.014068     0.48276    0.026735     0.30087
0.31614     0.12548    -0.07428    0.065712     0.70461     0.17874      0.4204
0.43242     0.26482   -0.044073    0.093645     0.74586     0.30022     0.50063
0.48082     0.38792   -0.015165    0.093645     0.56689     0.36389     0.51752
0.45613     0.45938   0.0072465    0.076431      0.2187     0.36421     0.46815
0.37753     0.47497    0.026735    0.055318    -0.17952     0.31809     0.37883
0.27586     0.44898    0.046223    0.042001    -0.52284     0.25735     0.28203
0.18004     0.40514    0.064088    0.036479    -0.78951     0.20278     0.19888
0.10794     0.36583    0.074806    0.033231     -1.0468     0.15633     0.13717
0.067986     0.34115    0.075781    0.029333     -1.3946     0.10631    0.091047
0.058566     0.32231    0.071234    0.024137     -1.8575    0.033881    0.052395
0.064413     0.29243    0.064413    0.017965     -2.3226   -0.068109    0.011144
0.066037     0.24436    0.054993    0.012443     -2.5805    -0.18861   -0.033679
0.059541     0.18427    0.045249    0.011794     -2.4347    -0.29353   -0.076879
0.047198     0.12775    0.032906    0.019914     -1.8386    -0.34614    -0.10806
0.034206    0.091047    0.018615    0.037129    -0.94671    -0.32568    -0.12333
0.01829     0.07708   0.0043233    0.058891   -0.025234    -0.24286     -0.1256
-0.00022403    0.084226  -0.0054209    0.077405     0.67083     -0.1308      -0.123
-0.023285     0.10501  -0.0021729    0.089098      1.0346   -0.021012    -0.11651
-0.045372       0.131    0.014717    0.090397      1.1035    0.070584    -0.10611
-0.059664     0.15016    0.036804    0.082277     0.97745     0.14139   -0.091495
-0.062262     0.15861    0.059541    0.071558     0.74131     0.19434   -0.072006
-0.047646     0.15633    0.073507    0.063113     0.43372     0.23526   -0.050244
-0.021337     0.14886    0.078055    0.059865    0.055968     0.26872   -0.031081
0.0046481     0.13977    0.080653    0.055968    -0.38252     0.28918   -0.023935
0.014392     0.12905    0.082277    0.046873    -0.82004     0.28301   -0.027508
-0.0073698     0.11248    0.081952    0.028684     -1.1072     0.24111     -0.0405
-0.059664      0.0852     0.07773 -0.00054884     -1.0698     0.17095   -0.055116
-0.12495    0.044924    0.067336   -0.035303     -0.6323    0.090072   -0.065186
-0.17854   -0.012567    0.050446   -0.068109    0.097543    0.027385   -0.069733
-0.19966     -0.0824     0.02706   -0.093444      0.8511  -0.0031473   -0.070707
-0.17822    -0.14996  0.00010078    -0.11001      1.3636   -0.011592    -0.06681
-0.11488    -0.19901   -0.027508    -0.12008      1.5121   -0.021337   -0.057065
-0.035628    -0.21914   -0.048945    -0.12625      1.3237   -0.055116   -0.045697
0.021538    -0.21037   -0.057065     -0.1282     0.93327      -0.123   -0.039526
0.029333    -0.18569   -0.056091     -0.1256     0.51492    -0.21557   -0.043099
-0.013866    -0.15776   -0.055116    -0.11943     0.19628    -0.31106   -0.053168
-0.087922    -0.13632   -0.056741    -0.10774    0.027385    -0.38187   -0.066485
-0.161    -0.12722   -0.057715   -0.092794  -0.0099683    -0.40656   -0.080127
-0.2068     -0.1256   -0.055766   -0.073306    0.034855    -0.38415   -0.093769
-0.21914    -0.12527   -0.051219   -0.048945     0.10696    -0.32666    -0.10709
-0.20388     -0.1204   -0.046022   -0.021337     0.17452    -0.25098    -0.11423
-0.16588    -0.10741    -0.04115   0.0085458        0.22    -0.16588    -0.10644
-0.11488   -0.089221   -0.032705    0.035505     0.22519   -0.077203   -0.078178
-0.061937   -0.072656   -0.018413    0.058566     0.14756   0.0069217   -0.037577
-0.013866   -0.056416  -0.0015233    0.073182   -0.047321    0.070259   0.0033489
0.025436   -0.042124    0.015692    0.075456    -0.33965    0.097218    0.030957
0.057267   -0.027833    0.029333    0.066362    -0.66348    0.082927    0.038753
0.080653   -0.012242    0.033881    0.047847    -0.94444    0.030308    0.028684
0.087799   0.0010752    0.032257    0.024461     -1.1208   -0.045047   0.0026992
0.068635   0.0075714    0.028684   0.0046481     -1.1478    -0.11521   -0.026533
0.020239   0.0059473    0.027385  -0.0099683     -1.0217    -0.14801   -0.045372
-0.039851   0.0010752     0.02706   -0.021337    -0.80705    -0.13372    -0.04927
-0.088896  -0.0063954    0.019914   -0.032055    -0.60047   -0.084349   -0.047646
-0.10741   -0.017439   0.0033489    -0.04927    -0.46243   -0.028807   -0.052843
-0.088247   -0.038876    -0.02426   -0.071032    -0.37895   0.0078962   -0.066485
-0.041475   -0.069083   -0.060638   -0.087272    -0.29158    0.023162   -0.082076
0.013093   -0.090196   -0.092794   -0.088896    -0.13664    0.042651   -0.089871
0.052395   -0.084349    -0.10514   -0.068758     0.10144    0.090072   -0.078178
0.066686   -0.046671   -0.089221   -0.034329     0.37363     0.17322   -0.043748
0.065062    0.011794   -0.055441  0.00010078     0.60229     0.26969  -0.0060706
0.076431    0.072533   -0.024909    0.019589     0.72377     0.34505    0.015042
0.1232     0.12418   -0.015165    0.016666     0.70104     0.37201    0.011469
0.20635     0.15828   -0.026533  -0.0067202     0.54155     0.34505  -0.0099683
0.30282     0.17257   -0.045697   -0.036927     0.32198     0.28268   -0.034978
0.3785     0.16445    -0.05804   -0.058689     0.15146     0.21902   -0.049595
0.41131     0.13165   -0.062262   -0.061937     0.13035     0.18004   -0.034654
0.39442    0.071558   -0.060313   -0.047321     0.31127      0.1755    0.012443
0.3327  -0.0021729   -0.054792   -0.020037     0.67765     0.20505    0.076106
0.24013   -0.062262   -0.043423   0.0075714      1.1217     0.26449     0.13847
0.13295     -0.0824   -0.027508    0.027385      1.4835     0.33758     0.18881
0.027709   -0.056416   -0.011917    0.033231      1.6472     0.40384     0.21545
-0.061613  -0.0037969  -0.0024977    0.026735      1.5936     0.44671      0.2174
-0.12235    0.049147  -0.0011985    0.014717       1.375     0.46652     0.19693
-0.14476    0.081952  -0.0037969   0.0046481      1.0648     0.47042     0.16933
-0.1334    0.088448  -0.0047713   0.0059473     0.71403     0.46425     0.14496
-0.10189    0.071883 -0.00087364    0.013093     0.35934     0.44509     0.12645
-0.066485    0.045574    0.008221    0.015042    0.064413     0.40546     0.11151
-0.039851    0.021538     0.01829   0.0059473    -0.13664     0.33563    0.096893
-0.022636    0.014717    0.028034   -0.012892    -0.28443     0.23266    0.076755
-0.013541    0.031932    0.033231   -0.039851    -0.46048    0.096893    0.051745
-0.0024977     0.06961    0.033556   -0.067134     -0.7213   -0.060638     0.02641
0.017316     0.11671    0.029009   -0.085648     -1.0692    -0.22077   0.0069217
0.040052     0.15991    0.022512   -0.090521     -1.4498    -0.35621  -0.0028225
0.045899     0.18362    0.012119   -0.081751     -1.7854    -0.44261  -0.0031473
0.025111      0.1768  0.00042559    -0.06681     -2.0251    -0.47087   0.0059473
-0.014191     0.14302   -0.010943   -0.046671     -2.1719    -0.45268    0.020239
-0.060313    0.093645   -0.021337   -0.028807     -2.2226     -0.4163    0.032257
-0.10124    0.042975   -0.032055   -0.018413     -2.1427    -0.39551    0.032257
-0.1334  -0.0015233    -0.04115   -0.017114     -1.9039      -0.415    0.021213
-0.16393    -0.04862   -0.048945   -0.026209     -1.5064    -0.47022   0.0020496
-0.20355    -0.11715   -0.061613   -0.042124    -0.96783    -0.53486   -0.020687
-0.26754    -0.21557   -0.078827   -0.061937    -0.33997    -0.57513   -0.046347
-0.35264     -0.3299   -0.096367    -0.07428     0.28236    -0.56994   -0.066485
-0.4254    -0.42475    -0.10741   -0.075904     0.79523    -0.51894    -0.06681
-0.43936    -0.46405    -0.10968   -0.068758      1.1321    -0.43904   -0.046671
-0.37245    -0.43709    -0.10319   -0.057065      1.2808    -0.35102   -0.017439
-0.24123    -0.36173   -0.091495   -0.046347      1.2643    -0.27761   0.0065969
-0.088896    -0.26689   -0.080776   -0.039851       1.133    -0.22791    0.015367
0.041676    -0.17887   -0.070707   -0.035953     0.94464    -0.19413   0.0091954
0.13067    -0.11131   -0.059664   -0.033354     0.74294    -0.16523  -0.0047713
0.17907   -0.066485   -0.043748   -0.028157      0.5578    -0.13924   -0.019712
0.19921   -0.038227   -0.022961    -0.01549     0.40643     -0.1191   -0.035303
0.19499   -0.018413 -0.00087364   0.0039985      0.3012    -0.10286   -0.055441
0.16705  -0.0041217     0.01829    0.030957     0.23591   -0.092145   -0.080451
0.11931  0.00010078    0.030633    0.058241     0.18914   -0.091495    -0.11293
0.056617   -0.014191    0.030633    0.075131     0.13944   -0.097991    -0.14866
-0.0099683   -0.038551    0.021213    0.079354    0.080978    -0.10124      -0.174
-0.064211   -0.054142    0.011144    0.072858    0.031282   -0.086623    -0.17497
-0.10156   -0.046996    0.011469    0.064737   0.0078962   -0.046022    -0.15029
-0.13015   -0.027833    0.025111    0.063438    0.016341    0.021213    -0.11163
-0.16718   -0.013866    0.048822    0.066686    0.040702     0.10566   -0.066485
-0.22272   -0.012567    0.069934    0.070259    0.058891     0.18589   -0.019388
-0.29547   -0.027183    0.078055    0.070259    0.051096     0.24663    0.024137
-0.37115   -0.057065    0.066037    0.064413    0.013418     0.28366    0.062789
-0.4241    -0.10286    0.036154    0.046873   -0.039526     0.30022    0.098842
-0.43936    -0.15386  -0.0034721    0.017965   -0.080776     0.29762     0.12288
-0.41663    -0.18959   -0.044723   -0.018088   -0.093444     0.27261      0.1245
-0.36076    -0.18309   -0.074605   -0.054142   -0.068434     0.22454    0.095919
-0.28053     -0.1204    -0.08305    -0.07493  -0.0047713     0.16023    0.043625
-0.17919   -0.017439   -0.070058   -0.072656    0.087149     0.09462  -0.0093186
-0.053168    0.093321   -0.045372   -0.050569     0.17712      0.0433   -0.035303
0.095269     0.17582   -0.019712   -0.020362     0.23559    0.012443   -0.019063
0.25183     0.20993  -0.0021729    0.010819     0.26384  -0.0031473     0.03518
0.38987     0.19466   0.0039985    0.043625     0.29178   -0.015165     0.11054
0.47887     0.14107  0.00010078    0.072533     0.35122   -0.032055     0.18199
0.49998    0.071558  -0.0063954    0.095594     0.46165   -0.056416     0.22844
0.45808    0.014717  -0.0099683     0.11021     0.62893    -0.08305     0.24403
0.36973   -0.017764  -0.0076946     0.11508     0.83323    -0.10254     0.22812
0.2593   -0.026209 -0.00022403     0.11346      1.0073    -0.10774     0.19044
0.14659   -0.017764    0.010495     0.10729      1.0586    -0.10059     0.14561
0.048172  -0.0047713    0.022837     0.10177     0.94724     -0.0837     0.10729
-0.02361   0.0072465    0.036154     0.10242     0.72929   -0.060963    0.082927
-0.062912    0.016341    0.050121     0.11086     0.50842   -0.032055    0.070584
-0.073955    0.023812     0.06084      0.1258     0.38013   0.0065969    0.065062
-0.067134    0.030633    0.067986     0.14204     0.37883    0.059216    0.058566
-0.052193    0.038753    0.072208     0.14756     0.45288     0.12905    0.048822
-0.034654    0.051096    0.076106     0.13457     0.48634     0.21123    0.038753
-0.01484    0.067661    0.083901     0.10891     0.33952     0.28885    0.027709
0.0091954    0.084551    0.093321    0.078704   -0.061613     0.33595    0.013418
0.033881     0.10079    0.099492    0.050121    -0.65861      0.3379  -0.0076946
0.050121     0.11541    0.099167    0.021863     -1.2774     0.29957   -0.027833
0.053694     0.12418    0.090397  -0.0044465     -1.7301     0.23916   -0.043423
0.0433      0.1271    0.075131   -0.027183     -1.9267      0.1729   -0.055441
0.022512     0.12223    0.053694   -0.046022       -1.89     0.10534   -0.064536
-0.0076946     0.10242     0.02706    -0.06681     -1.7399     0.03583   -0.072656
-0.036278     0.06961  0.00042559   -0.088896     -1.6132    -0.03238   -0.081426
-0.053168    0.029658   -0.019063    -0.10838     -1.5811   -0.094418   -0.088247
-0.052843   -0.011267    -0.03238    -0.11813     -1.6103    -0.14736   -0.097341
-0.037902   -0.051219   -0.040825    -0.11553     -1.5941    -0.19121    -0.10806
-0.018738   -0.090196   -0.042124    -0.10319     -1.4219    -0.22726    -0.11586
-0.0024977    -0.12755   -0.036927   -0.083375     -1.0708       -0.25    -0.11715
0.008221    -0.15646   -0.035303   -0.065835    -0.60242    -0.25812    -0.11098
0.015042     -0.1636   -0.044398   -0.061613     -0.1256       -0.25    -0.10156
0.023812    -0.13762   -0.059989    -0.07493     0.22779    -0.22954   -0.090845
0.038753   -0.081101   -0.074605   -0.097017     0.34147    -0.20648   -0.081426
0.056617  -0.0073698   -0.081751    -0.11228     0.17907    -0.19576   -0.076554
0.065712    0.063438   -0.084674    -0.11196    -0.17042     -0.2055   -0.076879
0.053694     0.11703     -0.0824    -0.09182    -0.52219    -0.22434   -0.070382
0.01829     0.15114   -0.069408   -0.055116    -0.70051    -0.22921   -0.049595
-0.026858     0.16803   -0.045697   -0.007045    -0.62191    -0.20583   -0.014516
-0.064211      0.1755   -0.017114    0.040702     -0.3429    -0.15581     0.02641
-0.079152     0.18622    0.011144    0.078055    -0.03173   -0.091495    0.056292
-0.059989     0.21155    0.034206    0.098193     0.13035   -0.037902    0.064088
-0.0063954     0.24533    0.048822    0.099817    0.073182   -0.014191    0.049796
0.070584     0.26547    0.056292    0.089098    -0.12917   -0.025884    0.023487
0.15341     0.25897     0.06084    0.072858    -0.30457   -0.069733  -0.0050961
0.22324     0.23429    0.067011    0.059541     -0.2919     -0.1282   -0.031406
0.26937     0.20863    0.076106    0.053369   -0.044073    -0.17919   -0.056091
0.29243     0.19076    0.078055     0.05142     0.34667    -0.20258   -0.078827
0.2947     0.17127    0.067336    0.047847     0.71273    -0.19478    -0.09994
0.28073     0.13002    0.041351    0.040702     0.91508    -0.16425     -0.1204
0.2515    0.058891   0.0046481    0.029333     0.91541    -0.12398    -0.14152
0.2096   -0.034654   -0.035628    0.015367     0.76405   -0.088572    -0.16458
0.15828    -0.13112   -0.072331  0.00042559     0.55455   -0.064861    -0.18374
0.10631    -0.19641   -0.095068  -0.0096434     0.36908   -0.050569    -0.19186
0.063763     -0.2016   -0.097017   -0.010943     0.24663     -0.0405    -0.17984
0.033556     -0.1334   -0.072656 -0.00087364     0.18816   -0.025559    -0.15029
0.019914   -0.012892   -0.026858     0.01894     0.17225   0.0046481    -0.12073
0.022837     0.11476    0.022188    0.038103     0.17972     0.05207    -0.11001
0.038428     0.19726    0.056617    0.049472     0.20083     0.10566    -0.12657
0.058241     0.19823    0.064413    0.053044     0.24143      0.1625    -0.16133
0.067986     0.11054    0.043625    0.050446     0.30769     0.22422    -0.20225
0.039402   -0.039526   0.0062721    0.047847     0.39669     0.29048    -0.24058
-0.056091    -0.20355    -0.03303    0.044924     0.48764     0.35252    -0.27371
-0.21914    -0.33153   -0.061288    0.036804     0.55227     0.39669    -0.29937
-0.41013    -0.39324   -0.071357    0.021213     0.56851     0.41033    -0.30489
-0.56441    -0.39032   -0.064536   0.0046481     0.53311     0.39929    -0.26981
-0.62353    -0.33867    -0.04115  -0.0057458      0.4662     0.37688    -0.17887
-0.57968    -0.26559  -0.0050961  -0.0057458     0.39929     0.35512   -0.042774
-0.46795    -0.19771    0.034855   0.0043233     0.37363     0.33238    0.099492
-0.34647    -0.14346    0.062464    0.017965     0.42495      0.2986     0.19628
-0.25617   -0.084349    0.071883    0.026085     0.56494     0.24306     0.21512
-0.20063  -0.0011985    0.063113     0.02706     0.76697      0.1651     0.16445
-0.15386    0.085525    0.042326    0.020564     0.99888    0.076755    0.090722
-0.085324     0.12678    0.016341    0.014392      1.2334   0.0023744    0.041676
0.014717     0.10014  -0.0011985    0.019914      1.4322   -0.042124    0.039727
0.13295    0.048172      0.0014     0.04395      1.5572   -0.047971    0.079029
0.25475    0.041027    0.024786    0.083251      1.5865   -0.019388     0.14756
0.3824     0.11313    0.053694     0.12937      1.4952    0.027709     0.23234
0.51525     0.24338    0.072858      0.1716        1.26     0.06961     0.33011
0.63607     0.37201    0.074157     0.20116     0.86539    0.081627     0.43989
0.70656     0.44314    0.058566     0.20635      0.3379    0.045574     0.54123
0.68577     0.43437    0.028034     0.17615    -0.22467   -0.047646      0.5984
0.56592     0.35869   -0.016464     0.11476    -0.67355    -0.17854     0.59158
0.38013     0.24533   -0.063237    0.048172    -0.91521    -0.30165     0.53863
0.19563     0.13262   -0.088247   0.0075714    -0.98212    -0.36628     0.47952
0.076106    0.053694   -0.078178   0.0091954    -0.99576    -0.35134     0.44314
0.045899    0.018615   -0.044723    0.039727      -1.063    -0.27144      0.4269
0.092346     0.01764   -0.010618    0.075456     -1.2137      -0.161     0.41618
0.17874    0.023162 -0.00054884    0.089748     -1.3781   -0.047971     0.39377
0.25865    0.012119   -0.022636     0.06961     -1.4235    0.054344     0.35089
0.2947   -0.023285   -0.064861    0.022837     -1.2592     0.14269     0.29243
0.26807   -0.068434    -0.10384   -0.034004    -0.89182     0.21642     0.22812
0.18751   -0.095393    -0.12138   -0.079802     -0.4163     0.27391     0.16835
0.080653   -0.077528    -0.10676   -0.097341    0.037778     0.31581     0.12483
-0.01614   -0.012242   -0.066485   -0.083375     0.38597      0.3392    0.096244
-0.071682    0.067011   -0.012242   -0.047971     0.62178      0.3392    0.079029
-0.073631     0.11801    0.040052   -0.011267     0.78029     0.30412    0.064413
-0.035628      0.1271    0.074482    0.003024     0.87513     0.22324    0.044599
0.0033489     0.10826    0.080978   -0.027833     0.87546     0.09397    0.013093
0.0069217    0.082277    0.063763    -0.10838     0.76112   -0.077528   -0.030106
-0.041475    0.060515    0.032582    -0.22402      0.5867    -0.27176   -0.088896
-0.13307    0.047523 -0.00087364    -0.34484     0.44476    -0.44878    -0.15743
-0.24773     0.03453    -0.02426    -0.43871      0.3392    -0.55435    -0.22239
-0.35849    0.012443   -0.032705    -0.49036     0.15179    -0.55792    -0.26397
-0.43774   -0.013541   -0.027833    -0.49523    -0.22564    -0.46535    -0.26722
-0.4569   -0.034978   -0.019063    -0.46632    -0.78788    -0.32146    -0.23181
-0.40818   -0.040175   -0.011592    -0.42377     -1.4161    -0.18439    -0.17497
-0.30554   -0.025884  -0.0024977    -0.38869     -1.9439    -0.10156    -0.11651
-0.18017 -0.00054884   0.0085458    -0.36596     -2.2047   -0.086623   -0.079802
-0.068434    0.019589    0.016666    -0.35004     -2.0748    -0.12463   -0.076554
0.0059473    0.018615    0.019589    -0.32893     -1.5164    -0.17952    -0.10579
0.033881  -0.0099683    0.012768    -0.27728    -0.61801     -0.2016    -0.15191
0.027385   -0.067784  -0.0021729      -0.161     0.39929    -0.16133    -0.19771
0.0085458    -0.14834   -0.015815    0.035505      1.2366   -0.060963    -0.22791
-0.015165    -0.23636   -0.023285     0.29405      1.6917    0.066362    -0.23831
-0.051219    -0.31171   -0.024585     0.56689      1.7027     0.18524    -0.23214
-0.10806    -0.35654   -0.022311     0.79978      1.3519     0.27229    -0.21167
-0.17432    -0.35751   -0.016464     0.95016     0.84395     0.33011    -0.18407
-0.23376    -0.30717  -0.0073698     0.99564     0.39896     0.37103    -0.15386
-0.27371    -0.21167   0.0046481     0.94172     0.13327     0.40124    -0.12527
-0.28735   -0.090521    0.017965     0.81115     0.02706     0.41033    -0.10286
-0.26916    0.030633    0.030633     0.64095   -0.021012      0.3837   -0.084999
-0.22467      0.1232    0.043625     0.46717    -0.10319     0.31419   -0.071682
-0.16458     0.16965    0.055643     0.31451    -0.27306     0.20635   -0.062587
-0.10416      0.1664    0.065062     0.19531    -0.58098     0.06831   -0.065835
-0.055441     0.12418     0.06831     0.10891    -0.98179   -0.092469   -0.080127
-0.020687    0.063438    0.065387    0.044924     -1.3053    -0.26689    -0.10189
0.01017   0.0078962    0.056292  -0.0093186      -1.342    -0.43547    -0.12657
0.039727   -0.032705    0.042001   -0.059664    -0.97919    -0.57383    -0.15483
0.053369   -0.069733    0.016341    -0.10351    -0.29677    -0.66153    -0.18959
0.025436    -0.12398   -0.021986    -0.14184     0.44606    -0.69271    -0.23441
-0.067134    -0.20193   -0.070058    -0.17594      0.9638     -0.6742    -0.28216
-0.22012     -0.2932    -0.11618    -0.20485      1.1278    -0.61703    -0.32178
-0.39324    -0.36856    -0.14801    -0.22434     0.97777    -0.53486    -0.34192
-0.5433    -0.40916    -0.15711    -0.23019     0.66596    -0.43579     -0.3351
-0.64237    -0.40493    -0.14281    -0.22044     0.36356    -0.32601    -0.29807
-0.68524    -0.36303    -0.11326    -0.20031     0.15796    -0.20972    -0.23928
-0.67745      -0.301   -0.078503    -0.17497    0.037129   -0.097017    -0.17627
-0.63262    -0.24318   -0.047646    -0.15093   -0.070058  -0.0034721      -0.123
-0.56636    -0.20355   -0.026858    -0.13372    -0.21655    0.061489   -0.089546
-0.48581    -0.18147   -0.017439    -0.12398    -0.41013    0.096244   -0.076554
-0.38967    -0.15808    -0.01549    -0.12365    -0.61443     0.11151   -0.072331
-0.27631    -0.11228   -0.014516     -0.1295    -0.78366     0.11931   -0.063886
-0.14509   -0.036927   -0.007045    -0.13632    -0.88467     0.13002   -0.047971
-0.0044465    0.051745   0.0085458    -0.13794    -0.89929     0.14659   -0.026209
0.1271     0.12613    0.027709    -0.13177    -0.83888     0.16543      0.0014
0.23331     0.16673    0.042651     -0.1217    -0.72844     0.18362    0.029009
0.30022     0.17452     0.05207    -0.11098    -0.58618     0.19044    0.048172
0.31841     0.16153    0.051096    -0.10514     -0.4137     0.17745    0.056617
0.29568     0.13879    0.040052    -0.10351    -0.20648     0.14269    0.051096
0.2528     0.11671    0.025436    -0.10384    0.023487    0.098193    0.037778
0.2174     0.10794    0.014068    -0.10351     0.23591    0.061489    0.023162
0.20408     0.11736    0.011794    -0.10091     0.38695    0.042326    0.010819
0.21285     0.14009    0.017316   -0.095717     0.45321    0.040702  0.00042559
0.23981     0.16478    0.026735   -0.087272     0.43762     0.05272  -0.0063954
0.27814     0.18037    0.033881   -0.075579     0.36908    0.073507  -0.0028225
0.32198      0.1755    0.038428   -0.062262     0.28008    0.098517    0.015367
0.36778     0.15016    0.039402   -0.051219     0.19888     0.12353    0.046223
0.40968     0.11606    0.030957   -0.045372     0.13912     0.14204    0.079679
0.44704    0.084876    0.013093   -0.041475     0.10566     0.14789     0.10144
0.47757    0.057592  -0.0060706   -0.036927    0.092996     0.13977     0.11118
0.5016    0.023812   -0.026533    -0.03238    0.094945      0.1232     0.11086
0.51395   -0.020687   -0.046996   -0.027508     0.10177     0.10664     0.10891
0.51135   -0.066485    -0.06681   -0.021986     0.10534    0.092021     0.11248
0.48991   -0.092794   -0.077853   -0.014191    0.099167    0.078379     0.12418
0.43307   -0.086298   -0.072006  -0.0031473     0.07708    0.062789     0.14042
0.32848   -0.048945   -0.050894    0.013093    0.031282    0.040377     0.15601
0.18362   0.0065969    -0.02426    0.029009   -0.039851   0.0075714     0.16965
0.030308    0.067336  0.00042559    0.037778    -0.11813   -0.036602     0.17972
-0.096367     0.12613    0.015692    0.037778    -0.16815   -0.083375     0.18102
-0.17432     0.17387    0.021538    0.031932    -0.14444    -0.11293      0.1768
-0.19901     0.21707    0.020564    0.027385   -0.012567    -0.10124     0.17095
-0.18212     0.26125    0.023162    0.033231     0.21545   -0.038551     0.17095
-0.14574      0.3038    0.029983    0.051096     0.48731    0.066686     0.17355
-0.10026     0.33628    0.041351    0.076431     0.74099     0.19304     0.17485
-0.050569     0.34894    0.054019     0.10112     0.93457     0.31419      0.1703
-0.0024977     0.33173    0.067986      0.1219      1.0609     0.41066     0.16575
0.033556     0.28138    0.083901     0.13814      1.1337     0.47854     0.16738
0.051745      0.2057    0.098842     0.14626      1.1389     0.51914     0.16998
0.053369     0.12125     0.10534     0.14172     0.98557     0.52986     0.16738
0.04395    0.038103     0.09397     0.11638      0.5539     0.50128     0.15438
0.031932   -0.034978    0.063438    0.071883    -0.18082     0.42885     0.13197
0.022188   -0.088572    0.022837    0.016341     -1.0718     0.31744     0.10566
0.017316    -0.11098    -0.01484   -0.036927     -1.8708     0.17777    0.083251
0.017316   -0.096692     -0.0405   -0.076229     -2.3509    0.025436     0.06961
0.022188   -0.055441   -0.050894   -0.097991     -2.3768    -0.12105     0.06084
0.027385  -0.0099683   -0.051219    -0.10254     -1.9575    -0.24675    0.055318
0.030308     0.01829    -0.04862   -0.097017     -1.2566    -0.34972    0.045574
0.023487    0.022837   -0.044073   -0.090521    -0.51602    -0.43417     0.02706
0.0069217    0.011794   -0.039851    -0.09117     0.03518     -0.5014 -0.00087364
-0.011592  -0.0028225   -0.036278   -0.097017     0.25475     -0.5485   -0.030756
-0.022311  -0.0063954   -0.035953    -0.10579     0.16023    -0.57156   -0.055441
-0.020037   0.0026992   -0.034654    -0.11391   -0.083375    -0.56701   -0.068109
-0.0063954    0.021213   -0.028482    -0.11651    -0.28118    -0.53226   -0.072006
0.010819    0.040052   -0.018413    -0.11098    -0.32276    -0.47087   -0.072981
0.026735    0.051745  -0.0073698   -0.098316    -0.22142    -0.38577   -0.069733
0.038103    0.055318   0.0010752   -0.079152   -0.062262    -0.28118    -0.05804
0.045249    0.052395   0.0020496   -0.058365    0.079679    -0.17075   -0.030756
0.05142    0.047198 -0.00054884   -0.044723     0.18362   -0.070058   0.0062721
0.054993    0.047198  -0.0063954     -0.0405     0.26969    0.013418    0.040702
0.057267    0.051096   -0.014516   -0.040825     0.36291    0.076755     0.06019
0.057917    0.055968    -0.02426   -0.038227     0.47529     0.11638     0.06084
0.054019    0.059865   -0.029457   -0.025884     0.60132     0.13587    0.046873
0.041676    0.058241   -0.025234  -0.0047713     0.71663     0.13977    0.025761
0.020239    0.050121   -0.011267    0.019264     0.78484     0.13327   0.0065969
-0.0047713    0.033881   0.0062721    0.044275     0.77542     0.12028  -0.0063954
-0.023935   0.0088706    0.019914    0.071234     0.68057     0.10566   -0.012567
-0.035303   -0.023935    0.026735    0.097218     0.51979    0.094945   -0.015165
-0.043748   -0.057065    0.024786     0.11476     0.33498    0.090722    -0.01549
-0.054467   -0.079152    0.019589     0.11963      0.1651    0.098193   -0.017439
-0.059664   -0.077528     0.01894     0.11541    0.037778     0.12093   -0.014516
-0.046022   -0.052518    0.025761     0.11054    -0.03238     0.15698  0.00010078
-0.008669  -0.0076946    0.034855     0.11054   -0.050894     0.19953    0.027709
0.040377    0.042001    0.042326     0.11248   -0.046347     0.23071    0.055643
0.084226    0.080328    0.048497     0.10859   -0.063886     0.23526    0.071883
0.11346    0.097218    0.054019    0.098193    -0.14249     0.19888    0.069934
0.12613    0.089423    0.053694    0.081303    -0.29125     0.12418    0.048172
0.12288    0.058241    0.036804    0.062464    -0.47769    0.023162    0.012768
0.11411    0.011144   0.0049729    0.044924    -0.64821   -0.081426   -0.027508
0.10924   -0.045372   -0.034978    0.030633    -0.77846     -0.1714   -0.059989
0.11898   -0.098316   -0.070707    0.021538    -0.87623    -0.23961    -0.07493
0.14367    -0.13762   -0.093769    0.016991    -0.94217    -0.28963   -0.067784
0.17355    -0.15516    -0.10286    0.017316    -0.94834    -0.32666   -0.046671
0.19336    -0.15256    -0.10156    0.023162    -0.86941    -0.35426   -0.021986
0.18589    -0.13827   -0.094418    0.031607     -0.7122     -0.3705  -0.0054209
0.14042    -0.12657   -0.087922    0.033556    -0.51374    -0.36856  -0.0083442
0.054668    -0.12657   -0.086623    0.026735    -0.30684      -0.339   -0.029132
-0.058365    -0.14216   -0.086948    0.016341   -0.085973    -0.28118   -0.061937
-0.17335    -0.16718   -0.081101     0.01017     0.17712     -0.2055   -0.094743
-0.25617    -0.18861   -0.064536    0.012443     0.46555    -0.13047     -0.1204
-0.28573    -0.19641     -0.0405     0.01764     0.72312   -0.075904    -0.13599
-0.25162    -0.18569    -0.01549    0.023487     0.89754   -0.053817    -0.14184
-0.17497    -0.15158   0.0088706     0.03518      1.0008   -0.060313    -0.13957
-0.094093    -0.10221    0.031607    0.056617      1.1207   -0.076879    -0.13112
-0.050569   -0.050569    0.053044    0.084876      1.3455   -0.081101    -0.11228
-0.054142  -0.0041217    0.071558     0.11411      1.6901   -0.061937   -0.080127
-0.084349    0.032582    0.089423     0.14042      2.0665   -0.028482   -0.036927
-0.10871    0.056292     0.10599     0.16121      2.3585   0.0072465   0.0039985
-0.10026     0.06896     0.11995     0.17322      2.4888    0.035505    0.033881
-0.04992    0.080328     0.12385      0.1729      2.4274    0.045574    0.049472
0.022188    0.091372     0.10956     0.15471      2.1597    0.031607    0.049147
0.086824    0.097868    0.071234     0.12158       1.682  -0.0011985    0.036154
0.12255    0.088773    0.019264    0.082927      1.0492   -0.034978    0.016016
0.11476     0.06084    -0.03173    0.048172     0.35252   -0.051544  0.00075039
0.060515    0.021538   -0.072006    0.022837    -0.35069   -0.039851  -0.0057458
-0.041799   -0.022961    -0.09182   0.0075714     -1.0198  -0.0057458  -0.0093186
-0.18147   -0.070058   -0.090521  -0.0057458      -1.597    0.030633   -0.013541
-0.34582     -0.1204    -0.07493   -0.021986     -2.0306    0.044599   -0.026209
-0.50692    -0.16653   -0.059014   -0.044723     -2.2966    0.032906   -0.053168
-0.62873    -0.19706   -0.053168   -0.067134     -2.4187    0.012768   -0.095068
-0.68329    -0.21525   -0.061613   -0.092469      -2.474  -0.0028225    -0.14476
-0.65731     -0.2448   -0.088247    -0.12138      -2.509   -0.018413    -0.19348
-0.56344    -0.30619    -0.12787    -0.15093     -2.4788   -0.042774    -0.22889
-0.43384    -0.39811     -0.1714     -0.1727     -2.3203   -0.071032     -0.2448
-0.30197    -0.49101     -0.2068    -0.17659      -2.055   -0.098641    -0.24123
-0.18699    -0.53193    -0.21849    -0.15548     -1.7552    -0.12722    -0.21655
-0.082725    -0.47704    -0.19868    -0.11618     -1.4625    -0.15061    -0.17172
0.022188    -0.32536    -0.15808   -0.076554      -1.165    -0.15516    -0.10416
0.11866    -0.11618    -0.10903   -0.047646    -0.83141    -0.11878   -0.017439
0.19304    0.095919   -0.059014   -0.022961    -0.44131   -0.033679    0.081627
0.23234     0.26125  -0.0099683   0.0059473    -0.01614    0.092346     0.18069
0.22909     0.35544    0.037454    0.042001      0.3824     0.23429     0.26482
0.19499     0.38792    0.079029    0.078379     0.68707     0.36551     0.31971
0.15114     0.38272     0.10826     0.11183     0.85694     0.47594      0.3314
0.12515     0.36356      0.1258     0.13425     0.88163     0.56039     0.30639
0.13522     0.34537      0.1271     0.14042     0.78646     0.61756      0.2619
0.18167     0.33108     0.11411     0.13392     0.62795     0.64842        0.22
0.24923     0.31549    0.091696     0.12223     0.48309     0.64907     0.19563
0.31257      0.2908    0.065387     0.10469      0.4217     0.61561     0.19011
0.34829     0.24988    0.041351    0.082277     0.46263     0.54968     0.19076
0.35154     0.19304    0.024461    0.056292     0.54383     0.45905     0.18622
0.32783     0.11703    0.016666    0.031607     0.55812     0.34959      0.1638
0.28658    0.025436    0.015367    0.013743     0.43957     0.22714     0.11995
0.23591   -0.055766     0.01764   0.0033489     0.21512    0.092021    0.056292
0.17939   -0.093119    0.020888  -0.0060706   0.0020496   -0.056741   -0.021337
0.12418   -0.068109    0.023162   -0.017439   -0.071357    -0.21297   -0.097341
0.080003   0.0039985    0.027709   -0.028157    0.040052    -0.36109    -0.15191
0.043625    0.088124     0.03583   -0.030756      0.2593    -0.47834    -0.17594
0.00075039     0.15438    0.043625   -0.025234     0.43502    -0.55012    -0.17757
-0.068434     0.18134    0.048822    -0.01614     0.45321    -0.56052    -0.17107
-0.16912      0.1625    0.051096  -0.0080194      0.2999     -0.5001    -0.16588
-0.28573    0.097868    0.051096  -0.0021729    0.053694    -0.38122    -0.16588
-0.39422   0.0026992    0.050446  -0.0011985    -0.17887    -0.23766    -0.16685
-0.46795   -0.094743    0.048172  -0.0060706    -0.31951    -0.11488    -0.16263
-0.48094     -0.1714    0.039402   -0.017764     -0.3299   -0.047971    -0.15223
-0.42345    -0.21914    0.022188   -0.033679    -0.18342   -0.045697    -0.13957
-0.31496    -0.25195  -0.0031473   -0.051219      0.1245   -0.090196    -0.12722
-0.18569    -0.28735   -0.035953   -0.066485      0.5448    -0.14476    -0.11488
-0.060313    -0.32406   -0.076879   -0.076879     0.96835    -0.17205    -0.10709
0.048172    -0.33802    -0.11845   -0.078827      1.2841    -0.16718    -0.10319
0.13522    -0.30294    -0.14736   -0.070382      1.4416    -0.14866    -0.10416
0.19369    -0.21037    -0.15126   -0.050569      1.4507    -0.13762   -0.098316
0.22487   -0.081101    -0.12625   -0.021661      1.3571    -0.13859   -0.069408
0.23526    0.050121   -0.079802    0.014717      1.2087    -0.13924  -0.0080194
0.23234     0.15373   -0.025884    0.054668      1.0255     -0.1217    0.078379
0.21935     0.21317    0.021538    0.087474     0.76762   -0.082076     0.16835
0.19174     0.23071    0.056292     0.10371      0.3889   -0.031081     0.23624
0.15309     0.21902    0.078379     0.10371   -0.094093    0.022837     0.26839
0.10729     0.19304    0.091047    0.088773    -0.59722    0.080978     0.26482
0.06019     0.16575    0.091696    0.067011    -0.98796     0.14009     0.23299
0.020888     0.14561      0.0852    0.047198     -1.1601     0.19596     0.19141
-0.0018481     0.12645    0.072858    0.032906     -1.0841      0.2463     0.15016
-0.0037969     0.10761    0.054019    0.018615    -0.80477     0.28918     0.11573
0.0065969    0.089748    0.031282  -0.0024977    -0.40851     0.32198    0.087799
0.01764    0.077405   0.0088706    -0.03303   0.0017248     0.35024    0.065062
0.021538    0.078379  -0.0076946   -0.069733      0.3366      0.3811    0.049147
0.019914    0.093645   -0.015815    -0.10059     0.53343     0.41456    0.043625
0.021863     0.11411  -0.0089938    -0.11261     0.57079     0.44281    0.053044
0.034206     0.13197   0.0062721   -0.098641     0.47075     0.45938    0.073182
0.056942     0.13912    0.021213   -0.065835     0.29697     0.46035    0.092996
0.075131     0.13522    0.029009   -0.028482     0.12125     0.44574     0.10371
0.073182     0.11995    0.028684  -0.0015233   0.0043233     0.41683     0.10014
0.042975     0.09462    0.025436    0.015692  -0.0076946     0.37298    0.081303
-0.010943    0.056292    0.027385    0.029658     0.12125     0.30769    0.051096
-0.077528    0.008221    0.033231    0.048497     0.38337     0.22682    0.012119
-0.13989   -0.041799    0.041676    0.070259     0.70558     0.15211   -0.031406
-0.18569   -0.081426    0.054019    0.092671     0.98005     0.10696   -0.077528
-0.21037   -0.097341    0.072208     0.11313      1.1067    0.091372      -0.123
-0.21655   -0.091495    0.091047     0.12548      1.0239    0.081952    -0.16425
-0.20615   -0.076229     0.10469     0.12645     0.72182    0.056942    -0.19771
-0.17107    -0.05804     0.10534     0.11183     0.23721   0.0059473    -0.21752
-0.097666   -0.030431    0.090397    0.081627    -0.36563   -0.075579    -0.21785
0.017316    0.013418    0.057267    0.034206     -1.0266    -0.19186    -0.19673
0.16185    0.073832    0.013093   -0.022636     -1.6925     -0.3416    -0.15873
0.30477     0.13879   -0.028157   -0.075255     -2.2784    -0.51732    -0.11098
0.41228     0.19076   -0.054792    -0.10709     -2.6971    -0.69953   -0.061937
0.46328     0.21675   -0.059664    -0.11228     -2.8777    -0.85934   -0.023285
0.4597     0.21058   -0.044073   -0.090845     -2.7614    -0.97692  -0.0021729
0.41975     0.17874   -0.019388   -0.053168     -2.3249     -1.0286  -0.0050961
0.36161     0.13002   0.0020496   -0.012892     -1.6347     -1.0016   -0.025884
0.29275    0.076106    0.011144    0.013743    -0.84342    -0.90676   -0.048296
0.21123    0.027709   0.0091954    0.022512    -0.12657    -0.77879   -0.059339
0.11216  -0.0099683  -0.0031473    0.014717     0.39247    -0.66348   -0.052518
-0.0028225   -0.032705   -0.019388  -0.0031473     0.68967    -0.59397   -0.034978
-0.1269   -0.038876   -0.032705   -0.025234     0.81342    -0.57806   -0.024585
-0.2487    -0.03238   -0.037902   -0.042124      0.8368    -0.60014   -0.031081
-0.34939   -0.027833   -0.035953   -0.051544     0.81082    -0.63295   -0.051544
-0.415    -0.03238   -0.032055   -0.060313     0.73839    -0.65439   -0.077528
-0.44878   -0.046996   -0.034978   -0.071032      0.5867    -0.65796    -0.10319
-0.466   -0.062912   -0.044723   -0.087597     0.35317    -0.65244    -0.12527
-0.47964   -0.080127   -0.061613    -0.10319    0.091696    -0.64529    -0.14184
-0.49003    -0.10968   -0.077528    -0.11066    -0.11131    -0.63035    -0.14801
-0.48971    -0.15418   -0.090521    -0.10676    -0.19868     -0.5943    -0.14152
-0.47964     -0.2042   -0.098641    -0.09182    -0.16523    -0.53486    -0.13177
-0.45463    -0.24286    -0.10189   -0.070382   -0.045372    -0.46405    -0.12885
-0.39616    -0.25975    -0.10221    -0.04992     0.11443    -0.39324    -0.14054
-0.2906    -0.24578    -0.10091    -0.03173     0.27554    -0.32048    -0.16653
-0.1269    -0.19803   -0.089871   -0.017114     0.40741    -0.23441    -0.19446
0.085525     -0.1243   -0.065186 -0.00054884     0.49478    -0.11845    -0.20128
0.31614   -0.035953   -0.030106    0.019914     0.54188    0.031932    -0.16653
0.51492    0.054019   0.0072465    0.046548     0.55162     0.20928   -0.089871
0.63705      0.1362    0.038753    0.075781      0.5094     0.39669    0.014068
0.67018     0.19726    0.056292     0.10339     0.39019     0.57144      0.1245
0.62633     0.22292    0.054993     0.12255     0.17939       0.715     0.22389
0.52986     0.20505    0.038103      0.1297    -0.10579     0.82316     0.30217
0.41163     0.14756    0.015042     0.12515    -0.42475      0.8943     0.35317
0.29665    0.065062  -0.0034721     0.11281    -0.71642     0.93262      0.3772
0.19693   -0.016464   -0.014516    0.099167    -0.92463     0.94951     0.37883
0.11476   -0.073955   -0.020362    0.087149    -0.98861     0.95926     0.36421
0.050121   -0.092145   -0.026858    0.076106    -0.86356     0.96738     0.33628
0.0069217   -0.067459   -0.034004    0.069934    -0.53096     0.96933     0.30217
-0.011917   -0.013541   -0.039851    0.066037   -0.032705     0.95861     0.26287
-0.010293    0.045574   -0.038551    0.058241     0.47822     0.91996     0.22422
0.0010752    0.087799   -0.027833    0.036479     0.82933     0.83875     0.18394
0.0043233     0.10339   -0.010618   0.0036737     0.95666     0.71955     0.14302
-0.020037    0.098193   0.0095202   -0.028157      0.9297     0.58313     0.10404
-0.079152    0.081627    0.028034   -0.047321     0.84395     0.45646    0.064088
-0.17075    0.063113    0.045249   -0.046022      0.7176     0.36324    0.021213
-0.28086    0.050446    0.064088    -0.02426     0.52986     0.31159   -0.025234
-0.38999    0.043625    0.088773   0.0069217     0.28853     0.28885   -0.073955
-0.47607    0.036479     0.11313    0.031607    0.022512     0.26384    -0.12268
-0.51472    0.019914     0.11768    0.033556     -0.2146     0.20343    -0.17692
-0.48614   -0.020037      0.0865   0.0072465    -0.33997    0.091696    -0.23441
-0.38772   -0.091495    0.019914     -0.0405    -0.28865   -0.051868    -0.28281
-0.23116    -0.18471   -0.061613   -0.095717   -0.068109    -0.18926    -0.30912
-0.035303    -0.27858     -0.1308    -0.13957     0.23591    -0.28833    -0.30782
0.18004    -0.34127    -0.17172    -0.16263     0.52434    -0.33023    -0.28183
0.39279    -0.33185    -0.17952     -0.1649     0.72864    -0.32536    -0.24448
0.56819    -0.23571    -0.15938    -0.15126     0.82089    -0.29547    -0.20778
0.66855   -0.069408      -0.123    -0.12755     0.80562    -0.25292    -0.17692
0.67343     0.11313   -0.084999   -0.097991     0.70818    -0.19543    -0.14574
0.59158     0.24598   -0.053817    -0.06616     0.57858    -0.11098    -0.11391
0.45743     0.28658    -0.03173   -0.034004     0.47205   -0.007045   -0.081751
0.31354     0.23071   -0.017439  -0.0044465     0.42722    0.096244   -0.051544
0.19531     0.11443  -0.0063954    0.022837     0.43209     0.17485   -0.029132
0.11573  -0.0096434   0.0020496    0.047523     0.45548     0.20993   -0.020362
0.06961   -0.094418   0.0078962    0.062789      0.4727     0.19499   -0.026209
0.045899    -0.11943     0.01017    0.063113      0.4714     0.15211   -0.042774
0.02641   -0.095393    0.009845    0.050771     0.43924     0.12223    -0.05804
-0.0076946    -0.04927    0.011794     0.03583     0.37753     0.13555   -0.059339
-0.06681   0.0017248    0.022188    0.028034     0.29665     0.18622   -0.040175
-0.14411    0.049472    0.042001    0.031932     0.20928     0.23429  -0.0044465
-0.22759    0.091372    0.065062    0.042001     0.10339     0.23396    0.045249
-0.30035     0.12645    0.081952    0.047847   -0.059664     0.16543     0.10631
-0.3403     0.15276    0.082927    0.048497    -0.30262    0.045249     0.18199
-0.33218     0.16315    0.067986    0.042975    -0.60567   -0.097991     0.26969
-0.27436     0.15796    0.046873     0.03518    -0.91651    -0.24578     0.35836
-0.18244     0.13392    0.028359    0.031607     -1.1637    -0.39422     0.43209
-0.078827    0.090397    0.015367     0.03518     -1.2829    -0.54882     0.47627
0.01894    0.044275   0.0056225    0.045249      -1.229      -0.707     0.47919
0.098842   0.0085458  -0.0041217    0.059216    -0.98212    -0.85219     0.44704
0.15276   -0.018413   -0.014191    0.076106    -0.55662    -0.96068     0.39149
0.17907   -0.052518   -0.019388    0.093321   -0.011917      -1.013     0.33075
0.17972   -0.096692   -0.013216     0.10664     0.53668    -0.99608     0.27716
0.1651    -0.14022   0.0033489     0.11183     0.93685    -0.91326     0.23851
0.14334    -0.16782    0.022512     0.10501      1.0645    -0.77619     0.21415
0.11054    -0.17302    0.034855    0.088773     0.87026    -0.60209     0.19499
0.059541    -0.16263    0.034855    0.066037     0.40189    -0.40948     0.17322
-0.0063954    -0.15483    0.022188    0.042975    -0.22272    -0.20745     0.14756
-0.076229    -0.15905  0.00075039    0.027385    -0.86584   0.0088706     0.12353
-0.13145    -0.17107   -0.016464    0.023162     -1.4209     0.24273     0.11118
-0.15808    -0.17757   -0.022961    0.033231     -1.8234     0.47335     0.11378
-0.15321    -0.16945   -0.021661    0.046223     -2.0611     0.66011      0.1232
-0.13112    -0.15451   -0.018738    0.047847     -2.1683     0.76242      0.1232
-0.10156    -0.14216   -0.018738    0.028359     -2.1725     0.76177     0.10599
-0.066485    -0.14184   -0.027833  -0.0050961     -2.0572     0.67862    0.079354
-0.032705    -0.14931   -0.042449   -0.036602     -1.7948     0.55422    0.049147
-0.014516    -0.14281   -0.051219   -0.045697     -1.3631     0.43664    0.023812
-0.031406   -0.097017   -0.042124   -0.028807    -0.76774     0.35544   0.0059473
-0.095068  -0.0011985   -0.010293   0.0036737   -0.060638     0.31322   -0.017764
-0.19089      0.1258    0.033231    0.030633      0.6377     0.29308   -0.054792
-0.28833     0.24955     0.06961    0.041351      1.1681     0.27261   -0.097991
-0.35361      0.3327     0.08585    0.036804       1.402     0.24338    -0.13242
-0.37408     0.34894    0.083251    0.022188      1.3052       0.207    -0.15321
-0.35914       0.296    0.062464 -0.00087364     0.97387      0.1703    -0.16815
-0.32536     0.19076    0.024786   -0.030106     0.58735     0.14724    -0.18796
-0.28735    0.058891   -0.026533    -0.05739     0.31711     0.15503     -0.2146
-0.25098   -0.082076   -0.082076   -0.076879      0.2606     0.20246    -0.24286
-0.21167    -0.21037     -0.1295   -0.080451     0.40611     0.28301    -0.26722
-0.16165    -0.29515    -0.15873   -0.071357      0.6364     0.37136    -0.27858
-0.092145    -0.30717    -0.15905   -0.051868     0.79718     0.43794    -0.26949
-0.00022403    -0.23863    -0.13145   -0.028482     0.78743      0.4688    -0.23538
0.10306    -0.11391   -0.084349  -0.0031473     0.59028     0.45808    -0.17627
0.19239    0.024461   -0.032705    0.020888      0.2606     0.40708    -0.10514
0.23754     0.13457    0.012443    0.039727    -0.10286     0.31679   -0.039851
0.22682     0.19499     0.04395    0.049472    -0.44164     0.18719   0.0075714
0.16575      0.2109    0.062789    0.047198    -0.76027    0.037454     0.03453
0.071558     0.20733    0.075131    0.038428     -1.0792    -0.10384    0.041676
-0.031406     0.20863    0.088124    0.031607     -1.3855    -0.21265    0.031282
-0.123     0.22292    0.099492    0.033556     -1.6158    -0.28995   0.0039985
-0.18926      0.2463     0.11216    0.039078      -1.696    -0.35102   -0.037577
-0.22564     0.26157     0.11768    0.035505     -1.5976     -0.4189   -0.092469
-0.23441     0.24598     0.10534   0.0085458      -1.366    -0.50043    -0.15646
-0.22694     0.18394    0.067011   -0.039526     -1.0812    -0.58195    -0.21849
-0.20323    0.068635   0.0033489   -0.098965    -0.81744    -0.63327    -0.27014
-0.15711   -0.085324   -0.076879    -0.15288    -0.61054     -0.6323    -0.30327
-0.090521    -0.23441    -0.15223    -0.18894    -0.43969    -0.57416    -0.31724
-0.012892    -0.31756    -0.19706    -0.19478    -0.25487    -0.47087    -0.31139
0.057267    -0.29125    -0.19576     -0.1688   -0.035628    -0.35199    -0.28768
0.10501    -0.16847    -0.15061    -0.11975     0.18654     -0.2526    -0.25033
0.14237  -0.0076946   -0.079152   -0.067134     0.38792    -0.19413    -0.19836
0.18946     0.11801   -0.010943   -0.027833     0.56592    -0.17724     -0.1334
0.25378     0.16315    0.027709   -0.014191      0.7137    -0.18374   -0.063886
0.31062     0.12353     0.02641   -0.022311     0.79458    -0.19381 -0.00022403
0.31874    0.032906  -0.0028225   -0.039851     0.78159    -0.19024    0.045899
0.2606   -0.063237   -0.038227   -0.057065     0.70818    -0.16555     0.06961
0.15633    -0.12657   -0.060963   -0.064211      0.6403    -0.12203    0.073832
0.05272    -0.13404   -0.059989   -0.055116     0.62795   -0.067459    0.067661
-0.014516   -0.088572   -0.035953   -0.030431     0.67278   -0.018738    0.054668
-0.035953   -0.012242  0.00075039   0.0017248     0.74423    0.015692    0.038103
-0.024909    0.067986     0.03453    0.030633     0.81115    0.032906     0.01894
-0.0028225     0.13295    0.056617    0.048822     0.85499    0.037454 -0.00022403
0.016666     0.17387    0.066362    0.056942     0.86734    0.036154   -0.013216
0.02706     0.19304     0.06896    0.062139     0.84363    0.034206   -0.016789
0.020888     0.19434     0.06831    0.069934     0.79003     0.03583   -0.013541
-0.0015233     0.18199    0.067986    0.080653     0.71955    0.038428  -0.0063954
-0.027508     0.16445    0.065387    0.091047     0.65004    0.036479  -0.0050961
-0.037577     0.14854    0.063438    0.097868     0.60164     0.02706   -0.010943
-0.010943     0.13912    0.064737     0.10014      0.5893    0.010819   -0.021661
0.059541     0.13587    0.071558    0.097218     0.61009  -0.0099683    -0.03173
0.15341     0.12807    0.079354    0.089098      0.6403   -0.029132   -0.036927
0.23526     0.10339    0.083576    0.079679     0.64744   -0.044398   -0.038551
0.26969    0.054344    0.079679    0.070584     0.61529   -0.053168   -0.036927
0.24468   -0.011267    0.067336    0.062464     0.54773   -0.055766   -0.034004
0.17517   -0.077853    0.049796    0.054668     0.46295   -0.051219    -0.03173
0.092671     -0.1321    0.030633    0.047523      0.3759   -0.034654   -0.030431
0.016991    -0.16068   0.0091954    0.041676      0.2934   -0.011267   -0.026533
-0.037902    -0.15905   -0.011917    0.037454     0.22487    0.016016   -0.011592
-0.079152    -0.13957   -0.028157    0.032257     0.16998    0.046873    0.015367
-0.10936      -0.123   -0.037252    0.025436      0.1284    0.083251    0.055318
-0.1178     -0.1243   -0.036278     0.01764     0.11086      0.1232     0.10469
-0.10286    -0.13859   -0.027508    0.009845      0.1323     0.15471     0.14561
-0.076554    -0.14769   -0.013216   0.0059473     0.19888     0.16023      0.1651
-0.051544    -0.13307   0.0046481   0.0088706     0.28171     0.13295     0.16218
-0.037577   -0.090196    0.025436    0.020888     0.31127    0.074157     0.14399
-0.032055   -0.023285    0.049147    0.037129     0.20181  0.00042559     0.11995
-0.017764    0.051745    0.070909    0.051096   -0.058689   -0.069408    0.096244
0.015042     0.11736    0.086175    0.059216    -0.34679    -0.12982    0.076431
0.062789     0.16543    0.091696    0.060515     -0.4673    -0.17789    0.059216
0.11346     0.19856    0.087799    0.057267    -0.31204     -0.2107    0.041676
0.14984     0.21967    0.074806     0.05207    0.067011    -0.21979    0.027709
0.15731     0.23429    0.057592    0.049147     0.49868    -0.19738     0.01764
0.11638     0.23656    0.037454    0.046873     0.81017    -0.15029   0.0085458
0.024786      0.2083    0.011794    0.040377     0.89982   -0.098965  0.00042559
-0.10351      0.1297   -0.020687    0.025111     0.75788   -0.063561  -0.0099683
-0.2539  -0.0073698   -0.060963   0.0023744     0.43729   -0.052193   -0.023935
-0.40461    -0.19316    -0.10319   -0.021661    0.021538   -0.062262   -0.040825
-0.53063    -0.39194    -0.13924   -0.035628    -0.40006   -0.077853   -0.054142
-0.60274     -0.5485     -0.1597    -0.03173    -0.76872   -0.081751   -0.053492
-0.60047    -0.61736    -0.15613   -0.013541     -1.0861   -0.068434   -0.037252
-0.52511     -0.5813    -0.12917   0.0046481     -1.3478   -0.055116  -0.0096434
-0.40071    -0.46665   -0.089546    0.010819     -1.5038   -0.063561    0.016991
-0.26624    -0.32308   -0.055441   0.0010752     -1.4865   -0.095393    0.032257
-0.15613    -0.19348   -0.036927   -0.021337     -1.2624    -0.13502    0.035505
-0.080127    -0.10286   -0.033354    -0.04927    -0.86519    -0.16035    0.032257
-0.032055   -0.051219   -0.038227   -0.072981    -0.39584    -0.15938    0.026735
0.0020496   -0.023935   -0.042449   -0.086948     0.02706     -0.1269    0.025111
0.039078 -0.00054884   -0.039201   -0.086623     0.32134   -0.068758    0.023812
0.083251    0.030633   -0.028807   -0.075255      0.4662  0.00010078    0.019914
0.12775    0.068635   -0.017439   -0.060313     0.48406    0.072208    0.013093
0.15763     0.10274   -0.011592   -0.042124     0.41001     0.14172   0.0091954
0.169      0.1232   -0.010943   -0.021012     0.27391      0.2096    0.012768
0.16998     0.12743   -0.007045  -0.0018481    0.097543     0.27391    0.022188
0.169      0.1245   0.0039985     0.01017    -0.12073     0.32621     0.03518
0.16738     0.11866    0.016991   0.0095202    -0.40721     0.35284    0.045574
0.169     0.11638    0.026735  -0.0050961    -0.75767     0.33758    0.046873
0.17257     0.11476    0.032582   -0.028482     -1.0935     0.27489    0.038428
0.18199     0.11346     0.03583   -0.045372     -1.2894     0.18069    0.023487
0.19499     0.11346     0.03583   -0.046996     -1.2498    0.080328    0.012443
0.2044     0.11281     0.03583   -0.031406    -0.95841  -0.0041217     0.01017
0.207     0.10761     0.03518  -0.0083442    -0.48711   -0.060638    0.017316
0.20408    0.097543    0.032582    0.016016    0.025111   -0.096367    0.021213
0.19726    0.085525     0.02706    0.036154     0.42885    -0.12398    0.012119
0.19109    0.072858     0.01894    0.044599     0.63575    -0.15451   -0.011592
0.18881    0.067011     0.01017    0.039078     0.63997    -0.18926   -0.038876
0.19141    0.072533   0.0020496    0.023812     0.52142    -0.22109   -0.058689
0.19563    0.090722  -0.0011985    0.008221     0.40286    -0.23863   -0.059339
0.18881     0.11054  0.00010078  0.00042559      0.3772    -0.22661   -0.041799
0.1625     0.11833   0.0065969    0.008221     0.45256    -0.18471   -0.014191
0.11606     0.10274    0.019914    0.030957     0.56462    -0.12527    0.013093
0.057592    0.061165    0.034206    0.061814      0.6338   -0.068758    0.028684
0.0056225  0.00010078    0.037778    0.083901     0.61236   -0.028807    0.021863
-0.024585   -0.073306     0.02706    0.087149     0.50323   -0.017764  -0.0096434
-0.024585    -0.14834  -0.0011985    0.072858     0.37623   -0.042774   -0.065835
0.003024    -0.22109   -0.038551    0.049472     0.33887    -0.10059    -0.13534
0.051745    -0.27176   -0.072006    0.027709      0.4662    -0.17432    -0.19771
0.11573    -0.26364   -0.084999    0.016016     0.74164    -0.23961    -0.23961
0.18362    -0.16458   -0.068758    0.012768      1.0288    -0.27761    -0.25812
0.23624    0.017316   -0.030756     0.01017      1.1226    -0.28183    -0.25942
0.25248     0.23591     0.01017  0.00010078     0.89787    -0.25455    -0.24286
0.22032      0.4178     0.03453   -0.018738     0.41066    -0.20355    -0.20388
0.14399      0.5081    0.029983   -0.043423     -0.1269    -0.14054    -0.14281
0.0433     0.48017  0.00075039   -0.068109    -0.47704   -0.072006   -0.073306
-0.061937     0.34829   -0.036927   -0.078503    -0.52414    0.008221  -0.0031473
-0.14411     0.15731   -0.065186   -0.064536    -0.30879     0.11768    0.069934
-0.18601   -0.036927   -0.075255   -0.024585    0.012119      0.2541     0.14367
-0.18374    -0.18147   -0.068758     0.02641     0.26157     0.39377     0.21058
-0.14606    -0.24221   -0.055116    0.065062     0.33108      0.5029     0.26092
-0.087597     -0.2133   -0.046022    0.081303     0.23364     0.56007     0.28431
-0.02426    -0.11943   -0.044398    0.081303     0.08585     0.57176     0.28203
0.033881  -0.0067202   -0.045372    0.074806     0.01894     0.55682     0.25897
0.073182      0.0865   -0.043423    0.068635      0.0865     0.52889     0.22682
0.094295     0.14626   -0.036278    0.065712     0.23754     0.49413     0.19726
0.10079      0.1716   -0.028157    0.066037     0.35382     0.45581      0.1729
0.095919     0.16965   -0.022961    0.056292     0.33368     0.41131     0.15244
0.082927     0.14821   -0.026209    0.031607     0.13749     0.35674     0.13262
0.06896     0.11281   -0.035953  -0.0034721    -0.19251     0.29178     0.11931
0.058241    0.073507    -0.04862   -0.035303    -0.56929     0.22292     0.11801
0.05142    0.037778   -0.059339   -0.054792     -0.9334     0.15991     0.12905
0.044924    0.011794   -0.062587   -0.058689     -1.2861     0.10501     0.14367
0.039078  -0.0037969   -0.056091   -0.045697     -1.6405    0.053694     0.15309
0.037778  -0.0076946   -0.039851   -0.022311     -1.9686  -0.0037969     0.15796
0.03583  -0.0034721   -0.019388   0.0023744     -2.1966   -0.081101     0.15958
0.031607   0.0056225  -0.0011985    0.020239     -2.2352    -0.18601     0.15666
0.027385    0.016341    0.012443    0.028359     -2.0494    -0.32243     0.14756
0.027385    0.024461     0.01764    0.025761     -1.6769    -0.48549     0.12937
0.039402    0.023162    0.015692    0.016991     -1.2082    -0.66121     0.10144
0.069285    0.015042    0.012119   0.0095202    -0.74046    -0.82751    0.073832
0.11963    0.003024   0.0091954   0.0088706    -0.34549    -0.95581    0.058566
0.1781   -0.010618    0.011469    0.015367   -0.068109     -1.0289    0.064413
0.22682   -0.025884    0.020564    0.024137    0.093645     -1.0448    0.085525
0.24825     -0.0405    0.035505    0.034206     0.18719     -1.0198     0.10794
0.23818   -0.051219    0.049796    0.043625     0.25313    -0.97497     0.11801
0.20635   -0.055766    0.054993    0.049796      0.2921    -0.91553     0.11021
0.16575   -0.053168    0.050121    0.047523     0.27944    -0.82459    0.084551
0.12807   -0.043748    0.041027    0.031607     0.19466     -0.6807    0.044599
0.095269   -0.029132    0.032257   0.0043233    0.041676    -0.48646  -0.0054209
0.062139   -0.013216    0.026085   -0.029457    -0.15321    -0.27209   -0.057065
0.020239 -0.00087364    0.021863   -0.062262    -0.34549   -0.075255    -0.10091
-0.040825   0.0072465    0.017316   -0.085648    -0.48321    0.079029     -0.1308
-0.12625    0.009845    0.011794   -0.094743    -0.52446     0.18751    -0.14574
-0.23084   0.0056225    0.008221   -0.089871    -0.45528     0.26125    -0.15061
-0.33543  0.00075039    0.008221   -0.073631    -0.29223     0.30899    -0.15061
-0.41695  0.00075039    0.014068   -0.052843   -0.052518      0.3418    -0.14574
-0.45301   0.0088706    0.021863   -0.030756     0.24825     0.36453    -0.13437
-0.43774    0.020564    0.032257   -0.012567     0.58833     0.37525    -0.11813
-0.38252    0.028359    0.041027      0.0014     0.93132     0.36843    -0.09929
-0.30554     0.02706    0.042651    0.011144      1.2298     0.34017   -0.085973
-0.22856    0.014717    0.040377    0.016666      1.4198     0.29795   -0.081426
-0.16523  -0.0060706    0.037454    0.017316      1.4608     0.26157   -0.084349
-0.1191   -0.029457    0.036154    0.011794      1.3464     0.24728   -0.089871
-0.089546   -0.047971    0.038428    0.003024      1.1165     0.25215   -0.096367
-0.07428   -0.058689    0.040702  -0.0050961      0.8394     0.26872    -0.10351
-0.070707   -0.062587    0.039402   -0.010293     0.58281     0.28983    -0.10936
-0.072981   -0.061613    0.034855   -0.011267     0.39474     0.31451    -0.11228
-0.080451   -0.057715    0.030633  -0.0083442      0.2986     0.34635    -0.10579
-0.090521   -0.051544    0.025111   0.0017248     0.28691     0.39084   -0.090521
-0.10449   -0.045697     0.01894    0.017965     0.31841     0.44411   -0.070707
-0.12008   -0.043099    0.010819    0.034206     0.32198     0.49641   -0.053168
-0.13697   -0.041475   0.0033489    0.041676     0.20765     0.53376   -0.042774
-0.14801   -0.041799  -0.0011985    0.041351   -0.081101     0.53993   -0.039851
-0.14996   -0.044723  -0.0037969     0.03453    -0.49263     0.50777   -0.042449
-0.14704   -0.050894  -0.0050961    0.025761    -0.87558     0.45061   -0.047971
-0.14541    -0.05739  -0.0047713    0.020888     -1.0789      0.3876   -0.049595
-0.14054   -0.060313   0.0020496    0.024786     -1.0295     0.33238   -0.045697
-0.12592   -0.056741    0.015367    0.037778    -0.75215     0.28203   -0.037577
-0.10221   -0.047646    0.031932    0.055968     -0.3442     0.22389   -0.030106
-0.07493     -0.0405    0.045899    0.074806    0.066037     0.14691   -0.027183
-0.04862   -0.046022    0.054668    0.090072     0.35447    0.050446   -0.034654
-0.022636   -0.065186    0.053694    0.092671     0.44898   -0.050894   -0.054142
-0.0028225   -0.091495    0.038103    0.072858     0.38922    -0.13957   -0.088572
0.0046481     -0.1178   0.0043233     0.02706     0.30445    -0.20485    -0.13145
-0.0037969    -0.13697   -0.045697   -0.033679     0.29503     -0.2448      -0.174
-0.022961    -0.13794    -0.09994   -0.087272      0.3327    -0.26397    -0.20518
-0.046022    -0.12138    -0.13957    -0.11975     0.31257    -0.26332    -0.21687
-0.063237   -0.094093    -0.15288    -0.12982     0.18946    -0.24838    -0.20713
-0.058689   -0.064211    -0.13989    -0.12138    0.014068    -0.22434    -0.17789
-0.029457   -0.035953    -0.10936    -0.10286    -0.15451    -0.19283    -0.14054
0.012443   -0.016464   -0.077203     -0.0824    -0.31983    -0.16003   -0.097341
0.053044  -0.0044465   -0.054467   -0.068109    -0.50692    -0.12982   -0.049595
0.082277   0.0078962    -0.04862   -0.064536    -0.68427    -0.11033      0.0014
0.098517    0.036804   -0.052193   -0.070058     -0.7934   -0.097991    0.046223
0.10794    0.083576   -0.056091   -0.080451    -0.78821   -0.092794    0.076106
0.11866     0.13522   -0.059339   -0.091495    -0.67972   -0.093444     0.08585
0.1336     0.17095   -0.065186    -0.10254    -0.52479    -0.09929     0.07773
0.14529     0.17322   -0.073631    -0.11326    -0.39519    -0.10611    0.063438
0.14367     0.13684   -0.081426    -0.12333    -0.35134    -0.11228    0.062789
0.12613    0.072208   -0.086623    -0.12982    -0.39129     -0.1217    0.080328
0.094295   0.0043233   -0.085973    -0.12917    -0.44651    -0.13437     0.10631
0.053044   -0.043099   -0.073955     -0.1191    -0.43612    -0.14216     0.12872
0.009845   -0.059014    -0.04862    -0.09929    -0.31626    -0.13534     0.13814
-0.025234   -0.047321   -0.017764   -0.070707   -0.095393    -0.11293     0.13457
-0.042449    -0.02426   0.0085458   -0.037577     0.18102   -0.081426     0.12515
-0.044723   -0.007045    0.024461  -0.0060706      0.4649   -0.046022      0.1206
-0.041475  -0.0015233    0.029333     0.01764     0.72507  -0.0083442     0.11898
-0.044073  -0.0060706    0.024137     0.03453     0.94464    0.036154     0.11703
-0.056091   -0.008669    0.013418     0.05272      1.1048    0.093321     0.11443
-0.06551      0.0014   0.0052977    0.075131      1.1717     0.15666     0.11183
-0.061937    0.028034     0.01017    0.099167      1.1113     0.21935     0.10826
-0.045697    0.063763    0.026735     0.11248     0.90696     0.27651     0.10664
-0.023935    0.094945    0.047198    0.095919     0.57826     0.32751     0.10177
-0.0076946     0.10956     0.06019    0.041351     0.17257     0.37071    0.091047
0.0010752     0.10209    0.059865   -0.044073    -0.24286     0.39637    0.074806
0.0033489    0.077405    0.047847    -0.14281    -0.58488     0.39312    0.054668
0.0062721    0.044924    0.028034    -0.23766    -0.75995     0.35739    0.035505
0.014392    0.010819   0.0078962    -0.31431    -0.70311     0.29892     0.01764
0.023162   -0.017764  -0.0063954    -0.36693    -0.42702     0.23071   0.0072465
0.021863   -0.038876   -0.014191    -0.39389   -0.015165      0.1651      0.0014
0.0033489   -0.053817   -0.023935    -0.39681      0.4191     0.10566  -0.0018481
-0.02426   -0.065835   -0.034329    -0.37765     0.78484    0.055643  -0.0057458
-0.048945   -0.075579   -0.042124    -0.33413      1.0395     0.01764  -0.0060706
-0.061288   -0.081751   -0.044398    -0.27014      1.1779   -0.010943  -0.0041217
-0.05804   -0.085324   -0.043748    -0.19446      1.2048    -0.03303  0.00042559
-0.042124   -0.088247   -0.044723    -0.10416      1.1178   -0.047646   0.0046481
-0.019063   -0.087272   -0.048296    0.022188     0.90404   -0.045697   0.0039985
0.008221    -0.07428   -0.048296     0.20798     0.54123   -0.027833  -0.0037969
0.041351   -0.045047   -0.036602     0.44671    0.014392 -0.00022403   -0.014516
0.085525  -0.0021729  -0.0089938     0.70883    -0.63003    0.028684   -0.017764
0.1362    0.045899    0.029658     0.95114     -1.2488    0.043625  -0.0015233
0.1781    0.086824    0.067011      1.1207     -1.6558    0.037454    0.031932
0.19271     0.11638     0.09397      1.1811     -1.7321     0.01764    0.070909
0.17452     0.13035     0.10761      1.1295      -1.506  -0.0011985     0.10014
0.13262     0.13327     0.10631     0.98622     -1.1198  -0.0047713     0.10631
0.083251     0.12418     0.09397     0.79036    -0.71902    0.011794    0.088773
0.03453     0.10599    0.072208     0.58313    -0.38187    0.041027    0.054668
-0.008669    0.081303    0.050121     0.39896    -0.13145    0.066686    0.014717
-0.043423    0.050121    0.032257      0.2554    0.049147    0.073832   -0.018088
-0.060313    0.015692    0.020564     0.15731     0.20505    0.054019   -0.036927
-0.057715   -0.011917     0.01829    0.099167     0.40579   0.0088706   -0.046347
-0.043423   -0.031406    0.019589    0.064088      0.7111   -0.049595   -0.051868
-0.029782   -0.042449    0.021863    0.040052      1.1272    -0.10806   -0.061937
-0.02361   -0.045047    0.020239    0.019264        1.58    -0.15386    -0.07493
-0.023285   -0.044398    0.018615   0.0017248      1.9327    -0.17984   -0.087922
-0.024909   -0.044398    0.020239   -0.013866        2.05    -0.18374   -0.093769
-0.024909   -0.046347    0.022188   -0.030106       1.832    -0.18017   -0.094093
-0.023935   -0.049595    0.020888   -0.052518      1.2818    -0.18829   -0.086948
-0.018413   -0.047646     0.01764   -0.080776     0.52921    -0.22239   -0.072006
-0.010618   -0.035953    0.016991    -0.11163    -0.22694    -0.27761   -0.052193
-0.0057458   -0.013866    0.017965    -0.13924    -0.83271    -0.33055   -0.030756
0.00010078    0.015042    0.020888    -0.16263     -1.2514    -0.35394   -0.011917
0.0091954    0.042651    0.021863    -0.18147     -1.5281     -0.3338  0.00042559
0.023812    0.063113    0.017316    -0.19673      -1.735    -0.27404   0.0046481
0.040377    0.075131   0.0059473     -0.2055      -1.902    -0.19413   0.0065969
0.054993     0.07708  -0.0067202    -0.20583     -2.0127    -0.11228   0.0069217
0.06019    0.073507   -0.013541    -0.19673       -2.04   -0.042774   0.0056225
0.057592    0.066037  -0.0067202    -0.18666     -1.9549  -0.0060706   0.0017248
0.039727    0.053369    0.016016    -0.18634     -1.7457   -0.022311  -0.0067202
0.0075714    0.031932    0.046873    -0.19836     -1.4196   -0.097341   -0.021337
-0.029782  0.00042559    0.070584    -0.21525     -1.0104     -0.2159   -0.043423
-0.057715   -0.044073     0.07773    -0.22921    -0.55792     -0.3442   -0.072656
-0.061937    -0.09994    0.060515    -0.23993    -0.10741    -0.44164    -0.11098
-0.044073     -0.1701    0.017316    -0.25162     0.28073    -0.48711     -0.1597
-0.021012    -0.25162   -0.051544    -0.26916     0.57176    -0.48841    -0.21362
-0.00087364    -0.33607    -0.13275     -0.2893     0.79198    -0.45983    -0.25942
0.02706    -0.38545    -0.19706    -0.30035      1.0054    -0.41078    -0.27956
0.078055    -0.36076    -0.22207     -0.2854      1.2314    -0.34095    -0.26559
0.15373    -0.24383     -0.2029    -0.24123      1.4107     -0.2461    -0.21622
0.23754   -0.059664    -0.15158    -0.17465       1.476    -0.13047    -0.14184
0.30542     0.13327   -0.084674   -0.096042       1.413  -0.0031473   -0.050569
0.3405     0.28333   -0.020687   -0.017764      1.2698     0.12872    0.047523
0.34115     0.36583    0.028359    0.048172      1.1152     0.25962     0.14432
0.30639     0.39669    0.062139    0.089098     0.98914      0.3811     0.22617
0.23754     0.40708    0.084551     0.10209     0.88293     0.46977     0.27554
0.13912     0.41456    0.098842    0.090072     0.77379     0.50583     0.28463
0.027385     0.41683     0.10761    0.068635     0.65166     0.47822     0.26027
-0.084999     0.39896     0.11573    0.048172     0.50713     0.39669     0.21902
-0.18829     0.35544     0.12515    0.032257     0.30639     0.28626     0.17355
-0.27923     0.28853     0.12872    0.014717  -0.0011985       0.169     0.13132
-0.36206     0.19888     0.11768   -0.010293    -0.39357    0.057917    0.098193
-0.43871    0.096569    0.091696   -0.042124    -0.73169   -0.038876    0.070909
-0.50173  -0.0018481    0.062464    -0.07428    -0.86161    -0.12235    0.043625
-0.53258   -0.084674    0.037778    -0.10481    -0.71188    -0.19478    0.008221
-0.50855    -0.15776    0.013418    -0.12885    -0.32178    -0.25487   -0.035953
-0.40753    -0.22824   -0.015815    -0.14379     0.17485     -0.2971   -0.081426
-0.22174     -0.2958   -0.049595    -0.14346     0.59742    -0.30912    -0.11163
0.029333    -0.34549   -0.079802     -0.1282     0.82804    -0.28281    -0.11163
0.28821    -0.34972   -0.098641   -0.097017     0.86539    -0.22077   -0.077853
0.48634    -0.28898    -0.10026   -0.054142     0.81374    -0.13827   -0.021986
0.58183    -0.17107   -0.084349  -0.0093186     0.82966   -0.050569    0.043625
0.57631   -0.029782   -0.061288    0.026085     0.99174    0.028034     0.10696
0.50063    0.086175   -0.041475    0.042326      1.2516      0.0852     0.16413
0.39507     0.14432   -0.033354    0.041351      1.4647     0.12028      0.2161
0.2895     0.15016   -0.034654    0.031607      1.4539     0.13912      0.2606
0.18946     0.13392   -0.032705    0.026085      1.1106     0.14367     0.28756
0.092996     0.12645   -0.020687    0.028034     0.43242      0.1232     0.28885
0.008221     0.13912  -0.0018481    0.034206    -0.46437    0.062139      0.2593
-0.04927     0.16153    0.010819     0.03453     -1.3388   -0.035628     0.20505
-0.071357     0.17095    0.011144    0.022512     -1.9296    -0.13989     0.13879
-0.061288     0.14984 -0.00054884  -0.0067202     -2.0757    -0.21362    0.070909
-0.036278    0.091696   -0.019712   -0.046347     -1.8026    -0.23636   0.0062721
-0.019388   0.0049729   -0.044398   -0.086298     -1.3258    -0.22044   -0.052518
-0.035303   -0.093119   -0.070707    -0.11715    -0.90904    -0.19738    -0.10838
-0.096042    -0.18504   -0.094093    -0.13567    -0.72942    -0.19738    -0.16035
-0.19186       -0.25    -0.11066    -0.14704    -0.80867    -0.23474    -0.20615
-0.28865    -0.27501    -0.11293    -0.16165     -1.0162    -0.29905    -0.23733
-0.34225    -0.26137    -0.10091    -0.17984     -1.1832    -0.36628     -0.2539
-0.33218    -0.22012   -0.079802    -0.19413     -1.2069    -0.40883     -0.2591
-0.27371    -0.17172   -0.059989    -0.19933      -1.099    -0.41013    -0.26039
-0.19868    -0.13599   -0.046996    -0.19673    -0.94476    -0.37083    -0.25682
-0.13469    -0.11358   -0.045047    -0.18731    -0.84212     -0.2932    -0.23506
-0.086948   -0.091495   -0.043423    -0.16425    -0.83076    -0.17854    -0.18244
-0.045047   -0.056416   -0.032055    -0.12592     -0.8798   -0.038876    -0.10221
-0.0041217  -0.0054209  -0.0057458   -0.073306    -0.90904     0.11021   -0.011267
0.036804    0.053044    0.028034   -0.017114    -0.85089      0.2489    0.070259
0.067336     0.10956    0.062139    0.033881    -0.68297     0.35999      0.1284
0.07773     0.15568    0.088448    0.077405    -0.42572     0.43502     0.16153
0.06831     0.18589     0.10242     0.10696    -0.11683     0.47789      0.1742
0.058891     0.20246     0.10371     0.12613     0.19434     0.49186     0.16835
0.068635     0.20928     0.10014     0.13814     0.44866     0.48179     0.14919
0.10079      0.2135     0.10014     0.14854     0.59775     0.45028     0.11931
0.14237     0.21252     0.10371     0.15926     0.61951     0.40026    0.084551
0.17387     0.20765     0.10306      0.1638     0.52694     0.33498    0.054344
0.18459     0.20051    0.093645     0.15503     0.35934     0.25735    0.028034
0.17485     0.19141     0.07773      0.1297     0.15926     0.16478  -0.0021729
0.15114     0.17517    0.058891    0.089098    -0.04992    0.057267   -0.040825
0.12515     0.14009    0.044275    0.044924    -0.24545   -0.058689   -0.084674
0.10924    0.083901    0.031607    0.011794    -0.39292    -0.16425    -0.12333
0.10794    0.012443    0.021213    0.003024    -0.44781    -0.23474    -0.15418
0.10631   -0.064536    0.010495    0.015692     -0.3809    -0.25195    -0.17432
0.076431    -0.14087  0.00042559    0.036479      -0.212    -0.21297    -0.18731
0.0020496     -0.2159   -0.018088    0.049796   0.0052977    -0.13762    -0.19836
-0.11228    -0.29093   -0.050244    0.049796     0.21545   -0.059664    -0.21687
-0.24545    -0.35979   -0.094418    0.032906     0.37233  -0.0096434    -0.24578
-0.36726    -0.40071    -0.13502   0.0039985     0.44996    0.003024    -0.27956
-0.45333    -0.39259    -0.15743   -0.021661     0.45646  -0.0083442    -0.30489
-0.48646    -0.32438    -0.15093   -0.029782     0.43145   -0.017114    -0.30229
-0.46957    -0.21297    -0.12105   -0.018088     0.40546 -0.00022403    -0.26559
-0.41858    -0.09994     -0.0837   0.0065969     0.40449    0.044599    -0.20355
-0.35232    -0.02426   -0.058689    0.030308     0.43762     0.10047    -0.12852
-0.28508  -0.0096434   -0.054142    0.046548     0.49576     0.14659   -0.053492
-0.22174   -0.047321    -0.06551    0.062139     0.55195      0.1729    0.011794
-0.16653    -0.10806   -0.078178    0.077405     0.56916     0.17907    0.062464
-0.1308     -0.1623   -0.079477    0.092996     0.54123     0.16965     0.10144
-0.1217    -0.18601   -0.063237     0.10696     0.49965     0.15309       0.131
-0.13047     -0.1727   -0.036927     0.11541     0.49446     0.13652     0.15244
-0.13697    -0.12917   -0.012892      0.1206     0.54968       0.131      0.1651
-0.11748   -0.070707   0.0010752     0.12548     0.63575     0.14399     0.17192
-0.064861   -0.014516   0.0043233     0.13262     0.66855     0.16738     0.16998
0.012443     0.01894 -0.00022403     0.14139      0.5422     0.18719     0.15796
0.093645    0.028684  -0.0067202     0.15276     0.20993     0.19109     0.13977
0.15601     0.03453   -0.008669     0.16413    -0.24838     0.17257     0.11898
0.18589    0.057917  -0.0018481     0.17225    -0.64204     0.13327     0.10436
0.18557     0.10989     0.01017     0.17257    -0.81127    0.080003    0.095594
0.1729     0.18134     0.01829     0.16056    -0.74176    0.020239    0.085525
0.16965     0.24598    0.016991     0.13912    -0.55012   -0.040175    0.070259
0.18751     0.28788   0.0043233     0.11378    -0.38707   -0.096042    0.054668
0.22844     0.30704   -0.010943    0.091047    -0.34744    -0.14346     0.05142
0.27911     0.31516   -0.017114    0.076106    -0.44229    -0.18634    0.067336
0.32458     0.32166   -0.010943    0.073182    -0.61768    -0.23019    0.096893
0.35252     0.32426   0.0033489    0.082277    -0.78431    -0.28313     0.12905
0.35966     0.31419    0.021863    0.097868      -0.847     -0.3377     0.15276
0.34245     0.27846    0.041676     0.10891    -0.74078    -0.37765     0.16575
0.30087     0.21415    0.058566     0.10956    -0.48094    -0.38804     0.16738
0.24013     0.12775    0.067986     0.10112    -0.15938    -0.36368     0.15211
0.16998    0.028359    0.066686    0.088448      0.1232    -0.31269     0.11768
0.10079   -0.072331    0.055643    0.078055     0.30639    -0.24058    0.072208
0.036479    -0.15126    0.040377    0.079354     0.39539    -0.15418    0.031282
-0.016789    -0.18634    0.024137    0.090072     0.44119   -0.061288    0.009845
-0.045047    -0.16685    0.011469    0.098193     0.50745    0.023812    0.012443
-0.04115    -0.10221   0.0020496    0.093321     0.62958    0.094945    0.037129
-0.0083442    -0.01549  -0.0076946    0.072858     0.80725     0.15698    0.079679
0.036479    0.061489   -0.020362    0.038753      1.0184     0.22941     0.12937
0.065712     0.11183   -0.034329 -0.00087364      1.2142     0.31159     0.17192
0.047847     0.13132   -0.046022   -0.039526      1.3487     0.38337     0.19304
-0.03173     0.12353   -0.048945   -0.074605      1.4101     0.42203     0.18654
-0.16523     0.09462   -0.042774   -0.098641      1.4072      0.4152     0.15276
-0.32016    0.055318   -0.027833    -0.10871      1.3442     0.36486    0.096569
-0.45658    0.018615   -0.008669    -0.10806      1.2048     0.28821    0.028684
-0.54005  -0.0044465    0.014717    -0.10384     0.96933     0.20798    -0.03238
-0.5511   -0.013216    0.037778   -0.092469     0.63705     0.14399   -0.070707
-0.48938   -0.010293    0.054993   -0.070058     0.23948     0.10112   -0.077203
-0.36758  -0.0024977    0.063438   -0.043099    -0.16523    0.070584   -0.058689
-0.21297  0.00075039    0.062789   -0.019063    -0.47802    0.030633   -0.031081
-0.055116  -0.0018481    0.053694  -0.0047713     -0.5917   -0.033679   -0.010618
0.071883  -0.0076946    0.036804 -0.00087364    -0.45983    -0.12138  -0.0063954
0.15503   -0.010943    0.017316  -0.0034721    -0.12365     -0.2133    -0.01484
0.19466  -0.0073698   0.0036737  -0.0073698     0.28008    -0.28216   -0.025559
0.19856   0.0026992   0.0033489  -0.0080194     0.57956    -0.30359   -0.023285
0.17712    0.011794    0.014068  -0.0018481     0.65231    -0.27079  -0.0067202
0.13749    0.013093    0.026085    0.009845      0.4701    -0.18699    0.013743
0.090072   0.0039985    0.031607    0.022188     0.10079   -0.072331    0.027709
0.041027    -0.01549    0.029983    0.032582    -0.33672    0.049796    0.029983
-0.0057458   -0.038876     0.02641    0.042326    -0.73429     0.15763    0.019589
-0.039526    -0.05739    0.025761     0.05272     -1.0377     0.23396   0.0026992
-0.050569   -0.067459    0.031282    0.056942     -1.2225     0.26027    -0.01549
-0.038551   -0.066485    0.033231     0.04395     -1.2374     0.23071    -0.03173
-0.010618   -0.059339    0.031607    0.011794     -1.0165     0.15991   -0.048296
0.024786   -0.047646     0.02706   -0.028807    -0.56182    0.076431   -0.067784
0.066037    -0.03303    0.021538    -0.06551    0.016016   0.0085458   -0.088572
0.10566   -0.020687    0.016991   -0.090521      0.5081   -0.026858    -0.10644
0.13814    -0.01549    0.012443    -0.10774     0.70818   -0.034978    -0.11651
0.16413    -0.02361   0.0056225    -0.12138     0.54091   -0.028807    -0.11228
0.19076   -0.043748  -0.0054209    -0.13145      0.1232   -0.025234   -0.096692
0.22032    -0.06616   -0.019712    -0.14054    -0.31529   -0.028482    -0.07493
0.2502   -0.087922   -0.041799    -0.14671    -0.57903   -0.035303   -0.056091
0.27489    -0.10384   -0.061288    -0.14736    -0.62938   -0.035628     -0.0405
0.29145   -0.097991    -0.06616    -0.13892    -0.56441   -0.020037   -0.027833
0.29957   -0.057715   -0.055441     -0.1178    -0.49848   0.0052977   -0.017764
0.30477    0.009845   -0.034004   -0.086948    -0.47704    0.025761   -0.011917
0.30704    0.085525   -0.008669   -0.048296    -0.47867    0.030957   -0.014191
0.29697     0.15049    0.016666   -0.012567     -0.4647    0.017316    -0.02426
0.26222     0.19304    0.039402    0.011144    -0.40623  -0.0073698   -0.041799
0.19628     0.20798    0.056942    0.021213    -0.30035   -0.035303   -0.062587
0.10404     0.18979    0.065712    0.016341    -0.16847   -0.062587   -0.082076
-0.00054884     0.13652    0.059865  -0.0021729   -0.044723   -0.096042    -0.10254
-0.099615    0.046873     0.03583   -0.035303    0.042326    -0.14346     -0.1334
-0.1753   -0.072981  -0.0021729   -0.072006    0.085525    -0.20908    -0.16912
-0.20713    -0.19966   -0.038551   -0.096367     0.10306    -0.27891    -0.19251
-0.19348    -0.30457   -0.059339   -0.096042     0.10534    -0.33283    -0.18601
-0.15938    -0.36531    -0.06551   -0.078178     0.06896    -0.36693    -0.14606
-0.13697    -0.37505   -0.068758   -0.055441    -0.04927    -0.39097   -0.087597
-0.14509    -0.33965   -0.071682   -0.037577    -0.25552    -0.40493   -0.028157
-0.17984    -0.27404   -0.070382    -0.02361    -0.49231    -0.40169    0.021538
-0.22434    -0.19413   -0.059664  -0.0093186    -0.67777    -0.36563    0.062139
-0.26559    -0.11683   -0.041475   0.0085458    -0.75995     -0.2945    0.096893
-0.2958   -0.056741   -0.023285    0.025111    -0.72942     -0.2016     0.12385
-0.30879   -0.022311    -0.01614    0.038428    -0.61281    -0.10709     0.13717
-0.30165  -0.0076946   -0.021337    0.046548    -0.46015   -0.029132       0.131
-0.27469   0.0039985   -0.028157    0.055318    -0.31464    0.025436     0.10989
-0.22824    0.022188   -0.025234    0.064088    -0.19381    0.063113    0.082277
-0.17562    0.040052   -0.010293    0.071234   -0.093769    0.091372    0.055643
-0.12625    0.042651    0.009845     0.07773  -0.0034721     0.10956    0.034855
-0.082076    0.028034     0.02706    0.083576    0.081627     0.11541    0.015042
-0.036278   0.0020496    0.030957      0.0852     0.16803     0.10859  -0.0050961
0.0088706   -0.022961    0.020888    0.080328     0.26742    0.095594   -0.021986
0.037129   -0.036927   0.0020496    0.074157     0.38922    0.088124   -0.027508
0.032906   -0.037252    -0.01549    0.075131     0.52661    0.093645   -0.013866
-0.0073698   -0.026533   -0.026533    0.084226     0.64582     0.10989     0.01829
-0.063237   -0.008669   -0.028807    0.094295     0.69844     0.12223    0.054993
-0.10774    0.013418   -0.020687    0.099492     0.65134     0.11736    0.080328
-0.12203    0.043625  -0.0031473    0.099817     0.49153      0.0865    0.089098
-0.10124    0.082927    0.023162    0.097218     0.23689    0.040702    0.081952
-0.048296     0.13002    0.051096    0.097543   -0.080451  -0.0050961    0.062789
0.024786     0.17517    0.069285    0.098842    -0.43222   -0.038551    0.038103
0.10859     0.20733    0.071558    0.092021    -0.81289   -0.061288    0.014717
0.19499     0.21967    0.061489    0.069285     -1.1741   -0.080451  -0.0041217
0.28041     0.21188    0.039727    0.030957     -1.4167    -0.10319   -0.012242
0.35836     0.18557   0.0085458   -0.014516     -1.4365     -0.1256  -0.0076946
0.4165     0.14334   -0.025234   -0.054142     -1.1695    -0.13307   0.0088706
0.43469    0.093321   -0.053168   -0.080776    -0.64172    -0.11358    0.027385
0.40481    0.041027   -0.070382   -0.088247    0.026085   -0.065186    0.038428
0.33011  -0.0031473   -0.073631   -0.085648     0.65394 -0.00054884    0.030633
0.22422   -0.027183   -0.071032   -0.082725      1.0963    0.062139   0.0026992
0.10306   -0.029457   -0.069408   -0.085648       1.285     0.10956   -0.036927
-0.01484   -0.019063   -0.069408   -0.090521      1.2272     0.13522   -0.073631
-0.12365   -0.010943    -0.06551   -0.092145     0.98979     0.13879   -0.092794
-0.21362   -0.008669   -0.052193   -0.085324     0.65394     0.13067   -0.088896
-0.27436   -0.011592   -0.031081   -0.066485     0.29015      0.1297   -0.066485
-0.2958   -0.018088  -0.0057458   -0.037252   -0.057715     0.14432   -0.034004
-0.27534   -0.023285    0.012768   -0.012892    -0.36206     0.16608  -0.0054209
-0.21914   -0.021986    0.023162 -0.00022403    -0.60567       0.169   0.0095202
-0.13957   -0.015165    0.021863 -0.00054884    -0.79925     0.13002    0.009845
-0.056741  -0.0076946    0.011469   -0.013216    -0.95548     0.04395  -0.0028225
0.011144  0.00010078  -0.0028225   -0.035628     -1.0662   -0.069733   -0.025234
0.064737    0.011144   -0.016464   -0.059664     -1.1202    -0.17789   -0.045372
0.11411    0.030633   -0.022961   -0.070058     -1.1042       -0.25   -0.055116
0.16283    0.058566    -0.02361   -0.065835     -1.0075    -0.27371   -0.054142
0.20993     0.08585   -0.020362   -0.054142    -0.82946     -0.2552   -0.044723
0.2476     0.10761   -0.017114   -0.039851    -0.58293    -0.21265   -0.034654
0.26677     0.11671    -0.01484   -0.027183    -0.27956    -0.17075   -0.026533
0.25637     0.11931   -0.013541   -0.018088    0.081303    -0.14054   -0.020362
0.2174     0.12093   -0.010943   -0.014191     0.49868    -0.11586   -0.015165
0.15926     0.11866  -0.0060706   -0.016464     0.93327   -0.084999   -0.012242
0.097218     0.10859  -0.0015233   -0.020687      1.3013   -0.037577   -0.017114
0.037129    0.089748   0.0033489   -0.022636      1.5176    0.025436   -0.028807
-0.011592    0.067986   0.0085458   -0.017439      1.5498    0.095919   -0.047321
-0.041475     0.05272    0.011469  -0.0044465      1.4143     0.16218   -0.064536
-0.055441    0.050121    0.011469    0.012443      1.1603     0.21642   -0.071032
-0.064861    0.060515   0.0065969    0.028359     0.84785     0.25345   -0.065186
-0.079802    0.075781   0.0010752    0.039402     0.53311     0.26644   -0.054467
-0.10124    0.088773  -0.0021729    0.047198     0.25475      0.2515   -0.045697
-0.1191    0.094945  0.00075039    0.050771    0.019264     0.20863   -0.044398
-0.1256    0.093321   0.0052977    0.047198    -0.18244     0.13912   -0.046996
-0.1204    0.078704   0.0091954    0.033556    -0.36953    0.045899   -0.052193
-0.11066    0.039078   0.0091954    0.011144    -0.52154   -0.061937   -0.062262
-0.10741   -0.037252   0.0017248   -0.011592     -0.5904     -0.1701   -0.077853
-0.11715    -0.14834    -0.01484   -0.026209    -0.54525    -0.26137   -0.093769
-0.12787    -0.26916   -0.034654   -0.034329    -0.39487    -0.32178    -0.10026
-0.11715    -0.36011   -0.054467   -0.036278    -0.17627    -0.34809   -0.092794
-0.070058    -0.39389   -0.069083   -0.033354     0.06084      -0.339   -0.073631
0.0075714    -0.36628   -0.072006   -0.024585      0.2606     -0.2971   -0.045047
0.088773     -0.2971   -0.059664   -0.008669     0.38435    -0.22856   -0.007045
0.14172    -0.21167   -0.034329   0.0062721     0.41456    -0.14444    0.032582
0.15049    -0.13145  -0.0028225    0.015692     0.36096   -0.064861    0.059865
0.11898   -0.064211    0.028034    0.021863     0.25215  -0.0031473    0.066037
0.061165  -0.0096434    0.049147    0.028034     0.12158    0.039402     0.05207
-0.0011985    0.031932    0.056292    0.036154   -0.011592     0.06896    0.029009
-0.049595    0.057267    0.054019    0.045899     -0.1321    0.092346   0.0072465
-0.072331    0.063113    0.045574    0.056617     -0.2094     0.10696  -0.0054209
-0.073631    0.054668    0.037129    0.059216    -0.19348     0.10696  -0.0054209
-0.06616    0.038428    0.031607    0.050771   -0.067784    0.087799   0.0043233
-0.064861    0.016666    0.030308    0.031282      0.1362    0.051745    0.021213
-0.079802  -0.0060706    0.028034   0.0085458     0.35382   0.0049729    0.039402
-0.10384   -0.021012    0.024786  -0.0083442     0.49998   -0.039851    0.056942
-0.12625   -0.025559    0.020888   -0.010618     0.53376   -0.070382    0.074482
-0.13892   -0.019063    0.020564   0.0036737      0.5003   -0.077203    0.096244
-0.13307  -0.0047713    0.028034    0.032257     0.47464   -0.060963     0.12255
-0.10449    0.016016    0.040377    0.067011     0.48309   -0.028157     0.14626
-0.064536    0.044599    0.053369    0.097218     0.47627   0.0059473     0.15731
-0.03238    0.078704    0.067661     0.11606     0.37753    0.028684     0.14529
-0.026533     0.10761    0.080653     0.11995     0.15796    0.027709     0.10436
-0.056091     0.11963    0.087474     0.10404    -0.13372   0.0017248    0.042326
-0.11651     0.10534    0.084226    0.072208    -0.38577   -0.036927   -0.021661
-0.19348    0.065712    0.069934    0.033881    -0.48679   -0.074605   -0.071357
-0.26494    0.009845    0.042651  -0.0011985    -0.39714    -0.09994   -0.097991
-0.30522   -0.056741 -0.00022403   -0.023285    -0.18114   -0.097991    -0.10351
-0.29905     -0.1256   -0.046347   -0.027183    0.036804   -0.057715   -0.092469
-0.24253    -0.17822   -0.081751    -0.01549     0.15114    0.022188   -0.072981
-0.14509    -0.19901   -0.098316   0.0010752      0.1271     0.12548   -0.059339
-0.034004    -0.19738   -0.098316   0.0059473    0.013418     0.22194   -0.059989
0.057267    -0.19803   -0.093119  -0.0093186    -0.10026     0.27911   -0.073306
0.11216    -0.21525   -0.096042    -0.04115     -0.1191     0.28171   -0.088572
0.13392    -0.24091    -0.10936    -0.07428    0.019264     0.24273   -0.089871
0.13717    -0.24935    -0.12235   -0.088572     0.31874     0.19563   -0.059989
0.13067    -0.21492     -0.1217    -0.07493     0.70591     0.17127   0.0026992
0.11313    -0.12398    -0.09994   -0.035303      1.0632     0.18232    0.085525
0.0865    0.020888   -0.054142    0.019264      1.2581        0.22     0.16868
0.054019     0.19596   0.0033489    0.073182      1.1662      0.2606     0.23624
0.023162     0.34927    0.054668     0.10956     0.71305     0.27749     0.28138
-0.0067202     0.42203    0.080978     0.11995   -0.031081     0.24468     0.29892
-0.035303     0.38727     0.07708     0.10242    -0.85317     0.15471      0.2934
-0.050894     0.26352    0.053369    0.067986     -1.5103    0.024461     0.26872
-0.031406     0.11573    0.026085    0.032906     -1.8607    -0.11066     0.23266
0.033556    0.014068     0.01017    0.012443     -1.9254    -0.21265     0.19336
0.13035  -0.0034721   0.0088706   0.0039985       -1.85    -0.25942     0.15698
0.22909    0.045249    0.011469  -0.0011985     -1.7688    -0.25552     0.12093
0.2986     0.10826   0.0046481   -0.012242     -1.6895    -0.22597    0.079354
0.31354     0.14042   -0.018738   -0.029132     -1.5245    -0.19576    0.030633
0.27229     0.11995   -0.051544    -0.04992     -1.2088     -0.1714   -0.019712
0.19141    0.062464   -0.083375   -0.069083    -0.76125    -0.14184   -0.064861
0.093645      0.0014    -0.10384   -0.079152     -0.2578    -0.09182   -0.092145
-0.0015233   -0.025884    -0.10514   -0.073955      0.2096   -0.018738   -0.093119
-0.078827   0.0033489   -0.080776   -0.052193     0.57988    0.069934   -0.070058
-0.1256    0.079029   -0.037252   -0.020037     0.84135     0.16121   -0.030756
-0.14119     0.16575   0.0095202     0.01017      1.0119     0.24143   0.0078962
-0.1282     0.22227    0.042975    0.029333      1.1018     0.29762    0.033881
-0.094418     0.22584    0.054668     0.03583      1.0915     0.31322    0.039078
-0.049595     0.17842    0.043625    0.033231     0.95341     0.28268    0.023487
-0.0034721     0.10047    0.016341     0.02706     0.70493     0.20928   0.0026992
0.044924    0.024461   -0.014191    0.024786     0.41845     0.11573   -0.010943
0.097868   -0.020037   -0.035303     0.02641     0.18946     0.02706   -0.011592
0.14854   -0.015815   -0.038227    0.034206    0.083576   -0.034978  0.00075039
0.18622    0.032906   -0.024585    0.047847     0.10534   -0.059014    0.022837
0.20343     0.10696  -0.0047713    0.066686      0.2109   -0.046022    0.053694
0.19531     0.18102    0.018615    0.087149     0.33498 -0.00054884     0.09462
0.16608     0.23721    0.041676     0.10631     0.43339    0.065712     0.14269
0.1219     0.26709    0.063113     0.12288     0.49803      0.1323     0.19239
0.076431     0.27067    0.080003     0.13555     0.53051     0.17712     0.23981
0.044599     0.25183    0.089423     0.13912      0.5094     0.18849     0.27586
0.031932     0.21577    0.089423      0.1284     0.39896      0.1625     0.28268
0.025761     0.16608    0.081627     0.10079      0.1755     0.10696      0.2554
0.0052977     0.10859     0.06831    0.064413    -0.12982    0.032582     0.19953
-0.044398    0.045249    0.050771    0.026735    -0.43612   -0.050244     0.12937
-0.1217   -0.019712    0.028359  -0.0057458    -0.65763    -0.13112     0.06019
-0.2068   -0.080451    0.003024    -0.03238    -0.75832    -0.21037   0.0043233
-0.27891     -0.1321   -0.021986   -0.055116    -0.75735    -0.29417   -0.036927
-0.31756     -0.1675   -0.042124   -0.069083    -0.68037    -0.37992   -0.070058
