-0.080451    -0.39162    -0.16035    -0.31594     -1.1153     0.36194     0.38662
-0.13599    -0.31626    -0.11878    -0.28833     -1.1991     0.25702      0.3392
-0.15743    -0.22077   -0.086948    -0.26981     -1.2839     0.12613     0.29827
-0.16977    -0.15418   -0.074605    -0.27079     -1.4216   -0.028157     0.24923
-0.18959    -0.13989   -0.082076    -0.29807     -1.6441    -0.19706     0.18881
-0.21914    -0.16815    -0.10449    -0.35004     -1.8909    -0.36044     0.11768
-0.23766    -0.20388    -0.12982    -0.41176     -2.0079    -0.48744    0.048822
-0.22532    -0.21525    -0.14639    -0.44748     -1.8289    -0.55207  -0.0063954
-0.17335    -0.19186    -0.14606     -0.4176     -1.2764    -0.54005   -0.037902
-0.092469    -0.14476    -0.12008     -0.2932    -0.45853     -0.4595   -0.045372
0.0010752   -0.090196   -0.069733   -0.078178     0.36908     -0.3416   -0.030431
0.091696   -0.039526  -0.0034721      0.1781      0.9375    -0.22499   0.0033489
0.16803   0.0078962    0.059541     0.39604        1.11    -0.14541    0.041676
0.22032    0.054993     0.10664      0.5133     0.89884    -0.12398    0.075781
0.23494     0.10566     0.13035     0.50615     0.43859    -0.15743    0.099817
0.2057     0.15666      0.1323     0.40254   -0.098965    -0.22369     0.10989
0.14107     0.20018     0.11995     0.25378    -0.58455    -0.29677     0.10242
0.061165     0.22877    0.097543     0.11021    -0.96523    -0.35654    0.080003
-0.010293     0.23818    0.070909   0.0020496     -1.2462    -0.39292    0.051745
-0.055441     0.22747    0.048172   -0.061613     -1.4391    -0.39389    0.021863
-0.069733     0.20505    0.036154   -0.084349     -1.5304    -0.35264  -0.0047713
-0.061613     0.17647    0.033556   -0.082076     -1.4927    -0.27501   -0.027508
-0.046671     0.15114    0.032906   -0.072656     -1.3014    -0.18049   -0.047321
-0.04115     0.13262    0.026085   -0.070707    -0.96133   -0.092469   -0.064861
-0.052518     0.11931    0.014392    -0.07493    -0.55142   -0.029457   -0.077853
-0.079802     0.10501   0.0052977     -0.0824    -0.22077 -0.00054884   -0.089871
-0.11228    0.087799   0.0010752   -0.090521   -0.080451  -0.0018481    -0.10221
-0.13632    0.070584   0.0017248   -0.096692    -0.14249   -0.021337    -0.11748
-0.14281    0.055318   0.0056225   -0.098316    -0.31561   -0.039201    -0.13242
-0.1321    0.044275    0.010819   -0.096692    -0.46502   -0.037252    -0.14054
-0.10741    0.039078    0.015367   -0.095068    -0.50043  -0.0089938    -0.13534
-0.078827    0.037129    0.014392   -0.094093    -0.41663    0.037454    -0.11326
-0.052843    0.032582   0.0020496   -0.097341    -0.27469    0.074157   -0.079802
-0.035628    0.023487   -0.015815    -0.10384    -0.14509    0.073182    -0.04927
-0.027508     0.01017   -0.032055    -0.10741   -0.047321    0.031282   -0.038551
-0.024909  -0.0050961   -0.040175    -0.10611    0.034206   -0.030431   -0.050569
-0.02426   -0.018413   -0.044073    -0.10059     0.12125     -0.0837   -0.081751
-0.019712   -0.027183   -0.045697   -0.092145     0.21805    -0.11813    -0.11975
-0.011917   -0.033354   -0.045047   -0.081426     0.31257    -0.13729    -0.14931
-0.0096434   -0.042774   -0.042124   -0.068109     0.39019    -0.15191    -0.16588
-0.021661   -0.050569   -0.037252   -0.054792     0.45451    -0.16328     -0.1675
-0.048296    -0.04862   -0.029457   -0.047321     0.52726    -0.16328    -0.16003
-0.078503   -0.025559   -0.019388     -0.0405     0.63413    -0.13989    -0.14509
-0.095068    0.019589  -0.0073698    -0.03303     0.77834   -0.091495    -0.12755
-0.091495    0.081303   0.0065969    -0.02361     0.94367   -0.027833    -0.10806
-0.079152     0.13977    0.022512   -0.010618      1.1048    0.036154   -0.085973
-0.068109     0.17647    0.041676   0.0059473      1.2392    0.092671    -0.06551
-0.068434     0.17939    0.059216    0.024461       1.339     0.13262   -0.051219
-0.08305     0.14951     0.06831    0.041676      1.4111     0.15471   -0.045372
-0.10806    0.098842    0.067011     0.05207      1.4572     0.16088   -0.044723
-0.13404    0.042001    0.055643    0.052395      1.4663     0.15536   -0.045697
-0.15126    -0.01549    0.040702    0.042651      1.4078     0.13749    -0.04862
-0.15483   -0.073306    0.028034    0.028684      1.2366     0.10599   -0.053817
-0.14346    -0.13275    0.020564     0.01829     0.90144    0.067336   -0.059339
-0.11098    -0.18504    0.016341    0.016666     0.36583     0.03453   -0.061937
-0.054467    -0.21752    0.015367    0.020239    -0.31042    0.021213   -0.052843
0.01829    -0.22109    0.015042    0.028359    -0.96068    0.028684   -0.031081
0.088448     -0.2042    0.015692    0.038428      -1.394    0.050121  -0.0044465
0.1323    -0.18536    0.016341    0.045249     -1.4856    0.076755    0.011469
0.1284    -0.17692   0.0095202    0.044275     -1.2364     0.10047    0.008221
0.079029    -0.18049  -0.0063954     0.03583    -0.74338     0.11118   -0.013541
0.010819    -0.18894    -0.02426    0.023487    -0.14119     0.10924   -0.043748
-0.03238    -0.19348   -0.034978    0.016016     0.41488     0.11054   -0.069408
-0.03303    -0.17854   -0.034004    0.021538     0.76307      0.1245   -0.082076
-0.0011985    -0.13567   -0.027183    0.033556     0.76112     0.14659   -0.080127
0.035505   -0.068109   -0.021337    0.040377      0.3772     0.15893   -0.070058
0.050771    0.011469    -0.02361    0.033231    -0.21752     0.14854   -0.057715
0.036154    0.085525   -0.030756    0.012768    -0.72389     0.11054   -0.038227
-0.00054884     0.13782   -0.036927  -0.0080194    -0.90351    0.055643  -0.0015233
-0.033679     0.16153   -0.038876   -0.016464    -0.68264   0.0046481    0.058566
-0.043748     0.15828   -0.034329  -0.0083442    -0.15191   -0.021986     0.13295
-0.031406      0.1362    -0.02361    0.014392     0.49024  -0.0089938      0.2057
-0.017114     0.10501   -0.011592     0.04395      1.0418    0.041027     0.25637
-0.023285    0.074482  -0.0057458    0.069285      1.3783     0.10534     0.26807
-0.062587    0.043625  -0.0073698    0.083576      1.4578     0.15828     0.24143
-0.13372    0.003024   -0.013866    0.082602      1.2948     0.17712     0.19239
-0.22467   -0.055766   -0.018738    0.063438     0.95406     0.14854     0.13392
-0.32146    -0.12852   -0.022311    0.030633     0.57274    0.076431    0.076755
-0.40883    -0.20583   -0.027833  -0.0034721     0.31419   -0.015165    0.026735
-0.47087    -0.27534   -0.039201   -0.030431     0.26417    -0.09929   -0.013216
-0.48841    -0.32958   -0.056416   -0.042449     0.37233    -0.14704   -0.044073
-0.45073    -0.35784   -0.070707   -0.035953     0.48179    -0.14314   -0.066485
-0.36693    -0.34972   -0.078503   -0.014191     0.43664   -0.095068   -0.076554
-0.2565    -0.30002   -0.077528   0.0095202     0.18946   -0.039201   -0.077203
-0.13827    -0.21135   -0.069083    0.021863    -0.15808   -0.012242   -0.073631
-0.029782   -0.095717   -0.056741    0.016666    -0.44294   -0.033354   -0.077853
0.05142    0.028359   -0.045697 -0.00054884    -0.58065   -0.090521   -0.089221
0.095269     0.13879   -0.036927   -0.016789    -0.60664    -0.15483    -0.10254
0.10112     0.21188   -0.033354   -0.024909    -0.61054    -0.19511    -0.10968
0.083576     0.23948   -0.036927    -0.02361    -0.63392    -0.20615    -0.10774
0.058891     0.23039   -0.046996   -0.013541    -0.64497    -0.19641   -0.098316
0.045249     0.20733   -0.057715   0.0023744    -0.59365    -0.18147   -0.081751
0.050771     0.18784   -0.063561    0.023162    -0.47542    -0.17107   -0.055441
0.076106     0.17874   -0.058689    0.048822    -0.33218    -0.16977   -0.012892
0.11086     0.17517   -0.041799    0.076431    -0.21817    -0.18504    0.044599
0.13555       0.169   -0.013866     0.10242    -0.14704    -0.22337     0.10566
0.13132     0.15406    0.015692     0.11703   -0.051544     -0.2906     0.15179
0.09397     0.12678    0.036804     0.11541     0.15179    -0.38057     0.16965
0.03583    0.091372    0.044599     0.10209     0.48147    -0.47217     0.15373
-0.020037    0.057592    0.037454    0.078704      0.8433    -0.53291     0.11021
-0.046671     0.03453    0.016991    0.047847      1.0856    -0.53778    0.049796
-0.030106    0.028034   -0.011267    0.016341      1.0898    -0.48094   -0.010293
0.025436    0.037454    -0.04115  -0.0099683     0.83388    -0.37245   -0.055116
0.10047     0.06019   -0.065835   -0.029132     0.40221    -0.22921   -0.078178
0.17615    0.096569   -0.076879   -0.037252   -0.058365   -0.068758    -0.07493
0.23656     0.13782   -0.072006   -0.033354    -0.41013    0.091047   -0.047646
0.27034     0.17712   -0.050569   -0.015815    -0.59397     0.23071   -0.008669
0.27684      0.2096   -0.018088   0.0095202    -0.62061     0.33693    0.028684
0.25572     0.22941    0.016341    0.032906    -0.54558     0.39961    0.055318
0.20928     0.22974    0.047523    0.049472    -0.41565     0.42592    0.062789
0.14659     0.20798    0.071234    0.062139    -0.22044     0.42755    0.053369
0.085525     0.16413    0.082602     0.07773     0.10534     0.41715    0.032257
0.039727     0.10599    0.081627     0.09397     0.60229     0.39442   0.0062721
0.014068    0.031932    0.068635     0.10794      1.2048     0.35609   -0.026858
-0.00022403   -0.061613    0.042326     0.11476      1.7544     0.30574   -0.070707
-0.017764    -0.16133    0.011144     0.11346      2.0873     0.25248     -0.1191
-0.033679    -0.23863   -0.011917     0.10534      2.1052     0.21025    -0.15483
-0.019388    -0.26202   -0.015815    0.099492      1.7908     0.19531    -0.15776
0.039727    -0.22337  0.00010078     0.10242       1.184     0.21188    -0.11456
0.12645    -0.14639     0.02641     0.11378     0.33725     0.25183   -0.034329
0.20635   -0.063886     0.05142      0.1271    -0.66738     0.30997    0.059865
0.25767  -0.0044465    0.061489     0.14172     -1.6977     0.38922     0.14237
0.27554    0.022188    0.053044     0.14886     -2.6396     0.48471     0.19499
0.2619    0.023812    0.032906     0.13749     -3.3808     0.56981     0.21155
0.22357    0.009845   0.0091954     0.10371       -3.82     0.61594     0.19921
0.1716  -0.0057458   -0.010293    0.055643     -3.9031     0.61399      0.1781
0.11833   -0.013216   -0.016789    0.010819     -3.6215     0.57598     0.17387
0.078055  -0.0054209   -0.007045   -0.016789     -3.0057     0.51557     0.19336
0.059541    0.019589    0.015367   -0.026533     -2.1271     0.43794     0.22747
0.059865    0.057267    0.038428   -0.022961      -1.102     0.33433     0.25475
0.067336    0.097543    0.054668    -0.01549   -0.074605     0.20083      0.2619
0.074482     0.12937    0.059541  -0.0063954     0.80432    0.051745     0.24825
0.080653     0.14302    0.056292  0.00042559       1.453   -0.086298     0.22065
0.084551     0.13684    0.046223   0.0039985      1.8554    -0.19738     0.18622
0.088448     0.11768    0.038103   0.0046481      2.0006    -0.28605     0.14984
0.089098    0.090722    0.033881   0.0010752       1.897     -0.3718     0.11248
0.077405    0.057592    0.033556  -0.0034721      1.6222    -0.46567    0.072208
0.049796    0.021538    0.033231  -0.0067202      1.3078    -0.56052    0.026735
0.0059473   -0.011592    0.033556  -0.0073698      1.0395    -0.63945   -0.021986
-0.04927   -0.039851    0.032257   -0.008669     0.80108    -0.68297   -0.075255
-0.10936   -0.064536    0.028359    -0.01614     0.52337    -0.68524     -0.1269
-0.16458   -0.084674    0.019264   -0.032705     0.16153    -0.65634    -0.16588
-0.2042    -0.09994   0.0059473   -0.056091    -0.27988    -0.60761    -0.19121
-0.22142    -0.10644   -0.008669   -0.080451    -0.77132    -0.55207    -0.20583
-0.21232    -0.10644   -0.020037    -0.10124     -1.2676    -0.49588    -0.21395
-0.18212   -0.098316   -0.027833    -0.11326      -1.685    -0.44326    -0.21752
-0.14606   -0.081101   -0.029132    -0.11326      -1.914    -0.39746    -0.21102
-0.11748   -0.058689   -0.022311   -0.099615     -1.8724    -0.35394    -0.19543
-0.10286   -0.035628  -0.0073698    -0.07428     -1.5574    -0.30749    -0.17594
-0.097666   -0.016789    0.010819   -0.041475     -1.0581     -0.2565    -0.15223
-0.092469  -0.0031473    0.023162  -0.0099683    -0.51277    -0.20225    -0.12852
-0.079802   0.0056225    0.022512    0.016991   -0.045697    -0.14801    -0.11001
-0.062587    0.009845     0.01017    0.033881     0.27164    -0.10416   -0.095717
-0.04992     0.01017  -0.0031473    0.041676     0.43145   -0.075579   -0.088247
-0.043423   0.0049729  -0.0096434    0.039727     0.47984   -0.061937   -0.086948
-0.040825  -0.0034721  -0.0076946    0.031932     0.47529   -0.052843   -0.090521
-0.039526   -0.012892   0.0020496    0.023162     0.46458   -0.038876   -0.094418
-0.039201   -0.024909    0.014392    0.017965     0.47042   -0.018088   -0.095393
-0.043748   -0.038551     0.01894    0.014717     0.49121   0.0085458   -0.095393
-0.055116   -0.050244    0.013093    0.010819     0.52044    0.038103   -0.097341
-0.071682   -0.060963  0.00075039   0.0049729     0.55227    0.069934    -0.10254
-0.089221   -0.068109   -0.013866  -0.0015233     0.58443    0.098842    -0.10676
-0.10221   -0.067134   -0.025884  -0.0047713     0.61724      0.1219    -0.10774
-0.10709   -0.060313    -0.03238  -0.0047713     0.65654     0.14172    -0.10968
-0.10676    -0.04992   -0.032705  -0.0015233     0.70233     0.15666    -0.10806
-0.10579   -0.040175   -0.028807   0.0026992     0.75203      0.1651    -0.10319
-0.10903   -0.032705   -0.021661   0.0059473     0.80205     0.16803    -0.09182
-0.10806   -0.026209    -0.01484   0.0088706     0.84947     0.17127   -0.078178
-0.10091   -0.017764  -0.0080194    0.013093      0.8904     0.18004   -0.064536
-0.086298  -0.0080194 -0.00087364    0.016341     0.91443     0.19011    -0.04862
-0.062912    0.003024   0.0046481    0.020888     0.90014     0.19271   -0.031081
-0.035628    0.014068   0.0088706    0.026085     0.82544     0.17322   -0.013541
-0.010618    0.025436    0.014717    0.032257     0.68967     0.13262 -0.00087364
0.0088706    0.042326    0.025436    0.040052     0.50355    0.082602   0.0065969
0.024786    0.061489    0.038103    0.050771     0.27554    0.039727    0.012119
0.03583    0.074806    0.042651    0.059865   -0.010618    0.016991     0.01894
0.044924    0.075456    0.036479    0.064737    -0.34517    0.014392    0.029658
0.051096    0.063438    0.021538    0.063438    -0.65958    0.027385    0.044275
0.054993    0.040702    0.003024    0.054993    -0.87493    0.043625    0.059216
0.05272    0.014717   -0.016464    0.042326    -0.94964    0.050446    0.070259
0.033231   -0.007045    -0.03173    0.029333     -0.8876    0.043625    0.072533
-0.011917   -0.020362   -0.041475     0.01764    -0.72325    0.023162    0.063763
-0.082076   -0.023285   -0.044073   0.0036737     -0.5079  -0.0060706    0.044275
-0.16165   -0.018738   -0.044723    -0.01614    -0.28865   -0.037252    0.015692
-0.23084   -0.019388   -0.046022   -0.037577    -0.10449    -0.06616    -0.01549
-0.26722    -0.03238   -0.048945    -0.04927    0.025436   -0.086298   -0.042124
-0.2513   -0.058689   -0.048945   -0.041799     0.10177    -0.09182   -0.055766
-0.17237   -0.088896   -0.034329   -0.018413     0.13847   -0.085648    -0.04927
-0.039201    -0.10319  -0.0041217   0.0078962     0.15536   -0.077853    -0.02426
0.12158   -0.084024    0.034855    0.012443     0.17745   -0.076229   0.0091954
0.28723   -0.030756    0.064737    -0.02361     0.22422   -0.081101    0.036154
0.43242    0.038103    0.073182    -0.10384     0.29827   -0.089871    0.045249
0.52629    0.095269     0.05272    -0.21427     0.37525   -0.097991    0.032257
0.54123     0.11476   0.0039985    -0.33348     0.41813    -0.10709   0.0046481
0.48244    0.089098   -0.062587    -0.43514     0.39279    -0.12008   -0.029782
0.385    0.023487     -0.1295     -0.4988     0.29438    -0.13567   -0.056091
0.29308   -0.064211    -0.17822    -0.51699     0.14659    -0.14736   -0.063561
0.22909    -0.13924    -0.20096    -0.49523   -0.010943    -0.15029    -0.04862
0.20538    -0.16068    -0.19283    -0.44326    -0.14119    -0.13762   -0.012892
0.22324    -0.11293    -0.15938    -0.36888    -0.22109    -0.10189    0.035505
0.27132  -0.0083442    -0.11131     -0.2854    -0.26592   -0.047646    0.080978
0.33758     0.12223   -0.064536    -0.20258    -0.30782   0.0075714     0.10696
0.40676     0.24078   -0.030431    -0.10709    -0.36401    0.053369     0.10924
0.45386     0.32101  -0.0083442    0.031607     -0.4189    0.086824     0.10014
0.44704     0.34959   0.0072465     0.23364    -0.43547     0.11411    0.096244
0.35512     0.32361    0.019914     0.48276    -0.39194     0.13847    0.097218
0.17095      0.2463    0.025436     0.73482    -0.29612     0.15796    0.093645
-0.072981       0.131    0.022837     0.93555    -0.17822     0.16803    0.074157
-0.31821   0.0017248    0.012119      1.0395   -0.076879     0.16348    0.038428
-0.50757     -0.1178  -0.0080194      1.0288    -0.01549     0.14626  -0.0028225
-0.60729    -0.21135    -0.03303     0.91606    0.013093      0.1232   -0.037252
-0.60859    -0.26722   -0.055766     0.73904     0.01829     0.10599   -0.049595
-0.51472    -0.27793   -0.068758     0.54155    0.014068     0.10339   -0.032055
-0.35621    -0.24545   -0.067459     0.36421   0.0085458     0.11541    0.017316
-0.19381    -0.18147   -0.051544     0.23039   0.0010752     0.13555    0.089098
-0.097666    -0.11033   -0.022311     0.14237   -0.010293     0.15341     0.16315
-0.11098   -0.054792    0.012768    0.091047   -0.029457     0.15568     0.21577
-0.22921   -0.024585    0.050771    0.061489   -0.063237     0.13327     0.23039
-0.41078   -0.013541    0.087149    0.042651    -0.11586    0.089098     0.20311
-0.58813  -0.0054209     0.11931     0.02641    -0.18212     0.03453     0.14756
-0.69304    0.008221     0.14172   0.0078962    -0.24545   -0.015165    0.083901
-0.69174   0.0069217     0.14302   -0.021986    -0.28833    -0.04927    0.029333
-0.58878   -0.041799     0.11216    -0.06681     -0.2984   -0.071682  -0.0096434
-0.42572    -0.13697     0.05142    -0.12495    -0.27599   -0.084674   -0.032055
-0.25877    -0.22077   -0.018738    -0.18277    -0.23116    -0.09182   -0.037902
-0.11586    -0.22434   -0.072981    -0.22694    -0.17367   -0.090845   -0.027183
0.0039985    -0.11651   -0.092794    -0.24773    -0.11196   -0.072331 -0.00054884
0.10924    0.066362   -0.075579    -0.24318    -0.07428   -0.027183    0.041027
0.19499     0.24533   -0.033679    -0.21849    -0.10189    0.040702    0.095594
0.24306     0.34245    0.014068    -0.18212    -0.19446      0.1206     0.15244
0.25313     0.32036     0.05142    -0.14022    -0.29093     0.19499     0.19596
0.25572     0.19499    0.059865    -0.10644    -0.31269     0.24403      0.2135
0.28496    0.020888    0.038103   -0.094093    -0.22499     0.25118     0.20083
0.36616     -0.1334  -0.0034721    -0.10709   -0.059989     0.21285     0.16413
0.49186    -0.20323   -0.042774    -0.13859     0.10696     0.15016     0.11573
0.63218     -0.1636   -0.062262    -0.16977     0.19921    0.094295    0.080003
0.75333   -0.046347   -0.053168    -0.17984     0.18654    0.070584    0.078055
0.82706    0.084226   -0.023285    -0.16588    0.092346    0.081627     0.11768
0.82219       0.169    0.010819    -0.14119   -0.022636     0.11118     0.18297
0.71565     0.18816    0.037778    -0.11943   -0.076229     0.12613     0.24273
0.50745     0.15958    0.049147    -0.11066     0.01017     0.10436     0.26807
0.23429     0.11411    0.046548    -0.11196     0.28366    0.058566     0.25215
-0.046996     0.07773    0.037454    -0.11651     0.73157    0.021538      0.2057
-0.27501     0.06019    0.026085    -0.11391      1.2792    0.021863     0.15211
-0.41013     0.06019    0.021863   -0.097991      1.8193    0.070259     0.10989
-0.44943    0.067986    0.027709   -0.066485      2.2484     0.15796    0.084876
-0.4254    0.076106    0.041027   -0.021661      2.4855     0.26287    0.067661
-0.3796    0.083251     0.06019    0.026735      2.4898     0.36031    0.050446
-0.3416    0.091372    0.083576    0.071234      2.2445      0.4295    0.030957
-0.31464     0.10631     0.10306     0.10306      1.7203     0.45613    0.014068
-0.2958      0.1284     0.11216     0.11443     0.86052     0.43274   0.0052977
-0.27209     0.14951     0.10501    0.099492    -0.36726     0.35512 -0.00087364
-0.23896     0.15536    0.081303    0.051745     -1.7763     0.22259   -0.015165
-0.19316     0.13327    0.045899   -0.025234     -3.0167    0.037454   -0.044398
-0.13177    0.088124   0.0033489    -0.11553     -3.8083    -0.18699   -0.088247
-0.05804    0.040702     -0.0405    -0.20225     -4.0386    -0.42345    -0.14022
0.016666   0.0085458   -0.073631    -0.27046     -3.7573    -0.63327    -0.18731
0.076106  0.00010078   -0.089221    -0.31529     -3.1314    -0.77814    -0.22142
0.11476   0.0091954   -0.088247     -0.3364     -2.3625    -0.84212    -0.24156
0.1284    0.023812   -0.080451     -0.3429     -1.5996    -0.83173       -0.25
0.12028    0.032257   -0.073306    -0.34387    -0.90481    -0.77392     -0.2526
0.10112    0.028034   -0.068434    -0.34679     -0.2591    -0.69791     -0.2526
0.080653    0.013418   -0.067784    -0.35199     0.37623    -0.63392     -0.2526
0.06084   -0.011267   -0.072006    -0.35849     0.99694    -0.59397    -0.25065
0.041027   -0.044073   -0.075904    -0.35816      1.5491    -0.57221    -0.24643
0.025111   -0.081751   -0.071682    -0.34225      1.9535    -0.55435    -0.23798
0.013743    -0.11261   -0.056416    -0.30749      2.1438    -0.52446    -0.22174
0.0052977    -0.13177    -0.03238     -0.2578      2.0915    -0.46827    -0.19641
0.0026992    -0.13632  -0.0073698    -0.20031      1.8291     -0.3822    -0.16425
0.0091954    -0.12982    0.016016    -0.14671      1.4442    -0.27274     -0.1295
0.021213    -0.11196    0.034206   -0.096367       1.031    -0.15029   -0.097991
0.029333   -0.087272    0.042651   -0.057065     0.64614   -0.032705   -0.079477
0.023162   -0.063561    0.039727   -0.038551     0.29145    0.061489   -0.082725
-0.0080194   -0.048945    0.024137   -0.044398   -0.053168     0.11768    -0.10611
-0.064536   -0.046996  -0.0018481   -0.068434    -0.36856     0.13457    -0.14022
-0.13697   -0.053817   -0.028482   -0.094093    -0.60891     0.12223    -0.17237
-0.20648   -0.062262   -0.050569    -0.10384    -0.73526    0.096569    -0.18991
-0.25682   -0.066485   -0.061288   -0.081751    -0.73331    0.062464    -0.19089
-0.27696   -0.060638   -0.057715   -0.022311    -0.60631    0.016341     -0.1753
-0.26527   -0.046022   -0.041475    0.080328    -0.38512   -0.038227    -0.15126
-0.22726   -0.028157   -0.019063      0.2109    -0.13827    -0.09182    -0.12592
-0.17367   -0.013216   0.0043233     0.33433    0.042651    -0.13242    -0.10384
-0.11748  -0.0044465     0.02706     0.41553    0.084876    -0.15256    -0.08305
-0.06681  -0.0028225    0.040702     0.43534   -0.029457    -0.15061   -0.067459
-0.026533  -0.0037969    0.047198     0.40286    -0.26722    -0.13632   -0.057065
0.0033489  -0.0028225    0.051096     0.33758    -0.55142    -0.12008   -0.051219
0.021538    0.003024     0.05142     0.26514    -0.78821    -0.10091   -0.047971
0.034206    0.013093    0.042001     0.20668    -0.90481   -0.072006   -0.046996
0.045249    0.027385    0.024786     0.17127    -0.86129   -0.033354   -0.045047
0.056617    0.036479   0.0046481     0.15438    -0.65991    0.014717   -0.038876
0.065387    0.037454   -0.012567     0.14724    -0.33932     0.06961    -0.03173
0.067661    0.029333   -0.023935     0.14204    0.024786     0.12678   -0.026858
0.064088     0.01764   -0.026533     0.13782     0.32946      0.1755   -0.026858
0.054344   0.0026992   -0.021661     0.13457     0.48341     0.21025   -0.027183
0.041351   -0.010618   -0.012892      0.1336     0.44346     0.23039   -0.023935
0.033881   -0.017439  -0.0018481      0.1349     0.23786     0.23981   -0.018088
0.032257   -0.016464   0.0072465     0.13587   -0.034978     0.23883    -0.01549
0.033881   -0.010618   0.0091954     0.13425    -0.26234     0.23039   -0.012242
0.033231  -0.0044465   0.0046481     0.13165    -0.36985     0.22097  -0.0080194
0.02706  0.00075039 -0.00022403     0.13067    -0.34095      0.2174  -0.0024977
0.016341   0.0049729  0.00010078     0.13132    -0.21265     0.22259   0.0039985
-0.0015233   0.0091954   0.0039985     0.13067   -0.040175     0.23234    0.010495
-0.029782    0.011469   0.0095202     0.12548     0.11054     0.24046     0.01894
-0.062912   0.0091954    0.012768     0.11931     0.18492     0.24533    0.029333
-0.090196      0.0014    0.011469     0.11378      0.1638     0.24695    0.041676
-0.10189  -0.0044465   0.0059473     0.10794     0.06896     0.24501    0.052395
-0.089546  -0.0083442   0.0010752     0.10047   -0.042124     0.23851    0.060515
-0.054792   -0.010943  -0.0024977    0.092346   -0.098641     0.22584    0.067336
-0.010618   -0.018413  -0.0080194    0.081303   -0.041475      0.2083     0.06831
0.01894   -0.034654   -0.013866     0.06831      0.1362     0.18784    0.055643
0.017316   -0.059014   -0.022961    0.052395     0.36941     0.16023    0.025436
-0.0083442   -0.088247   -0.034978    0.036154     0.54935     0.12515   -0.014191
-0.039201    -0.11651   -0.045697    0.021538     0.58216    0.083901   -0.048945
-0.057065     -0.1295   -0.050569    0.010495     0.42917    0.039402   -0.069408
-0.058689    -0.12138   -0.051544   0.0020496     0.11801   -0.013541   -0.079152
-0.054467   -0.097991   -0.052843  -0.0041217    -0.25682   -0.074605   -0.077203
-0.047321   -0.069408   -0.055441  -0.0060706    -0.56182    -0.13729   -0.060963
-0.038227   -0.047321   -0.058365  -0.0057458    -0.69921    -0.19186   -0.028807
-0.026858   -0.037252   -0.062262  -0.0047713    -0.64432    -0.22954    0.009845
-0.016789     -0.0405   -0.064861  -0.0015233    -0.45723    -0.24123    0.050446
-0.01614   -0.059014   -0.067784   0.0065969    -0.24675    -0.21947    0.090722
-0.027508   -0.092145   -0.068434    0.019914    -0.09994    -0.16912     0.13197
-0.043423    -0.13275   -0.063561    0.033231   -0.034978    -0.10351     0.17062
-0.039851    -0.16815   -0.059014    0.036804  -0.0076946   -0.035628     0.20116
0.009845    -0.17627   -0.059989    0.028034    0.040052    0.026085      0.2174
0.11671    -0.13469   -0.064211    0.012119     0.13392    0.072533      0.2161
0.25832   -0.044723   -0.059014      0.0014     0.26222    0.098193     0.19239
0.39084    0.070259   -0.040825   0.0059473     0.40384    0.096569     0.15568
0.48114     0.18524  -0.0089938    0.029333     0.55942    0.070909     0.12483
0.53311     0.28593    0.035505    0.071558     0.74294    0.042326     0.11671
0.56689      0.3733    0.086824     0.12158     0.95309    0.031932     0.13457
0.5867     0.43859     0.13425     0.16218      1.1541    0.042326     0.16933
0.58605     0.46847      0.1638     0.17939      1.2808    0.053694      0.2044
0.55292     0.44866      0.1664     0.16738      1.2643    0.038428     0.21902
0.48017     0.38207     0.14756     0.13132      1.0431   -0.011917     0.20538
0.3733     0.28496     0.11411    0.080003     0.57209   -0.079152     0.16738
0.24598     0.18134    0.072858    0.023162    -0.15223    -0.13502     0.12353
0.11801    0.092346    0.031282   -0.030106     -1.0386    -0.16198    0.092346
0.0020496    0.025761  -0.0060706   -0.073955     -1.8906    -0.15223      0.0865
-0.091495   -0.019712   -0.035303    -0.10709     -2.4642    -0.10676     0.10047
-0.15548   -0.047646   -0.051544     -0.1243     -2.5743   -0.033354     0.12158
-0.19511   -0.060963   -0.053492     -0.1269     -2.1923    0.046873       0.131
-0.22109   -0.060638   -0.038876      -0.123     -1.4667     0.10534     0.11736
-0.24188   -0.052843    -0.01614    -0.12203    -0.62028      0.1271     0.08585
-0.26234   -0.044073   0.0033489    -0.12463     0.14724     0.12385     0.05207
-0.28216   -0.037577   0.0075714    -0.12755     0.70656     0.11606    0.024137
-0.29612   -0.035628 -0.00022403     -0.1269       1.021     0.13067    0.008221
-0.30002   -0.033679  -0.0093186     -0.1204       1.107     0.17582   0.0059473
-0.29742   -0.034004   -0.014516    -0.10481      1.0015     0.24208    0.011794
-0.28865   -0.039526   -0.012567   -0.084674      0.7556     0.29957    0.014068
-0.27664   -0.053492  -0.0093186   -0.063561     0.44606     0.32069    0.010495
-0.26202   -0.071682  -0.0067202   -0.046347     0.18459     0.29762 -0.00087364
-0.24643   -0.087272  -0.0063954   -0.034329    0.080328     0.24241   -0.021986
-0.22694   -0.094743  -0.0083442   -0.021661     0.16803     0.17095   -0.047971
-0.20063   -0.092794   -0.013866  -0.0057458     0.37103     0.10144   -0.068758
-0.16588   -0.087597   -0.017764    0.014068     0.56884    0.041676   -0.077528
-0.1269   -0.081751   -0.018413    0.031932     0.68155  -0.0073698   -0.075255
-0.093769   -0.078827   -0.018088    0.047198     0.69941    -0.04927   -0.073631
-0.075904   -0.079802   -0.017439    0.056292     0.64484   -0.086298   -0.074605
-0.073955   -0.080451    -0.01484    0.058891     0.54708    -0.11326   -0.073631
-0.075579   -0.078503   -0.012242    0.055318     0.43404     -0.1308   -0.065186
-0.071357   -0.071032   -0.010293    0.047198     0.32263    -0.14411   -0.046022
-0.060313   -0.060638  -0.0063954    0.039402      0.2096    -0.16133   -0.017439
-0.046022   -0.048945 -0.00087364    0.034206    0.088124    -0.18894   0.0095202
-0.029132   -0.040175   0.0078962    0.033881   -0.027508    -0.22954    0.025436
-0.011592   -0.034329    0.015692    0.035505    -0.10026    -0.26981    0.030633
0.0052977   -0.028482    0.019264    0.033881    -0.10189    -0.29158    0.026085
0.015692   -0.020362    0.020564    0.029658   -0.034329    -0.27858    0.014068
0.01764  -0.0099683    0.020564    0.025111    0.068635    -0.22921  0.00075039
0.014392  -0.0011985    0.016341    0.017965     0.16673    -0.15581  -0.0099683
0.0078962   0.0059473   0.0056225   0.0091954     0.23039   -0.075579   -0.020037
0.0033489   0.0095202   -0.007045   0.0017248      0.2593  -0.0041217   -0.029457
0.0036737    0.010495   -0.012892 -0.00054884     0.26612    0.047847   -0.036927
0.0062721   0.0078962  -0.0089938   0.0036737     0.26384    0.073182   -0.039526
0.0085458   0.0036737 -0.00054884    0.012119     0.25475    0.066037   -0.041475
0.0033489      0.0014    0.011469    0.018615     0.23689    0.035505   -0.044398
-0.0099683   0.0023744    0.021863    0.024137     0.20603  -0.0015233   -0.050244
-0.027183   0.0017248     0.02706     0.02706     0.14756   -0.028157   -0.060963
-0.039851 -0.00054884    0.029333    0.026735    0.031282   -0.041799   -0.076229
-0.042774  -0.0057458    0.032906    0.028034    -0.17497   -0.049595   -0.087597
-0.039526   -0.014516     0.03518    0.031282    -0.46535   -0.059014   -0.091495
-0.03238   -0.025884    0.032906    0.036154    -0.77359   -0.074605   -0.088896
-0.024585   -0.034978     0.02641    0.039402     -1.0003   -0.092794     -0.0824
-0.016789   -0.039201    0.016666    0.037778     -1.0623    -0.10514   -0.074605
-0.012567   -0.039851   0.0091954    0.029983    -0.92657    -0.11293   -0.070382
-0.010943   -0.037902   0.0043233    0.016991    -0.61866    -0.12008   -0.072981
-0.0054209   -0.032705   0.0020496      0.0014     -0.2172    -0.12755   -0.076554
0.0052977   -0.020687 -0.00087364   -0.014191     0.17095    -0.12982    -0.07428
0.022188  -0.0031473  -0.0057458   -0.028807     0.45028    -0.12203    -0.06681
0.038428    0.021213  -0.0080194   -0.034654     0.57533    -0.10189   -0.057715
0.050446    0.045574  -0.0037969   -0.033679      0.5552   -0.072981   -0.054792
0.054019    0.065062   0.0039985   -0.029132     0.43892   -0.042124   -0.061613
0.048172    0.073507   0.0078962   -0.022636     0.28301   -0.017439    -0.07493
0.029983    0.065062   0.0026992   -0.020037       0.131  -0.0037969   -0.090845
0.0036737    0.039402   -0.012892   -0.021661    0.013093  -0.0024977   -0.096367
-0.018413   0.0049729   -0.030431   -0.026533   -0.057065  -0.0073698   -0.079802
-0.026209   -0.024585   -0.037252   -0.026533   -0.084024  -0.0093186   -0.034654
-0.020037   -0.044398   -0.030106   -0.019712    -0.08305   0.0020496    0.029009
-0.007045   -0.055766   -0.010618  -0.0093186   -0.071032    0.031282    0.093321
-0.0031473   -0.062262    0.011469   0.0017248   -0.059339    0.070909      0.1362
-0.019388   -0.067784    0.024137    0.012119   -0.051219     0.11216     0.15276
-0.047646   -0.073306    0.023162    0.019264   -0.045372     0.14691     0.14561
-0.070058   -0.080451    0.013418    0.021863   -0.037902     0.16315     0.12093
-0.075579   -0.088572   0.0010752    0.019264   -0.024909     0.15698      0.0852
-0.063561   -0.091495   -0.010293    0.012119   -0.010618     0.12743    0.045899
-0.038551   -0.088247   -0.019388   0.0026992   0.0046481    0.081952    0.009845
-0.0054209   -0.077203   -0.024909  -0.0037969     0.01894    0.032906   -0.014191
0.030633   -0.052843   -0.024909  -0.0080194    0.036804  -0.0050961   -0.029457
0.064737  -0.0089938   -0.018738  -0.0089938    0.057267   -0.024909   -0.038876
0.092996    0.048822  -0.0076946  -0.0099683    0.070909   -0.024585   -0.043748
0.11118    0.099492  0.00075039  -0.0093186    0.069934  -0.0093186   -0.042449
0.12255     0.12353   0.0033489  -0.0063954    0.054668   0.0088706   -0.033354
0.13132     0.11508  -0.0041217  -0.0047713    0.033881     0.01764   -0.019063
0.13684     0.08585   -0.018738  -0.0093186    0.012443    0.015367   -0.007045
0.1336    0.057267   -0.030431   -0.021012   -0.011592    0.008221  -0.0024977
0.11866    0.044275    -0.03173   -0.033354   -0.034654   0.0046481  -0.0028225
0.088773    0.049147   -0.022961   -0.043423    -0.05739     0.01017  -0.0037969
0.042001    0.063113  -0.0080194   -0.049595   -0.085973    0.019589  -0.0044465
-0.0067202    0.075131   0.0039985   -0.054142    -0.12592    0.030957  -0.0060706
-0.036602    0.080978   0.0033489   -0.059014    -0.17757    0.041027   -0.008669
-0.025559    0.086175   -0.011267   -0.062912    -0.23279    0.052395  -0.0044465
0.031932    0.093321   -0.035303   -0.060638    -0.27274    0.069285   0.0085458
0.1258    0.093321   -0.059339   -0.054467    -0.29223    0.088448    0.027385
0.22941    0.080653   -0.075579   -0.048296    -0.28898    0.099492    0.040702
0.31386     0.06019   -0.081426   -0.046022    -0.25585    0.095594    0.041676
0.35804    0.042651   -0.072981    -0.04862    -0.18731    0.079029    0.030633
0.35609    0.040377    -0.04927   -0.050894   -0.086298    0.061165    0.016341
0.31127    0.050446   -0.020687   -0.048945     0.03453    0.054019   0.0033489
0.23331     0.06019  -0.0024977   -0.047321     0.16445     0.06896  -0.0076946
0.13749    0.066037 -0.00022403    -0.04992     0.29535     0.10696  -0.0044465
0.041027    0.080328  -0.0057458   -0.051219     0.41748     0.16575    0.020564
-0.054467     0.11573  -0.0063954   -0.044073     0.51135     0.24241    0.061814
-0.15483     0.17452   0.0065969   -0.020687     0.56267      0.3327     0.10371
-0.25975     0.23526    0.036479    0.014717     0.55682      0.4243      0.1362
-0.35816      0.2619    0.073832     0.05142     0.48601     0.50128     0.15438
-0.42994     0.23104     0.10274    0.080653     0.36064     0.54708     0.15796
-0.4608     0.14529     0.11346    0.095594     0.18037     0.54838     0.14886
-0.44196    0.038753     0.10371    0.096244   -0.068758     0.50063     0.13197
-0.37635   -0.053492    0.075781    0.082927    -0.36856     0.40968     0.11183
-0.27274    -0.11813    0.038103    0.054993    -0.64886     0.28268    0.092346
-0.14736    -0.16425   0.0010752    0.016016    -0.84732     0.12223    0.076755
-0.0080194    -0.19413   -0.024909   -0.020037     -1.0123   -0.069408    0.064413
0.15081    -0.19803   -0.038876   -0.046022     -1.2809    -0.28735    0.055643
0.33075      -0.161   -0.042124   -0.062262     -1.7386    -0.52414    0.046548
0.51492     -0.0837   -0.042449    -0.07428      -2.306    -0.77067    0.033881
0.66336   0.0095202   -0.042774   -0.087922     -2.7507     -1.0152    0.013093
0.73352    0.090072   -0.041799    -0.10351     -2.8358     -1.2342   -0.018413
0.70006     0.13652   -0.036602    -0.11488     -2.4382     -1.3794   -0.057065
0.56657     0.14821   -0.026858    -0.11813     -1.6077     -1.3988   -0.089221
0.37623     0.13132   -0.013216    -0.10449    -0.55597     -1.2764    -0.10221
0.18297    0.095594  0.00010078    -0.07493     0.40871     -1.0458   -0.087272
0.024461    0.042001   0.0088706   -0.037252      1.0262    -0.77099   -0.054792
-0.09182   -0.022961    0.009845  -0.0024977      1.2214    -0.51407   -0.018738
-0.16945   -0.084024   0.0052977     0.02641      1.0622    -0.31269    0.012768
-0.21232    -0.12203  0.00010078    0.046873     0.73352    -0.17302    0.035505
-0.23019     -0.1256 -0.00022403    0.056617     0.44704   -0.081426    0.050121
-0.23863   -0.097341   0.0069217    0.055968     0.33758   -0.021012     0.05272
-0.24318   -0.052518    0.016341    0.046873     0.43957    0.022188    0.046548
-0.23896  -0.0093186    0.021538    0.028684     0.71728    0.056292    0.036154
-0.2146    0.022512    0.015042   0.0033489      1.0947    0.083251    0.022837
-0.15451    0.033231   -0.007045   -0.028157      1.4673    0.099167   0.0069217
-0.053168    0.017316   -0.038551   -0.059014      1.7336     0.10729   -0.007045
0.079029   -0.027508   -0.071682   -0.080127      1.8333     0.11736   -0.018088
0.21967   -0.090521   -0.097666   -0.085648      1.7602     0.13522   -0.026858
0.334    -0.14964    -0.11261   -0.073631      1.5488     0.15698   -0.038227
0.3824    -0.18796    -0.11553   -0.049595      1.2659      0.1716    -0.05804
0.33173    -0.20388    -0.11228   -0.021986      0.9703     0.16965   -0.087597
0.16868    -0.20843    -0.10676  -0.0015233     0.69292     0.15146     -0.1243
-0.084999    -0.21882   -0.098316    0.011469     0.41975     0.12678    -0.16133
-0.36856    -0.23831   -0.084999    0.019589     0.10826     0.10501    -0.18699
-0.61184    -0.25227   -0.071682    0.029333    -0.23214    0.096244    -0.19186
-0.76807     -0.2435   -0.061613    0.042326    -0.51504     0.10631    -0.17205
-0.83076    -0.21037   -0.055766    0.051745    -0.64432     0.13295    -0.13372
-0.82426    -0.15938   -0.046022    0.049147    -0.57481     0.16998   -0.086948
-0.78431    -0.10546   -0.026858    0.030633    -0.33088     0.20473   -0.041475
-0.73819   -0.061288  -0.0037969  0.00075039  -0.0057458     0.21772  -0.0054209
-0.69791   -0.029782    0.019589    -0.03303     0.27781     0.19693    0.015692
-0.65991  -0.0047713    0.039402   -0.067134     0.42397     0.14042    0.020888
-0.61541    0.016341    0.053369   -0.092794     0.41813    0.064737   0.0078962
-0.55564    0.033231     0.06019    -0.10189     0.30542  -0.0054209   -0.017764
-0.47769    0.042001    0.056942    -0.09182      0.1336   -0.046996   -0.046996
-0.38642    0.040702    0.045899   -0.074605    -0.10286   -0.054467   -0.070058
-0.29288    0.040702    0.032257   -0.058365    -0.46762   -0.041475   -0.086623
-0.2081    0.046873    0.016991   -0.047971    -0.98114   -0.027833    -0.10091
-0.13015     0.05272 -0.00054884   -0.039201     -1.5457   -0.026533    -0.11131
-0.050244    0.048497   -0.022311   -0.025559     -1.9867   -0.038876    -0.11358
0.031932    0.024786   -0.044723   0.0020496     -2.1391   -0.053817    -0.10254
0.10599   -0.015165   -0.059664    0.046873     -1.9383   -0.051219   -0.073955
0.15796   -0.056091   -0.062587     0.10436     -1.4466   -0.021986    -0.03173
0.17355   -0.082725   -0.050244     0.17582    -0.79698    0.031607    0.010819
0.15666     -0.0824    -0.02426     0.26742    -0.14119    0.095594    0.043625
0.12937   -0.054467    0.012768     0.38207     0.38532     0.15601    0.062789
0.11216  -0.0047713    0.059216     0.51362     0.68512     0.20473    0.066037
0.11573    0.055643     0.10631      0.6338     0.72345     0.23624    0.058891
0.13944     0.11898     0.14269     0.70526     0.53636     0.24825    0.044924
0.1703      0.1742     0.15861     0.69974     0.24013     0.24273     0.02706
0.19434     0.21025     0.15081     0.61301   -0.018088     0.22812   0.0075714
0.19953     0.22129     0.12353     0.47107    -0.13567      0.2161   -0.011917
0.18979     0.21382    0.087799     0.31192   -0.088572     0.21317    -0.03173
0.18362     0.20538    0.057267     0.17257    0.072533     0.21967    -0.04862
0.20083     0.21837    0.041676    0.074157     0.25962     0.23234   -0.058365
0.2489     0.26027    0.041027    0.013743     0.38922     0.24338   -0.059989
0.32523     0.31614    0.047523   -0.020037      0.4178     0.24955   -0.052843
0.40838     0.36096     0.05207   -0.040825       0.334     0.24728   -0.038551
0.47529     0.36973    0.048822   -0.059339     0.16478     0.23201    -0.02361
0.50745     0.32751    0.034855   -0.077528     -0.0405     0.20505   -0.010618
0.5055     0.23234    0.012443   -0.095717    -0.22467     0.16445   0.0056225
0.47302     0.10209   -0.011917    -0.10806    -0.35102      0.1206    0.025436
0.41748   -0.030431   -0.031406    -0.10936     -0.4202      0.0865    0.045249
0.34375     -0.1308   -0.040825    -0.10026    -0.45658    0.068635    0.064737
0.26092    -0.18049   -0.036927   -0.089221    -0.48289    0.058891    0.075456
0.18362    -0.17432   -0.024585   -0.082725    -0.49718    0.039078    0.070909
0.1232    -0.12333  -0.0073698   -0.084674    -0.46178  -0.0015233    0.044599
0.079354   -0.047321   0.0062721   -0.094093    -0.32341   -0.067134   0.0010752
0.051096     0.02641   0.0072465    -0.10579   -0.050569    -0.14444   -0.043423
0.049472    0.078379  -0.0028225    -0.11521     0.32686    -0.21037   -0.076554
0.092671    0.097543   -0.015165    -0.11456     0.72085    -0.23733   -0.084999
0.18069    0.086824   -0.018413    -0.10546      1.0359    -0.21102   -0.058365
0.29275    0.059541   -0.012242   -0.088896       1.211    -0.14087  -0.0044465
0.39409    0.031607  -0.0047713   -0.071032      1.2347   -0.053817    0.060515
0.4584    0.014068  -0.0011985    -0.05739      1.1405    0.025111     0.11801
0.47757    0.013093  0.00010078   -0.046996     0.98914    0.084551     0.15471
0.4571     0.02706 -0.00054884    -0.04115     0.83161     0.11963      0.1625
0.40546    0.048822      0.0014   -0.039526     0.69909      0.1297     0.13879
0.32718    0.068635   0.0072465   -0.043099     0.58768     0.11801    0.094295
0.22324    0.078704    0.016341   -0.051868     0.46523     0.10047     0.04395
0.10404    0.070584    0.021863   -0.064211      0.2934    0.089423 -0.00087364
-0.011267    0.040702    0.014717   -0.077203    0.052395    0.092671   -0.032705
-0.10709  -0.0015233  -0.0024977    -0.09117    -0.24578     0.10599   -0.050569
-0.16718    -0.04115   -0.022636    -0.10059    -0.55077     0.12255   -0.054142
-0.18277   -0.065186   -0.034654    -0.10091    -0.78756     0.13327    -0.04862
-0.15613   -0.068109   -0.028807   -0.089871    -0.87948      0.1297   -0.034004
-0.10481    -0.04992   -0.011592   -0.068434    -0.77749     0.10631   -0.013216
-0.058689   -0.020687   0.0075714   -0.043423    -0.49361    0.067661    0.011794
-0.043099    0.011469    0.021863   -0.020362    -0.10286    0.019264    0.030308
-0.060313    0.039727    0.030308  -0.0080194     0.28463    -0.03303    0.037454
-0.097666    0.062464     0.03518  -0.0080194     0.57566   -0.091495    0.033881
-0.13924    0.075131    0.033881   -0.021012     0.75625    -0.15905    0.020239
-0.16653    0.076431     0.02706    -0.04927     0.88488    -0.23733 -0.00087364
-0.17497    0.065387    0.012119   -0.089546      1.0226    -0.32438   -0.029457
-0.17822    0.043625  -0.0080194    -0.13177      1.1798    -0.40428   -0.062912
-0.19738    0.012768   -0.026533    -0.16653       1.286    -0.45366   -0.090521
-0.24221   -0.027508   -0.039201    -0.18634      1.2262    -0.45528    -0.10286
-0.30229   -0.072006   -0.046671    -0.18601     0.89982    -0.41695   -0.095717
-0.35556    -0.11358   -0.054467     -0.1727     0.29925    -0.36628   -0.076554
-0.38252    -0.15158   -0.070058    -0.15678    -0.43612     -0.3377   -0.060313
-0.37538    -0.18829    -0.10026    -0.14899     -1.0841    -0.34582   -0.058689
-0.3351    -0.22759    -0.13697    -0.14769     -1.5142    -0.37862   -0.076879
-0.26851    -0.26429    -0.16782    -0.14639     -1.7181    -0.40851    -0.10514
-0.18601    -0.28995    -0.18569    -0.13859     -1.7672    -0.40688    -0.12365
-0.092145    -0.29125    -0.18959    -0.13404     -1.7259    -0.36141     -0.1178
0.011469    -0.25877    -0.18147    -0.14606     -1.6031    -0.27728     -0.0824
0.11898    -0.19576    -0.16295    -0.17107     -1.3758     -0.1714   -0.021661
0.21123    -0.11683    -0.13989    -0.18666     -1.0597   -0.062262    0.046548
0.26319   -0.042774    -0.10903    -0.15743     -0.7161    0.039727     0.10371
0.26514    0.012443   -0.070058   -0.058365    -0.41728     0.13067     0.13717
0.22519    0.039402   -0.028807     0.09462    -0.19771     0.20246     0.14269
0.17095    0.042326    0.012443     0.24046   -0.030431     0.25475     0.12775
0.12255    0.032582    0.054668     0.31127     0.14367     0.29308     0.10242
0.084876    0.021538    0.097543     0.27944     0.35934     0.32881    0.079679
0.05207    0.016666     0.13035     0.17225     0.56819     0.36421     0.06831
0.012768    0.022837     0.14399    0.051096     0.67667     0.39117    0.077405
-0.032705    0.035505     0.13522   -0.036927     0.63055     0.39604     0.10339
-0.07428    0.045899     0.11086   -0.072006     0.45126     0.36876     0.13327
-0.09929    0.047198    0.077405    -0.05804      0.2109     0.30802     0.14984
-0.10059    0.038103    0.044599   -0.011592   -0.020362     0.22097     0.14854
-0.084999    0.021538    0.022837    0.042651    -0.22726     0.11833     0.13165
-0.070058      0.0014    0.013743    0.089748    -0.41533     0.01017     0.10566
-0.063886   -0.021986    0.014392     0.12223    -0.56571   -0.098316    0.076106
-0.06681   -0.048296     0.01829     0.13814    -0.61411     -0.2029    0.047198
-0.070058   -0.073955    0.021213     0.14074    -0.49848    -0.29807    0.022512
-0.070058   -0.095068    0.019264     0.13522    -0.20063    -0.37473   0.0056225
-0.068434    -0.10871    0.010495     0.12678     0.22844    -0.42117  -0.0028225
-0.076554    -0.11521   -0.007045     0.11736     0.68447     -0.4241  -0.0050961
-0.10059    -0.11131   -0.030106     0.10469      1.0463     -0.3835  -0.0057458
-0.13242   -0.085973   -0.052193    0.089748      1.2233    -0.30717   -0.012242
-0.15743   -0.033679   -0.064536    0.073832      1.1996    -0.21362   -0.024585
-0.16685    0.039402   -0.063561    0.056617      1.0271    -0.11878   -0.037902
-0.16328     0.11118    -0.04927     0.04395     0.78484   -0.028807   -0.046671
-0.15029     0.15828   -0.026858    0.037129     0.53766    0.058241    -0.04115
-0.13469     0.17192  -0.0076946    0.038753     0.32426     0.14529   -0.017114
-0.11878     0.15828   0.0049729    0.044599     0.16023     0.22324    0.021538
-0.098641     0.13944   0.0095202    0.046548     0.04395     0.28203    0.061489
-0.071032     0.13327   0.0075714    0.042975   -0.020687     0.31289    0.091372
-0.035303     0.14626   0.0043233     0.03518   -0.026533     0.31646     0.10339
0.008221     0.16835   0.0062721    0.031282    0.025436     0.30185     0.10371
0.056292     0.17615    0.014068    0.037454      0.1232     0.28171     0.10112
0.099167     0.15633    0.024786    0.054019     0.23818     0.26352    0.099817
0.1271     0.11606     0.03518     0.07708     0.33985     0.25248    0.096893
0.131     0.07773    0.042651    0.098517     0.40871     0.24728    0.088773
0.10989    0.059216    0.050446     0.10826     0.44184     0.24403    0.073507
0.06961    0.061165    0.059865     0.10209     0.44411     0.23396    0.054019
0.01764    0.073507    0.062464    0.079679     0.41423      0.2122    0.034855
-0.038227    0.078055    0.054668    0.042326     0.33693     0.17582    0.017316
-0.093444    0.063113     0.03518  -0.0050961     0.18589     0.12255  -0.0011985
-0.14022    0.027385    0.013743   -0.053168   -0.060963    0.054993   -0.017439
-0.1701   -0.019388  -0.0021729   -0.090196    -0.39746   -0.023285   -0.028482
-0.18114   -0.062262   -0.010943    -0.10774    -0.76872    -0.10221    -0.03303
-0.16912   -0.084674   -0.014191    -0.10351     -1.0867    -0.17075   -0.029457
-0.13177   -0.083375    -0.01484   -0.077528      -1.265    -0.21752   -0.014191
-0.067784   -0.068758  -0.0099683   -0.036602     -1.2628    -0.23246    0.012119
0.020239   -0.050569    0.003024    0.014392     -1.0981    -0.21525    0.044275
0.11768    -0.03238    0.021863    0.055968    -0.84148    -0.17335    0.078379
0.20895   -0.011592    0.039078     0.07708    -0.57383      -0.123     0.10956
0.27684    0.010495    0.049796    0.074482    -0.34939   -0.079802     0.13295
0.30964    0.023162    0.050771    0.055318    -0.20258   -0.052843     0.14594
0.29957    0.011794     0.04395    0.028034     -0.1753   -0.039851     0.14659
0.24825   -0.022961    0.031932 -0.00087364    -0.29288   -0.036927      0.1336
0.16738   -0.064536    0.017316   -0.022961    -0.51407   -0.038227     0.11118
0.080653   -0.087597   0.0049729   -0.032705    -0.72065   -0.044073    0.084226
0.01829   -0.078827  -0.0031473    -0.03173    -0.79763   -0.056091     0.06019
0.0023744   -0.042124  -0.0037969   -0.024585    -0.71123   -0.068434    0.037129
0.03453    0.009845    0.003024   -0.019063    -0.48873   -0.069733    0.012443
0.098193    0.066362    0.014392   -0.018738    -0.17659   -0.052193   -0.013216
0.16608     0.11638    0.022837   -0.024585     0.14334   -0.020362   -0.034654
0.20505     0.14756    0.019914   -0.037252     0.32686  0.00010078   -0.050244
0.18589     0.14886  -0.0034721    -0.05804     0.26449   -0.017439   -0.063561
0.10566     0.10826   -0.044073   -0.085973    0.034206   -0.080127   -0.082725
-0.01484    0.033881   -0.087272    -0.11293    -0.15288    -0.16328    -0.11423
-0.13697   -0.058689    -0.11098    -0.12755     -0.1321    -0.23084    -0.15873
-0.22759    -0.15029    -0.10286    -0.11878     0.11216    -0.25585    -0.20648
-0.27404    -0.22434   -0.063561   -0.084999      0.4597    -0.23214     -0.2474
-0.2893    -0.26527   -0.015165   -0.036602     0.73709    -0.17757    -0.27664
-0.2906    -0.26916    0.023162   0.0088706     0.78776    -0.11261    -0.28865
-0.27761    -0.24708     0.03518    0.033881     0.54188   -0.052193    -0.27923
-0.23214     -0.2146    0.013418    0.028684    0.070909  -0.0031473    -0.24773
-0.13924    -0.18374   -0.035628  0.00010078    -0.44781    0.029333    -0.19413
-0.0063954    -0.15029   -0.091495   -0.034004    -0.82459    0.047198    -0.12138
0.131    -0.10254    -0.13177   -0.059664    -0.93762    0.057267     -0.0405
0.22649   -0.031081    -0.14736   -0.073955    -0.78139    0.058241    0.028034
0.2515    0.055643    -0.13697   -0.092469    -0.45398    0.046873    0.068635
0.21415      0.1349    -0.11066     -0.1282   -0.098641    0.028684    0.081303
0.14724     0.17842   -0.077853    -0.18212     0.15633    0.014717    0.080653
0.081303     0.16933    -0.04862    -0.24091      0.2489    0.012768    0.080003
0.021863     0.10924   -0.026858    -0.29093     0.19141    0.020564    0.088448
-0.047321    0.021213   -0.010943    -0.32568    0.062789    0.031607    0.096893
-0.13892   -0.059014 -0.00054884    -0.34127   -0.045697    0.037454    0.094295
-0.23766    -0.10189  -0.0018481     -0.3442   -0.084674    0.034855    0.073182
-0.31236    -0.09994   -0.021661    -0.34355   -0.042774    0.016991    0.037129
-0.339    -0.06551   -0.054792    -0.33997    0.074482   -0.012567  -0.0034721
-0.31204   -0.017764   -0.089221    -0.32568     0.24403   -0.038876   -0.032705
-0.23344    0.023812    -0.10871    -0.29288     0.41748   -0.046347   -0.043099
-0.11228    0.055318    -0.10579    -0.23668     0.54188   -0.033354   -0.033679
0.038428    0.090397   -0.077528    -0.14087     0.59222  -0.0031473   -0.010943
0.20343     0.14984   -0.026858    0.020239     0.56624    0.035505    0.013743
0.36194     0.23689    0.036804     0.25215     0.46035     0.07773    0.030957
0.49153     0.32653    0.095269     0.52629     0.26774     0.11541    0.038103
0.57696     0.38727     0.13295     0.79361    0.016666     0.13977    0.037778
0.61009     0.39734     0.14724      1.0005    -0.20063     0.14302    0.029009
0.58605     0.35219     0.14074      1.1035    -0.26916     0.12223    0.011469
0.5029     0.25962     0.12093      1.0876    -0.11456    0.082602    -0.01484
0.3746     0.14269    0.094945     0.96835     0.25215    0.030633   -0.043423
0.22422    0.027385    0.067986     0.78646     0.71955   -0.017439   -0.065186
0.079354   -0.063561    0.045574     0.59028      1.1428   -0.045047   -0.077528
-0.035628    -0.11813    0.032582      0.4165      1.4052   -0.047971   -0.076229
-0.11521    -0.13534    0.031282     0.28106      1.4666    -0.03238   -0.063561
-0.17465    -0.12463    0.035505     0.18524       1.362   -0.019063   -0.046996
-0.23376    -0.10871    0.037778     0.11833      1.1629   -0.025234   -0.036278
-0.30165    -0.10351    0.032257    0.067661     0.93262   -0.056741     -0.0405
-0.37245    -0.10774    0.020239    0.025436     0.69519    -0.10319   -0.054792
-0.42994    -0.11196   0.0075714   -0.010943     0.41813    -0.14639   -0.071682
-0.45853    -0.10709  0.00010078   -0.041799    0.079679    -0.17432   -0.080451
-0.45366   -0.086298   0.0010752   -0.071032    -0.30035    -0.18114   -0.076879
-0.42442   -0.055766   0.0072465   -0.092469    -0.66868    -0.17042   -0.068434
-0.3809   -0.031406    0.012768    -0.10351    -0.96003    -0.14931   -0.061613
-0.32731   -0.024585    0.016341    -0.10481     -1.1273     -0.1256    -0.05739
-0.26494   -0.037902     0.01894    -0.10579     -1.1621    -0.10189   -0.059014
-0.19868   -0.064211    0.019589    -0.10709     -1.0984   -0.079802   -0.064536
-0.13502   -0.089546    0.015367    -0.10676    -0.98374   -0.058365   -0.067784
-0.076229    -0.10319    0.011469    -0.10416    -0.85772   -0.036278    -0.06551
-0.027508   -0.095717    0.012768    -0.10124    -0.71967   -0.013866   -0.061613
0.0056225   -0.073955    0.020564    -0.09994    -0.50985   0.0052977   -0.060638
0.019589   -0.050569    0.027709    -0.10124    -0.15191     0.01829   -0.063561
0.015367   -0.034978    0.032906    -0.10286     0.38045    0.019264   -0.070382
0.0052977   -0.020362    0.040052    -0.10286      1.0249   0.0085458   -0.081426
-0.0015233  -0.0047713    0.048497    -0.09929      1.6615  -0.0047713   -0.095393
0.00010078   0.0062721     0.05272   -0.094093      2.1568  -0.0057458    -0.11098
0.009845   0.0020496    0.045574   -0.092145      2.3991    0.011469    -0.11845
0.027385   -0.024909    0.030957   -0.089221      2.3209    0.038428    -0.11261
0.047847   -0.071682    0.016341    -0.08305      1.9405    0.062789   -0.094743
0.070259    -0.12885   0.0039985   -0.076879      1.3191    0.074806   -0.072656
0.099167    -0.17822   -0.007045   -0.079152     0.46425    0.074806   -0.056741
0.13782    -0.19803    -0.02361   -0.096042     -0.6323    0.054993   -0.051868
0.1755     -0.1753   -0.043423    -0.12722     -1.8558   0.0043233   -0.060638
0.18492    -0.11488   -0.060638    -0.16912     -2.9761   -0.081751   -0.084349
0.14594   -0.039201   -0.072981    -0.21427      -3.703    -0.18959    -0.11196
0.062139    0.025111   -0.079802     -0.2487     -3.8222    -0.28378    -0.12073
-0.047321    0.061489   -0.081751    -0.26104     -3.3327    -0.32666   -0.087597
-0.15743    0.067986   -0.073306    -0.24415     -2.4538    -0.30359  -0.0080194
-0.24675    0.055968   -0.052518    -0.20096     -1.4937    -0.23538     0.10047
-0.30035    0.037454   -0.025234    -0.14509    -0.70538    -0.15873     0.20895
-0.31724    0.019589  -0.0021729   -0.094093    -0.22337    -0.10514      0.2895
-0.30424  0.00010078    0.011794   -0.063886   -0.057065   -0.090196     0.32556
-0.27241   -0.024909    0.015692   -0.059664    -0.11715    -0.11651     0.31614
-0.23603   -0.052518    0.011469   -0.072656    -0.27534     -0.1701     0.27067
-0.20388   -0.070707   0.0069217   -0.086948     -0.4137    -0.22434       0.207
-0.17335   -0.073631   0.0039985   -0.092145    -0.47802    -0.24513     0.14626
-0.13957   -0.059664   0.0078962   -0.087272    -0.47022     -0.2081     0.10209
-0.10156   -0.032705     0.01829   -0.073955    -0.41111    -0.11033    0.077405
-0.063237  0.00075039    0.030633   -0.059989    -0.33055    0.028684    0.066686
-0.034978    0.033556    0.039402    -0.04927    -0.25487      0.1729    0.061165
-0.021986    0.058566    0.038103   -0.045697    -0.18796     0.28918    0.054344
-0.019388    0.074482    0.025111   -0.047646   -0.096367     0.35479    0.042651
-0.019712    0.084876   0.0091954   -0.054142    0.081952     0.36583    0.028034
-0.015165    0.092671 -0.00054884   -0.064536     0.37558      0.3392     0.01894
-0.0031473     0.10469  0.00042559   -0.075579     0.74943     0.29762     0.01829
0.014068     0.11995   0.0072465   -0.085648      1.1148     0.26449    0.025436
0.030633     0.13035     0.01017   -0.089221      1.3822     0.25443     0.03583
0.048172     0.12775   0.0059473   -0.080127      1.4942     0.26482    0.043625
0.072533     0.11054  -0.0034721   -0.059989      1.4396     0.28301     0.05272
0.10177    0.081627   -0.014516   -0.034329      1.2571      0.2973    0.059865
0.1323     0.05142    -0.02361  -0.0063954       1.006     0.29405    0.064413
0.16283    0.029009   -0.025234    0.019264     0.74164     0.26742    0.062464
0.18914    0.019914   -0.020362    0.033556      0.5042     0.21642    0.053369
0.20635    0.020564   -0.013216    0.029983     0.30932     0.14951    0.035505
0.21123    0.025761   -0.011592    0.008221     0.15601    0.079029    0.015367
0.19758    0.029658   -0.016789   -0.022636     0.05207    0.012119  -0.0028225
0.16283    0.030957   -0.029132   -0.055116   0.0010752   -0.042449   -0.014191
0.11866    0.028034   -0.041475   -0.078827  -0.0015233   -0.079802   -0.019712
0.078055    0.019589    -0.04862   -0.087922    0.019914   -0.096042   -0.022311
0.050121  0.00075039   -0.050894   -0.084349    0.023812   -0.094418   -0.022636
0.038103   -0.033354   -0.051219   -0.069408   -0.026533   -0.073631   -0.023285
0.033881    -0.08305   -0.054467    -0.04927    -0.14541   -0.036602   -0.021012
0.03518    -0.13599   -0.059014   -0.029782      -0.301   0.0059473    -0.01484
0.042326    -0.16198   -0.055766   -0.010618    -0.43092    0.039727  -0.0054209
0.054344    -0.13664   -0.031406   0.0088706    -0.47769    0.054019  -0.0018481
0.06896   -0.059014    0.016991    0.029658    -0.42767    0.046548   -0.008669
0.078704    0.048172    0.079029     0.05272    -0.31561    0.021213    -0.03303
0.081627     0.14756     0.13327    0.070259    -0.17659   -0.013866   -0.075255
0.073832     0.20376     0.15276    0.072858   -0.023285   -0.050569     -0.1295
0.054993     0.18719     0.11931    0.053369     0.14009   -0.081426    -0.18471
0.028684    0.092346     0.02706    0.011144     0.31451   -0.098641    -0.22597
0.0056225   -0.051868    -0.10221   -0.042774     0.51654   -0.095717    -0.24318
0.0049729    -0.19413    -0.22402   -0.088896      0.7608   -0.061288    -0.23051
0.03518    -0.27144     -0.2906    -0.09994      1.0258     0.01017    -0.18309
0.092996    -0.23863    -0.27241   -0.060638        1.26     0.10956    -0.10741
0.16185   -0.096042    -0.17432    0.021213      1.3977     0.22065   -0.020687
0.22974     0.10112   -0.034978      0.1232      1.4003     0.32328    0.062464
0.28496     0.27099    0.093321     0.21577      1.2643     0.39669     0.13879
0.30542     0.35479     0.17452     0.28138     0.99661     0.43145     0.19986
0.28073     0.34277     0.19563     0.31289     0.61431      0.4282     0.24176
0.22422     0.26677      0.1677     0.31451     0.16575     0.39864     0.26255
0.18297     0.17127     0.11086     0.29405    -0.26137     0.35447     0.26742
0.19856    0.094295    0.049472     0.26482    -0.56409       0.296      0.2593
0.27554    0.049472 -0.00087364     0.23461    -0.67517      0.2174     0.23818
0.37525    0.032582   -0.035303      0.2083    -0.62483     0.11021     0.20148
0.44021    0.029333   -0.054467     0.18004     -0.5537   -0.032055     0.15211
0.4308    0.028359   -0.059014     0.14561    -0.64302     -0.2042    0.095594
0.35804    0.032906    -0.04862     0.10404    -0.94639    -0.38999    0.045249
0.26742    0.050121   -0.032055    0.067661     -1.3423    -0.57383    0.014392
0.19271    0.078379   -0.014191      0.0433     -1.6467    -0.72974   0.0023744
0.13684     0.10501  0.00042559    0.029333     -1.7266    -0.83465   0.0052977
0.084876     0.11281    0.009845    0.022837     -1.5561    -0.86356    0.016016
0.031282    0.093321    0.011144    0.015042     -1.2004    -0.80932     0.02706
-0.016789    0.057267   0.0023744   0.0056225    -0.77327    -0.69239    0.031282
-0.045372    0.025436  -0.0083442  -0.0057458    -0.39032     -0.5537     0.02706
-0.046996    0.016991   -0.019063   -0.020362    -0.12527    -0.42865    0.011794
-0.020687    0.028034   -0.028482   -0.038551    0.034206    -0.33445   -0.011917
0.028034    0.039727   -0.039201   -0.057065     0.15666    -0.26722   -0.034329
0.081952    0.038103   -0.050244   -0.075255     0.30412    -0.20875   -0.044398
0.11963    0.015042   -0.058365   -0.088572     0.48309    -0.14152   -0.036927
0.11736   -0.029457   -0.062912   -0.090521      0.6312   -0.064536   -0.018738
0.069285   -0.083375   -0.062912   -0.080127     0.67505    0.014717  -0.0018481
-0.017439     -0.1269   -0.058689   -0.061613     0.57436    0.080653   0.0046481
-0.12105    -0.14314    -0.04862   -0.046022     0.33303     0.11963  -0.0018481
-0.2172     -0.1321   -0.032055   -0.041799 -0.00054884     0.13197   -0.017439
-0.29223    -0.10481   -0.013866   -0.054467    -0.32438     0.11898   -0.037252
-0.34647   -0.078503  -0.0037969   -0.077528    -0.52804    0.088124   -0.055441
-0.37992   -0.065835  -0.0044465    -0.10221     -0.5537    0.053694   -0.060313
-0.38934    -0.06681   -0.011917    -0.11975    -0.41598    0.030308   -0.052193
-0.36921   -0.070382    -0.01614    -0.12073    -0.17887    0.029658   -0.037252
-0.32146   -0.068434    -0.01484   -0.097341      0.0852    0.057592   -0.021661
-0.25325   -0.059014  -0.0076946   -0.053492     0.32426     0.10794  -0.0093186
-0.18439   -0.042449   0.0043233  -0.0041217      0.5068      0.1664 -0.00087364
-0.13112   -0.021012    0.020564    0.039727     0.61853     0.21642    0.003024
-0.098641  0.00075039    0.042651    0.069285     0.66141     0.24566   0.0017248
-0.087597     0.01764    0.064088    0.082927     0.65037     0.24923  -0.0021729
-0.095393    0.029009    0.078704    0.082277     0.60002     0.23624  -0.0096434
-0.12398    0.028684    0.080653    0.071558     0.52109      0.2187    -0.02426
-0.17075    0.011794     0.06831    0.056942     0.42138     0.19726   -0.047321
-0.22791   -0.020037    0.045249    0.044275     0.31029     0.17062    -0.07493
-0.28638   -0.056091     0.01829    0.037778     0.19271     0.13944    -0.10416
-0.32633   -0.085648   -0.008669    0.039402    0.065062     0.10566    -0.12787
-0.33315    -0.09994   -0.032055    0.049147   -0.079802    0.076431    -0.13502
-0.30262   -0.094093   -0.044398    0.057592     -0.2461    0.052395    -0.11748
-0.2474    -0.07428   -0.044073    0.056617    -0.41663    0.027385    -0.07428
-0.18374   -0.057065   -0.035628    0.043625    -0.52349  -0.0083442   -0.020362
-0.1243   -0.052843   -0.023285    0.024137    -0.49068    -0.05739    0.025436
-0.082076   -0.061288   -0.011592   0.0069217    -0.30294    -0.11261    0.049796
-0.068758   -0.072006 -0.00022403  -0.0024977   -0.021337    -0.15548    0.048497
-0.086298   -0.076229    0.014392 -0.00022403     0.25735    -0.17367    0.025761
-0.12398   -0.072006    0.032582    0.015042     0.44119    -0.16685  -0.0099683
-0.16393   -0.070382     0.05272    0.041676     0.49316    -0.14769    -0.04992
-0.19413   -0.085973     0.06961    0.071883     0.43209    -0.13275   -0.089871
-0.20875    -0.12365    0.078704    0.094295     0.30867    -0.12852    -0.13177
-0.20875    -0.17075    0.072858     0.10501     0.18167     -0.1334    -0.17627
-0.19868    -0.20972    0.049472    0.099167    0.086175    -0.13957    -0.22012
-0.17887    -0.22272    0.011469    0.076106    0.030308    -0.14476     -0.2552
-0.14509    -0.19511   -0.036602    0.035505   0.0069217    -0.14964    -0.28086
-0.098965     -0.1217   -0.093769   -0.019063   0.0095202    -0.16068     -0.2984
-0.053492 -0.00087364    -0.15158   -0.077203    0.045249    -0.17335    -0.30619
-0.023285     0.15536    -0.19121    -0.12138     0.12028    -0.16977    -0.29288
-0.011917     0.31646    -0.19738    -0.13112     0.22259    -0.13437    -0.24643
-0.011917     0.44346     -0.1701    -0.10351     0.29048   -0.068758    -0.16068
-0.016789      0.5068    -0.11066   -0.043423     0.22714    0.014717   -0.045697
-0.033679     0.49803   -0.028807     0.03583   0.0049729    0.098842     0.07708
-0.049595      0.4217    0.061489     0.11606    -0.28605     0.16348     0.19401
-0.03303     0.30055     0.14042     0.18232    -0.50075     0.19921     0.29762
0.02641     0.16218     0.18914     0.22649    -0.53486     0.20116     0.37655
0.10566    0.030308     0.19986     0.24533    -0.37733     0.17712     0.42105
0.16185   -0.088572      0.1781     0.24046   -0.099615     0.14009     0.42625
0.15861    -0.20031     0.13522     0.21642     0.18751     0.10242     0.39734
0.084226    -0.31431    0.083901     0.18264     0.40059    0.074157     0.34017
-0.026533    -0.43059    0.036479     0.14789     0.52369    0.056942      0.2593
-0.098641    -0.52836  -0.0018481     0.11866     0.60262     0.05272     0.17322
-0.059339    -0.57091   -0.029457    0.097868     0.68512    0.073182     0.10891
0.11508    -0.53648    -0.04992    0.084551     0.75853     0.12255    0.082927
0.38175    -0.41793   -0.064211     0.07708     0.77444     0.19304    0.093321
0.65816    -0.23636   -0.077853    0.071558     0.69746     0.26612     0.12353
0.87773   -0.025234   -0.093119    0.057592     0.51914     0.32686     0.15244
1.0213     0.17485    -0.10741    0.030633     0.26449     0.37233     0.17127
1.0931     0.33011    -0.11683  -0.0089938 -0.00087364     0.40741     0.18329
1.1009     0.41326    -0.11813   -0.050569    -0.17497      0.4282     0.19011
1.044      0.4308    -0.10676   -0.087272    -0.16295     0.43372     0.18979
0.92125     0.40871     -0.0824    -0.10936    0.074157     0.42852     0.18427
0.74131     0.37915   -0.048296    -0.11261     0.48764     0.41943     0.18134
0.53636     0.36129  -0.0096434   -0.098965     0.95016     0.40871     0.19369
0.34375     0.35771    0.028034   -0.071357      1.2919     0.39734        0.22
0.18589     0.36291    0.054668   -0.039201      1.3724     0.37785     0.24728
0.067336     0.36324    0.070259   -0.011267       1.107      0.3379     0.25962
-0.021986     0.34764    0.076431   0.0046481      0.5003     0.27554     0.24468
-0.084349     0.31127    0.074157   0.0049729    -0.37343     0.19953     0.20311
-0.11715     0.25637    0.062139  -0.0067202     -1.4161     0.10826     0.14367
-0.1191     0.18979    0.044924   -0.027508     -2.5253   -0.012567    0.078704
-0.10091     0.12158     0.02706   -0.052518      -3.514    -0.17724    0.019589
-0.080451    0.057267    0.011794   -0.075904     -4.1198    -0.37668   -0.028157
-0.076229  0.00010078 -0.00087364   -0.089221     -4.1103    -0.57059   -0.061288
-0.088896   -0.052518   -0.013216   -0.089221     -3.4273    -0.71025   -0.081751
-0.11033    -0.10189   -0.025884   -0.075579     -2.2456     -0.7632   -0.098965
-0.12463    -0.14834   -0.035953   -0.056091    -0.89052    -0.73429     -0.1191
-0.123    -0.18569   -0.040175   -0.038876     0.26579    -0.65666    -0.14736
-0.11261    -0.20583   -0.039526   -0.028482     0.93295    -0.57611    -0.18374
-0.12203    -0.20908   -0.038551   -0.031081       1.071    -0.52706    -0.22402
-0.17659    -0.19933   -0.042774    -0.04992     0.82576    -0.52706    -0.26592
-0.28898    -0.18504    -0.04862   -0.080127     0.44054    -0.55727    -0.30359
-0.43871    -0.16782    -0.04992    -0.11001     0.13587    -0.57741    -0.33023
-0.58455    -0.14736   -0.046022     -0.1308    0.031282    -0.55305    -0.33672
-0.68589    -0.12138   -0.036927    -0.13924     0.12158    -0.47509    -0.32048
-0.72097   -0.089546   -0.025884    -0.13697     0.31062    -0.35751    -0.28963
-0.69076   -0.059014   -0.017439    -0.12787     0.48017    -0.23214    -0.25455
-0.61768   -0.032705  -0.0096434    -0.11521     0.55065     -0.1269    -0.22629
-0.53258    -0.01484  -0.0015233    -0.10546     0.50518   -0.053168    -0.21167
-0.45755  -0.0073698   0.0075714   -0.096367     0.37428   -0.010293      -0.212
-0.40234  -0.0083442    0.012119   -0.088247     0.19661   0.0065969    -0.22597
-0.36856   -0.012892    0.013743   -0.081426    0.014068   0.0059473    -0.24253
-0.34582   -0.020037    0.013743   -0.072981    -0.13502 -0.00054884    -0.24935
-0.32308   -0.027183    0.012443   -0.064536    -0.21979 -0.00054884    -0.23831
-0.29288   -0.037577    0.015042   -0.053168    -0.22824    0.013418     -0.2133
-0.25065   -0.045697    0.025436   -0.036927    -0.17075    0.036479    -0.17822
-0.20258   -0.047646    0.042001   -0.015815   -0.077528    0.059216    -0.14184
-0.15483   -0.042124    0.062139   0.0075714    0.016991    0.072858    -0.11033
-0.11196   -0.029457    0.078704    0.029009    0.087474    0.076106   -0.086948
-0.07493   -0.013216      0.0865    0.042326     0.12548    0.071558   -0.071682
-0.044723      0.0014    0.080003    0.045899     0.13782    0.063763   -0.061288
-0.018413    0.009845    0.058891    0.041351     0.13392    0.053369   -0.054142
0.0017248    0.010819    0.031932     0.03453     0.12515      0.0433   -0.042124
0.016341   0.0039985    0.011144    0.029009      0.1206    0.038753   -0.024909
0.026085  -0.0034721   0.0052977    0.026085     0.12515    0.040052  -0.0063954
0.030957   -0.011592    0.010495    0.025111     0.13847    0.042001    0.009845
0.031282   -0.018738    0.019264     0.02706     0.15763    0.040377    0.020564
0.033556   -0.023285    0.022837    0.029009     0.17517    0.034855     0.02641
0.039727   -0.024585    0.016341    0.029658     0.18362    0.031932    0.030957
0.044599   -0.019712    0.003024    0.026735     0.18232    0.033881    0.031932
0.0433  -0.0099683  -0.0080194    0.021538     0.17387    0.039078    0.029983
0.034206   0.0052977   -0.014516    0.017316     0.16348    0.042651    0.029333
0.025111    0.022512   -0.013541    0.015042     0.15763    0.037454    0.028034
0.022837    0.036479  -0.0073698    0.016341     0.15796    0.019264    0.023487
0.031607    0.043625   0.0020496    0.020888     0.16218  -0.0080194    0.018615
0.045249    0.040377    0.011794    0.028684     0.16185   -0.039201    0.016016
0.058891    0.028034    0.016991    0.038103     0.15049   -0.062262    0.021213
0.066037    0.012119    0.020239    0.050121      0.1232   -0.064211    0.034206
0.067986  -0.0037969    0.020564     0.06019    0.081303   -0.044073    0.053044
0.066686   -0.016464     0.01894    0.064737    0.037454  -0.0083442    0.071234
0.067661   -0.024585    0.016016    0.064413   0.0095202    0.029009    0.079029
0.06831    -0.03303    0.013093    0.062139    0.012119    0.055318    0.078379
0.06831   -0.044073   0.0091954    0.057592     0.04395    0.062464     0.06896
0.063763   -0.056741   0.0033489    0.053369    0.098193    0.050121     0.05207
0.056617   -0.068434  -0.0018481    0.051096     0.16868    0.027385    0.033231
0.054668   -0.070707  -0.0037969    0.049147     0.24436   0.0062721    0.016991
0.063113   -0.060963 -0.00054884    0.046873     0.31516  -0.0031473   0.0078962
0.080978   -0.041799   0.0065969    0.045574     0.37168   0.0010752   0.0065969
0.097543   -0.021012    0.016991    0.044599     0.40806    0.014068    0.012443
0.10144  -0.0047713    0.027709    0.042001     0.40676     0.02706    0.022512
0.091047   0.0010752     0.03583    0.034855     0.34147    0.031282    0.033556
0.074806  -0.0031473    0.035505    0.026085     0.19921    0.025436    0.042326
0.062139  -0.0093186    0.025111     0.01829   -0.018413    0.014392    0.046548
0.054344   -0.012567    0.010495    0.015367    -0.27501   0.0023744    0.044924
0.048497   -0.012567  -0.0050961    0.015042    -0.49848  -0.0041217    0.040377
0.042001   -0.010943   -0.017114    0.013743    -0.62385   0.0017248     0.03583
0.036154  -0.0089938   -0.025559    0.009845    -0.62808    0.020239    0.037454
0.029009  -0.0047713   -0.029457   0.0046481    -0.53193    0.048497     0.04395
0.019589   0.0039985   -0.027508 -0.00054884    -0.38545    0.078055    0.048497
0.009845    0.012768   -0.021012  -0.0057458    -0.23961     0.10079    0.050771
0.003024    0.016016    -0.01484  -0.0073698    -0.12722     0.11541    0.051745
0.0039985    0.014068   -0.013541  -0.0037969   -0.054467     0.12483    0.050446
0.011144   0.0091954   -0.017764   0.0072465  -0.0093186     0.13197    0.049147
0.024137   0.0069217   -0.021986    0.021213    0.019914     0.13879    0.046223
0.038753    0.012443   -0.022961    0.030308    0.044924     0.14561      0.0433
0.054993    0.033231   -0.016464    0.030633     0.06961     0.15049    0.041027
0.069934    0.069934  0.00010078    0.027385    0.090397     0.15179    0.044924
0.083901     0.11833    0.022837    0.025111     0.10242     0.15049    0.053044
0.10729      0.1677    0.042326    0.028034     0.10989     0.14756    0.059541
0.14854     0.20505     0.05207    0.029333     0.11216     0.13977    0.060515
0.207      0.2174    0.049147    0.025111     0.10404     0.12223    0.055643
0.28138     0.19628    0.037129    0.014717    0.087799    0.095919    0.048822
0.36226     0.14269    0.020564   0.0017248    0.071558    0.064413    0.049796
0.43762    0.070584   0.0052977  -0.0093186    0.058891    0.029658    0.061165
0.49283   0.0091954 -0.00022403    -0.01484    0.048822  -0.0096434    0.078055
0.5146   -0.020362   0.0039985   -0.014191    0.034855   -0.051219    0.087149
0.49543   -0.021661    0.014717  -0.0099683    0.014068   -0.090521    0.081952
0.43664   -0.016789    0.026735  -0.0041217   -0.010293    -0.11943    0.055643
0.347   -0.023935    0.030633  -0.0015233   -0.034978    -0.13112    0.015692
0.24208   -0.052518    0.016666   -0.010293   -0.063886     -0.1295   -0.030106
0.13717    -0.10319   -0.026533   -0.034978    -0.09929      -0.123   -0.075579
0.033556    -0.17432   -0.097341   -0.075579    -0.13924     -0.1191    -0.11975
-0.068758    -0.25812    -0.17789    -0.12268     -0.1753    -0.11813    -0.15613
-0.17107     -0.3299    -0.24318    -0.16068    -0.19933    -0.11618    -0.17497
-0.26267    -0.36238    -0.27339    -0.17627    -0.20972    -0.10384    -0.16263
-0.3351    -0.34712    -0.26494    -0.16815    -0.20615   -0.079152    -0.11715
-0.38317     -0.2919    -0.22499    -0.14281    -0.17952   -0.044073   -0.045372
-0.40883    -0.21557    -0.16945    -0.10838    -0.11261  -0.0011985    0.041027
-0.41825    -0.13794    -0.11586   -0.071682   0.0078962    0.055318     0.13197
-0.42312   -0.069733   -0.072656   -0.034654     0.17712     0.13165     0.21447
-0.42832   -0.017764   -0.038876   0.0046481     0.36713     0.22129     0.28203
-0.42605    0.016991  -0.0083442    0.042326      0.5474     0.30445     0.32686
-0.40234    0.040052    0.024461    0.073507     0.70851     0.35869     0.34245
-0.34809    0.051096    0.057917    0.096244      0.8917     0.37525     0.32621
-0.26299    0.049796    0.081952     0.11118      1.1528     0.36161     0.28138
-0.15808     0.03583    0.091047     0.11833       1.491     0.33758     0.21805
-0.041475    0.016666    0.083576     0.12093      1.8239     0.32426     0.15276
0.065387  0.00042559     0.06831     0.12288       2.011     0.33205    0.096244
0.13717  -0.0063954    0.051096     0.12288      1.9327     0.34959    0.050771
0.15406  -0.0021729    0.035505     0.11898      1.5416     0.35674    0.010819
0.11086    0.012443    0.020888     0.10924     0.87871      0.3379   -0.025559
0.025111    0.034206   0.0065969    0.089423     0.05207     0.27586   -0.056416
-0.072006    0.051745   -0.012242    0.057592    -0.76904     0.16218   -0.079152
-0.15678    0.058891   -0.034978    0.013093       -1.43   0.0072465   -0.094418
-0.21525    0.052395   -0.061613   -0.037252     -1.8779    -0.16555    -0.10124
-0.2461    0.032257   -0.086948   -0.084999     -2.1543    -0.33185   -0.097341
-0.25455      0.0014    -0.10579    -0.12398     -2.3288    -0.47509   -0.082076
-0.24675    -0.03238    -0.11456    -0.15418     -2.4275    -0.58813   -0.058365
-0.22499   -0.056741    -0.11228    -0.17172     -2.4324    -0.66705   -0.035953
-0.18471   -0.053817   -0.097017    -0.17107     -2.2937    -0.71642   -0.017114
-0.11748    -0.01484   -0.069083    -0.15321     -1.9471    -0.74598  -0.0044465
-0.023935    0.048822   -0.036927    -0.12592     -1.3862    -0.75962   0.0065969
0.083576     0.11736  -0.0093186    -0.10221    -0.71707    -0.74826    0.021863
0.18557     0.16608   0.0052977   -0.086623      -0.123    -0.69953    0.039727
0.2606     0.18524    0.010819   -0.081751     0.24858    -0.60956    0.054668
0.29697     0.17972    0.014068   -0.085973      0.3457    -0.49263    0.063438
0.29568     0.15991    0.017965   -0.095393     0.22519    -0.37213    0.064737
0.26969     0.13587    0.024137    -0.10026     0.03518    -0.26624    0.062139
0.23136     0.10956    0.036479   -0.096367   -0.054467    -0.18277    0.058241
0.18751    0.078379     0.05207   -0.083375     0.05142      -0.123    0.048172
0.14139    0.038428    0.064088   -0.065186     0.32296   -0.076879    0.029333
0.088448  -0.0067202    0.066362   -0.048296     0.64322    -0.03238 -0.00022403
0.038103   -0.047646    0.058891   -0.039526     0.87871   0.0091954   -0.035303
0.0023744   -0.076554    0.048172   -0.039851     0.93425    0.045249   -0.073631
-0.019063   -0.089546    0.039402    -0.04992     0.78094    0.075456    -0.10741
-0.036927   -0.088896    0.028684   -0.068758     0.48017     0.10014    -0.13892
-0.067459   -0.085648    0.011794   -0.087597     0.15146     0.11638    -0.16847
-0.11228   -0.088896   -0.012567    -0.09182   -0.085648     0.12418    -0.19446
-0.15581    -0.09929   -0.038227   -0.067134    -0.17205       0.131    -0.21167
-0.18017    -0.10936   -0.055766 -0.00054884     -0.1217     0.14659     -0.2146
-0.17432    -0.10676    -0.05804     0.11118     0.01017     0.17355    -0.19446
-0.13989   -0.080776   -0.039851     0.24241      0.1677     0.20635    -0.15029
-0.086948    -0.03238  -0.0047713     0.35641     0.32134     0.23948    -0.09117
-0.028157    0.026085    0.038103     0.42008     0.46523     0.26352   -0.034978
0.024137    0.080003    0.073182     0.41943     0.59645     0.27684   0.0049729
0.056292     0.11801    0.094945     0.36551     0.69714     0.28138    0.031607
0.063763     0.13457    0.098193     0.28431     0.74488     0.27976    0.050121
0.053044     0.13652    0.091696       0.207      0.7254     0.26904    0.066362
0.035505     0.13327    0.084551     0.15114     0.64647     0.24858    0.081303
0.024137     0.13522    0.079029     0.11833     0.52661     0.21772    0.092021
0.022188     0.14107    0.076106     0.10274      0.3889     0.17615    0.092671
0.026085     0.14594    0.074806     0.09397     0.25345      0.1245    0.080978
0.03453     0.14237    0.073507    0.084226     0.13327    0.070584    0.059865
0.048497     0.12743    0.072858    0.075456    0.030633    0.022188    0.036479
0.068635     0.10209    0.072208    0.069934   -0.051544   -0.019063    0.011144
0.09462    0.068635    0.069285    0.066362    -0.10806   -0.053492   -0.015165
0.11995    0.032906    0.063113    0.064737     -0.1191   -0.078178   -0.041475
0.13327   0.0046481    0.050446    0.061814   -0.063886   -0.088896   -0.064861
0.1206   -0.010943    0.027709    0.052395    0.053694   -0.082725   -0.084999
0.072858   -0.016464  -0.0018481    0.032582     0.20148   -0.059014    -0.10156
0.013418    -0.01484   -0.027508     0.01017     0.32751   -0.018088    -0.11293
-0.026209  -0.0099683   -0.035953  -0.0037969     0.37883    0.037778    -0.11521
-0.024909  -0.0057458   -0.017439  -0.0024977     0.31971     0.10144    -0.10384
0.012768   -0.013216     0.01829   0.0088706     0.14009     0.15893   -0.086298
0.056617   -0.046022    0.049796    0.016341    -0.14087     0.19076   -0.077203
0.085525    -0.10871    0.050121   0.0059473    -0.47769     0.18037   -0.084674
0.10599    -0.18212   0.0075714   -0.025884    -0.79308     0.13425    -0.10676
0.15438    -0.22726   -0.068758   -0.065835     -1.0234    0.078704    -0.12755
0.25313    -0.20485    -0.15158   -0.094743     -1.1432    0.044924     -0.1243
0.38695    -0.09929     -0.2029   -0.098965      -1.164    0.048822   -0.076554
0.5068    0.070584    -0.20258   -0.080127     -1.0997     0.07773    0.011469
0.5526     0.25897    -0.14996   -0.046347     -0.9282     0.10761     0.11931
0.49218     0.41196   -0.066485   -0.008669     -0.5956     0.11606     0.21707
0.33433     0.49121    0.013093    0.020239   -0.078503    0.098517     0.28658
0.13132     0.48764    0.063763    0.038428     0.55682    0.067011     0.31971
-0.04927     0.42268    0.081303    0.049147      1.1753    0.040052     0.32069
-0.15841     0.32686    0.074482    0.059541      1.6482    0.033231     0.29438
-0.19154     0.22747    0.056942    0.072533      1.9161    0.054993     0.24695
-0.18439     0.14139      0.0433      0.0852      1.9918    0.098842     0.18687
-0.18082    0.078379    0.038428    0.090722      1.9213     0.15731     0.12613
-0.20518    0.038103    0.041676    0.085525      1.7489     0.22032    0.075456
-0.25487    0.015692    0.044599    0.071558      1.5049     0.27781    0.041676
-0.31171   0.0072465    0.042975    0.055643      1.1973     0.32588    0.021863
-0.34972    0.010495    0.037129    0.045574     0.81244     0.36324    0.014717
-0.35167    0.021213    0.031607    0.039727     0.35122      0.3798   0.0088706
-0.31236    0.030633    0.029333    0.033881    -0.14964     0.36291  -0.0050961
-0.23636    0.034206    0.031607    0.021538    -0.63457     0.31257   -0.030756
-0.12787     0.03518    0.032582 -0.00087364      -1.063     0.23039   -0.060313
0.0036737    0.040377    0.027709   -0.034978      -1.394      0.1232     -0.0824
0.13912    0.049147    0.013093   -0.078503     -1.5963   -0.007045   -0.098316
0.24858    0.047523   -0.011267    -0.12203     -1.6863    -0.15256    -0.11488
0.30087    0.019264   -0.041475    -0.15613     -1.7168    -0.30392    -0.13275
0.2895   -0.038551   -0.072656    -0.17562     -1.7383    -0.44716    -0.15093
0.23104    -0.11358    -0.10091    -0.18309     -1.7714    -0.57481    -0.16815
0.16121    -0.18017    -0.12365    -0.18212     -1.7922    -0.67745    -0.18049
0.11151    -0.21817    -0.13534    -0.17302     -1.7357    -0.74111    -0.18212
0.092671    -0.21849    -0.12917    -0.14931     -1.5408     -0.7502    -0.16815
0.093321    -0.18699    -0.10091    -0.10644      -1.189    -0.69694    -0.13242
0.096893    -0.13957   -0.056416    -0.04992    -0.71967     -0.5839   -0.072656
0.090397   -0.094093   -0.008669   0.0091954    -0.22694    -0.42962   0.0017248
0.070584    -0.05804    0.025761    0.055968     0.18362    -0.26559    0.074482
0.041676   -0.026533    0.041676    0.078704     0.43599    -0.12657     0.12743
0.011794   0.0049729    0.044924    0.077405      0.5159   -0.037252     0.15179
-0.012892    0.035505    0.042975    0.060515     0.45418  -0.0050961     0.14886
-0.03173    0.057592    0.040702    0.040702     0.31614   -0.013541     0.12807
-0.046347    0.064413    0.036154    0.021863     0.17095   -0.043099    0.097543
-0.059014    0.047847    0.029658    0.010495    0.063113   -0.073631    0.064737
-0.067459    0.010495    0.022512   0.0075714    0.012443   -0.095717    0.033556
-0.067784    -0.03238     0.01894    0.009845    0.024137    -0.10221   0.0059473
-0.060963    -0.06681    0.018615    0.012768    0.081952   -0.092469    -0.01614
-0.052518   -0.089221    0.020564    0.014717     0.15796   -0.069408    -0.03303
-0.053168   -0.097341    0.023162    0.013743     0.22389   -0.040175   -0.046022
-0.064861   -0.096042    0.022837   0.0065969      0.2606   -0.015815   -0.058689
-0.079802   -0.088572    0.018615  -0.0037969     0.26709  -0.0044465   -0.067134
-0.089546   -0.080451   0.0075714   -0.014516      0.2489  -0.0034721   -0.070382
-0.089221   -0.073631  -0.0063954   -0.022311     0.21285  -0.0021729   -0.067784
-0.079152   -0.072331   -0.018413   -0.022636      0.1638   0.0091954   -0.064536
-0.06616   -0.072656   -0.025559    -0.01549     0.10534    0.031932   -0.065835
-0.051544   -0.070382    -0.02361  -0.0034721    0.044924    0.059541   -0.069733
-0.038876   -0.067459   -0.012567    0.009845  -0.0011985    0.086175   -0.077853
-0.030106   -0.064861   0.0033489    0.025436   -0.017114     0.10501   -0.088896
-0.021986   -0.062587    0.017316    0.037454      0.0014     0.11443    -0.09929
-0.011267   -0.061937     0.02641     0.04395    0.037778     0.12158    -0.10774
-0.00022403   -0.060963    0.029333    0.043625    0.065387      0.1284    -0.11098
0.0026992   -0.059339    0.027709    0.039078    0.071234     0.13035    -0.10579
-0.010293   -0.058689    0.020564    0.028359    0.067986      0.1219   -0.089871
-0.034654   -0.056091    0.010495    0.015692    0.081627     0.10566    -0.06616
-0.061937   -0.047646   0.0023744   0.0075714     0.11248    0.085525   -0.044723
-0.088572   -0.030756 -0.00022403   0.0036737     0.10079    0.057592   -0.034004
-0.11975  -0.0073698  -0.0015233 -0.00054884   -0.019063    0.017316   -0.039201
-0.15548    0.011469  -0.0057458   -0.013866    -0.23863   -0.038876   -0.057065
-0.18991     0.01894   -0.014191   -0.037577    -0.46372    -0.11033     -0.0824
-0.21395    0.012119   -0.024909   -0.066485    -0.57448    -0.18504    -0.10546
-0.22077  -0.0031473   -0.034329   -0.090521    -0.50173    -0.24156    -0.12105
-0.21297    -0.02361   -0.041475    -0.10514    -0.25227    -0.26137    -0.13047
-0.19771   -0.047971   -0.044398    -0.10774     0.10566    -0.24123    -0.13437
-0.18114   -0.078503   -0.046996    -0.10124     0.47302    -0.18796    -0.13242
-0.1662    -0.11488   -0.055766    -0.09117     0.75788    -0.11748    -0.12592
-0.15288    -0.15451   -0.073631   -0.081751     0.89754   -0.045697    -0.11553
-0.13437    -0.19121   -0.095393   -0.074605     0.87708     0.01764    -0.09994
-0.10124     -0.2094    -0.11261   -0.069733     0.72345    0.065387   -0.079477
-0.050569     -0.2042     -0.1191   -0.061288     0.49056    0.093321   -0.053168
0.014068    -0.17562    -0.11228   -0.047321     0.23948    0.098517   -0.022961
0.078379     -0.1295   -0.094093   -0.028482    0.022188    0.084226   0.0056225
0.11995    -0.07428   -0.067784  -0.0073698    -0.12625    0.057592    0.027709
0.1206   -0.016464   -0.036927    0.010819    -0.19933    0.029983    0.047847
0.081627    0.040377  -0.0073698    0.021538    -0.21265    0.015042    0.074157
0.020239    0.090722    0.019589    0.025761    -0.19251   0.0078962     0.10859
-0.041475     0.13035    0.039402    0.031607    -0.15646   0.0062721     0.14237
-0.091495     0.15471    0.049796    0.039727    -0.11586   0.0059473      0.1651
-0.12463     0.15796    0.049796    0.046548   -0.091495   0.0059473     0.17387
-0.14152     0.14042    0.042326    0.048172    -0.12333   0.0046481     0.16965
-0.14736     0.10729    0.034206    0.047198    -0.22109  -0.0024977     0.15503
-0.15191    0.070584    0.031607    0.046873    -0.35102   -0.013866      0.1336
-0.15646     0.03583     0.03453    0.047198    -0.46145   -0.017439     0.10696
-0.15646   0.0059473     0.03583    0.044924    -0.49913  -0.0063954    0.080653
-0.14509   -0.022311    0.030633     0.03518    -0.44294    0.020564    0.062139
-0.12138   -0.054792    0.013418    0.019264    -0.30977    0.058241    0.054668
-0.087922   -0.089546   -0.011267  0.00042559    -0.14152    0.092996    0.054668
-0.046347    -0.11651   -0.039851   -0.019712     0.01894     0.11411    0.057267
-0.0024977    -0.11748   -0.070058   -0.041799     0.14691     0.11508    0.050446
0.038428   -0.082076   -0.094418   -0.060963     0.23266    0.093645    0.034206
0.066686   -0.017114    -0.10254   -0.069083     0.27846    0.062464    0.017965
0.081303    0.056942   -0.090521   -0.061937     0.29795    0.033556   0.0085458
0.088448     0.11443   -0.060313   -0.038876     0.32783    0.013743    0.009845
0.092346     0.14237   -0.022311   -0.010943     0.41228  -0.0037969    0.017316
0.091047     0.13847    0.010819    0.013743     0.56559   -0.028807     0.02706
0.082277     0.11443    0.029658    0.026735     0.77217    -0.06681    0.029333
0.072208    0.088773    0.031932    0.024786     0.98914    -0.10741    0.022512
0.06896    0.076106    0.022188    0.011469      1.1551    -0.13534    0.011794
0.080328    0.080003    0.003024  -0.0073698      1.2146    -0.14346  0.00075039
0.10209    0.093645   -0.018413    -0.02361      1.1379    -0.12917  -0.0041217
0.1232     0.10924   -0.033354   -0.026209     0.92938   -0.097991 -0.00022403
0.13977     0.12223   -0.036602  -0.0093186     0.61626   -0.059339   0.0088706
0.15049     0.12678   -0.027183    0.024786     0.24013   -0.021012    0.021863
0.15601      0.1232  -0.0037969    0.067661     -0.1334     0.01829    0.041676
0.15568     0.10794    0.028684     0.10924    -0.43644    0.060515    0.066037
0.14724    0.084551    0.062464     0.14042    -0.62775     0.10566    0.088773
0.1362    0.063113    0.089423     0.15893    -0.71123     0.14854     0.10047
0.1323     0.05207     0.10306     0.16445    -0.71805      0.1781    0.091372
0.13684    0.052395    0.097218     0.15406    -0.65861     0.18232    0.055968
0.14464    0.060515    0.071883     0.12807    -0.51245     0.16088  -0.0034721
0.14919    0.067661    0.038428     0.10209    -0.26429      0.1271   -0.076229
0.14269    0.067011    0.015367    0.091696    0.070584     0.09397    -0.14574
0.11963     0.05207    0.013743    0.099817     0.43469     0.06896    -0.19738
0.079029    0.017965    0.028034     0.11703     0.74326    0.055643    -0.22369
0.018615   -0.038227     0.04395     0.12905     0.89917    0.050121    -0.22272
-0.05804    -0.11293     0.05207     0.12515     0.82251    0.048822    -0.19641
-0.12885    -0.19446    0.045574     0.10631     0.50907    0.050771    -0.15126
-0.17302    -0.26267    0.020564    0.080003    0.055318    0.053044   -0.098965
-0.18959    -0.29905    -0.01484    0.052395     -0.3705    0.048172   -0.043423
-0.18991    -0.29872    -0.04862    0.026735    -0.60859    0.028359    0.016666
-0.19998    -0.27761   -0.070382   0.0075714    -0.57059  -0.0096434    0.072533
-0.2461    -0.26169   -0.075904  -0.0096434    -0.25747    -0.06681     0.10859
-0.3377    -0.26234   -0.070058   -0.039201     0.22065    -0.13892     0.11606
-0.45528    -0.26884   -0.058365   -0.094093      0.6822    -0.21427     0.10274
-0.54785    -0.25975   -0.046022    -0.17432     0.94562    -0.27534      0.0865
-0.56182    -0.21265   -0.037252    -0.26592     0.85922    -0.31009    0.083576
-0.46632    -0.12008   -0.031406    -0.35199     0.32296    -0.31951     0.10079
-0.26364  -0.0047713   -0.028157      -0.415    -0.62418    -0.31496     0.14042
0.012119    0.099167   -0.025559    -0.44781     -1.7386    -0.30977     0.19823
0.31094     0.17452   -0.023285    -0.45301     -2.7085    -0.31171     0.25832
0.58768     0.22747   -0.018738    -0.43904     -3.2655    -0.31301     0.31029
0.79296     0.26807  -0.0096434    -0.41273     -3.2545     -0.2971     0.34992
0.8826     0.29373   0.0026992    -0.37733      -2.675    -0.25877     0.37363
0.83453     0.29015    0.015042    -0.33088     -1.6808    -0.20908      0.3733
0.66368     0.25053     0.02641    -0.26949    -0.48873    -0.16295     0.34505
0.423     0.18979    0.035505    -0.17887      0.6796     -0.1295     0.29438
0.18427     0.13295    0.045574   -0.037252      1.6453    -0.10124     0.23136
0.011144    0.099167    0.055968     0.16933      2.3303   -0.063886     0.17095
-0.064536    0.095594    0.065387     0.43209      2.6733  -0.0047713     0.12125
-0.048945     0.11021    0.069934     0.71403      2.6187    0.074806    0.082602
0.021213     0.12872    0.072533     0.95633      2.1308     0.16575    0.051096
0.10177     0.13977    0.070584      1.1064        1.25     0.25118    0.025436
0.15698     0.13652    0.064737      1.1324     0.13165     0.31646   0.0036737
0.16673     0.12093    0.054993      1.0346     -0.9688     0.34505   -0.017114
0.12775    0.096244    0.036154      0.8433     -1.7915     0.32296   -0.045047
0.049796    0.064413   0.0085458     0.60327     -2.1485     0.24695   -0.079152
-0.041799    0.032906   -0.017439     0.36291     -1.9461     0.14139    -0.11651
-0.12073   0.0072465   -0.032055     0.16218     -1.2839     0.03583    -0.15061
-0.1701  -0.0067202   -0.034004    0.024137     -0.4569   -0.048296    -0.17919
-0.18179 -0.00087364   -0.026533    -0.04862     0.17615   -0.096367    -0.19803
-0.15353    0.027709    -0.01549   -0.076229     0.41163   -0.096042     -0.2081
-0.089546    0.068635  -0.0044465   -0.086623     0.31841   -0.042449    -0.20518
-0.0057458     0.10826   0.0036737   -0.097017     0.13879    0.057267    -0.18829
0.078055     0.13067   0.0059473    -0.11196    0.076431     0.18719     -0.1649
0.13944     0.12613  0.00042559    -0.13177     0.16445     0.32816    -0.14152
0.16153    0.093321  -0.0083442    -0.15093      0.2973     0.46165    -0.12138
0.14561    0.038753   -0.016789     -0.1649     0.33823     0.57144    -0.10611
0.11443   -0.021661   -0.023285    -0.16718     0.19628     0.64387   -0.094093
0.0865   -0.076879   -0.028482    -0.16035    -0.13794     0.66758   -0.085648
0.067011    -0.11651   -0.035628    -0.15841    -0.57286     0.63088   -0.079152
0.053369    -0.13664   -0.046671    -0.16912    -0.95158     0.53246   -0.080776
0.042001    -0.13372   -0.055766    -0.19348     -1.1556      0.3889   -0.088896
0.029983    -0.11131   -0.061937    -0.22109     -1.1582     0.23006    -0.10026
0.013743   -0.077853   -0.062262    -0.23928     -1.0217    0.088448    -0.10676
-0.0083442   -0.043099   -0.056416    -0.24026    -0.86421   -0.027183    -0.11001
-0.036927   -0.015165   -0.050244    -0.23084    -0.80185    -0.12722    -0.10871
-0.076229  0.00042559   -0.044073    -0.22077    -0.86973    -0.23766    -0.10514
-0.13177      0.0014   -0.038551    -0.21752    -0.97919    -0.36888    -0.10676
-0.20031  -0.0093186   -0.034978    -0.21947    -0.94899    -0.50757    -0.11163
-0.27209   -0.025234   -0.037577    -0.21622    -0.65893    -0.61443    -0.11553
-0.339   -0.042449   -0.047321    -0.20355    -0.14834    -0.64821    -0.11163
-0.39162   -0.061288   -0.058689    -0.18049     0.41845    -0.59332   -0.095393
-0.41988   -0.079802   -0.063886    -0.15451     0.86311    -0.46697   -0.070382
-0.42377   -0.094743   -0.055441    -0.12885       1.097    -0.30977   -0.043099
-0.40721    -0.10384   -0.035628    -0.10124      1.1295    -0.15905   -0.020362
-0.37505    -0.10838   -0.011267   -0.073955      1.0333   -0.044073  -0.0044465
-0.33055    -0.11066    0.011144   -0.051868      0.8956    0.020888   0.0039985
-0.27469    -0.11293     0.02706   -0.039526       0.766    0.039402   0.0065969
-0.2042    -0.11456     0.03453   -0.039201     0.64972    0.024461    0.003024
-0.1191    -0.10936    0.033556   -0.045372     0.53928  -0.0028225  -0.0041217
-0.024909   -0.096367    0.028684   -0.050244     0.43177   -0.025559  -0.0093186
0.067986   -0.076554    0.025436   -0.049595     0.33855   -0.035303   -0.010618
0.14919   -0.051219     0.02706   -0.040175     0.27911   -0.029457   -0.012242
0.21058   -0.022311     0.03583   -0.023935     0.27034   -0.018738   -0.017764
0.24533   0.0049729    0.049796  -0.0063954     0.31192   -0.011917   -0.029457
0.2463    0.023162    0.064737   0.0065969      0.3863   -0.016789   -0.048945
0.21512    0.028359    0.070909    0.012768     0.45938   -0.031406   -0.073306
0.15601    0.020888    0.065062    0.013743     0.50485    -0.04927   -0.096692
0.080328   0.0075714    0.045574   0.0085458     0.51265   -0.059014    -0.10936
0.0052977  -0.0080194    0.020239 -0.00087364     0.49153   -0.054792    -0.10481
-0.050244   -0.029457  -0.0054209   -0.007045      0.4571   -0.037577   -0.078178
-0.082725   -0.062587   -0.029132  -0.0057458      0.4191    -0.01614   -0.033354
-0.10286    -0.10319   -0.046671      0.0014       0.385  0.00075039    0.013743
-0.12755    -0.14119   -0.054142    0.013093     0.35479   0.0043233    0.047847
-0.16847     -0.1662    -0.04927    0.022512     0.33498   -0.011592     0.06019
-0.2172    -0.17042   -0.037577    0.022188     0.34082   -0.039851    0.054993
-0.25682    -0.15191   -0.025559   0.0091954     0.38857   -0.063886    0.042651
-0.26657    -0.11651   -0.018738    -0.01484     0.47789   -0.073955    0.034855
-0.23376   -0.068758   -0.018738   -0.038876       0.588   -0.067784    0.038428
-0.16912  -0.0093186   -0.019712   -0.047321     0.68025   -0.046996    0.051745
-0.091495    0.067336   -0.016789   -0.036602      0.7228   -0.016464     0.06831
-0.010943     0.15893  -0.0054209   -0.012892     0.69876    0.020239    0.084876
0.064413     0.24955    0.009845    0.015042     0.60911    0.055318    0.098193
0.12678     0.32069    0.023812    0.032582     0.47335    0.078379     0.10794
0.17062     0.35349    0.035505     0.03518     0.31094    0.084551     0.11086
0.19531      0.3418    0.038428    0.028359     0.13067    0.077405     0.11183
0.20051     0.29178    0.032906    0.017965   -0.069733    0.059541     0.10794
0.18199      0.2148    0.019589    0.010495    -0.27436    0.034206    0.096569
0.14399     0.12872   0.0017248   0.0075714    -0.44618    0.008221    0.080328
0.098842    0.048822   -0.014516   0.0056225    -0.55207   -0.011917    0.063438
0.064088  -0.0099683   -0.027833   0.0033489    -0.57351   -0.022636    0.050771
0.05272   -0.040175   -0.036602  -0.0011985    -0.52154   -0.021337    0.043625
0.070584   -0.044073   -0.035953  -0.0021729    -0.42735  -0.0093186    0.044924
0.11216   -0.032055   -0.025884    0.003024    -0.32438    0.011469    0.055968
0.16185   -0.012567   -0.010618    0.013093    -0.24026    0.028034    0.071234
0.19823   0.0062721   0.0072465    0.022837    -0.19348    0.034855    0.084226
0.21317    0.024461    0.025111    0.027709    -0.18179    0.030633    0.088124
0.20733    0.041027    0.038103    0.026085    -0.19316    0.021213    0.083576
0.18589    0.056942    0.042975    0.022512    -0.21427    0.011469    0.073182
0.15893     0.06961    0.038103    0.022188    -0.23538   0.0043233    0.061814
0.14269    0.075781    0.026085    0.028034     -0.2487  -0.0031473     0.05207
0.13912    0.072858    0.010495    0.037454     -0.2526   -0.011917    0.045249
0.14237    0.063113  -0.0011985     0.04395    -0.24578   -0.018088    0.042651
0.14626    0.049472  -0.0060706    0.045249    -0.22986   -0.020687    0.041027
0.14432     0.03453  -0.0044465    0.040377    -0.20843   -0.023285    0.037778
0.13392    0.019264 -0.00054884    0.035505    -0.18731   -0.028157    0.033556
0.11736   0.0049729   0.0026992    0.036479    -0.17335   -0.033679    0.028684
0.099817  -0.0044465   0.0052977    0.039078     -0.1714   -0.036927    0.023487
0.080328   -0.010943   0.0085458    0.040052    -0.18309   -0.037902    0.018615
0.053694   -0.011917    0.012768    0.040702    -0.20096   -0.034329    0.011794
0.015692   -0.007045    0.019264    0.041351    -0.21914   -0.027508   0.0036737
-0.03238   0.0023744    0.029658    0.041351    -0.22921   -0.016789  -0.0015233
-0.08305    0.013093    0.040702    0.040702    -0.22694  -0.0041217  -0.0050961
-0.12333    0.022512    0.046873    0.041676      -0.212   0.0059473  -0.0089938
-0.15093    0.027385    0.046223    0.048497    -0.19283   0.0095202   -0.012892
-0.1623     0.02706    0.040702    0.061814    -0.17237     0.01017   -0.013541
-0.1623    0.026085    0.036479     0.07708    -0.15158    0.013093   -0.013216
-0.15581    0.025111    0.032906      0.0865    -0.13502    0.014392   -0.017764
-0.14964    0.020564    0.031932    0.086175    -0.12885    0.013418   -0.030756
-0.14476   0.0091954    0.032257    0.080978    -0.13047   0.0049729   -0.047646
-0.13989   -0.012567    0.032582    0.075456     -0.1308   -0.011267   -0.066485
-0.1334   -0.041799    0.029658    0.072858    -0.12657   -0.031081   -0.084349
-0.123   -0.075904    0.020564    0.071883    -0.11878   -0.049595   -0.099615
-0.10286    -0.10936   0.0095202    0.071558    -0.11098   -0.058689    -0.11131
-0.074605    -0.13372  -0.0057458    0.069934    -0.10319   -0.059014    -0.11975
-0.045372    -0.13632    -0.02426    0.066037   -0.096367   -0.051868    -0.11975
-0.020687    -0.11001   -0.042124    0.059216   -0.088247   -0.038551    -0.10546
-0.0018481   -0.059664    -0.04927    0.049147   -0.077203   -0.018413   -0.072656
0.010495  -0.0080194   -0.043099    0.040052   -0.051868   0.0072465   -0.026209
0.014717    0.015692   -0.030106    0.036479  -0.0067202     0.03583    0.022512
0.014392   0.0043233   -0.018738     0.03583    0.054668    0.056292    0.062139
0.014068   -0.026533   -0.014191    0.037129     0.11541    0.062139    0.084551
0.019589   -0.054142   -0.014191    0.039078     0.14334    0.050771      0.0865
0.032257   -0.058365   -0.014516    0.041676     0.10891    0.028359    0.076106
0.047847    -0.03173   -0.012892    0.045249  0.00010078   0.0046481    0.062139
0.056942    0.016991   -0.010293    0.047523    -0.16003   -0.013541    0.050121
0.057592    0.072208  -0.0067202    0.044275    -0.30067   -0.023935    0.041027
0.058891      0.1206   -0.007045     0.03518    -0.34062   -0.035953    0.029658
0.070909     0.15276   -0.015165    0.019264    -0.22759   -0.057065   0.0091954
0.093321     0.16283   -0.029457   0.0017248    0.021538   -0.085648   -0.018088
0.11638     0.15146   -0.037577  -0.0083442     0.33823    -0.11131   -0.042124
0.1297     0.12775   -0.027508 -0.00054884      0.6338     -0.1217   -0.051219
0.12678     0.10242     0.01017    0.026085     0.84168    -0.11326   -0.048296
0.10859    0.080003    0.067661    0.062464     0.94139   -0.095068   -0.044398
0.079679    0.054019     0.11898    0.092996     0.93977   -0.077853   -0.050894
0.046223     0.01829     0.14237     0.10371     0.86279   -0.068434   -0.068758
0.0085458   -0.035303     0.12872    0.089098     0.70883   -0.069733   -0.097017
-0.032055    -0.10676    0.083901    0.055318     0.41196   -0.086948     -0.1295
-0.078827    -0.19413    0.021538   0.0091954    -0.10871    -0.12463    -0.16328
-0.13437    -0.29125   -0.047646   -0.043423    -0.82946    -0.18114    -0.19608
-0.20128    -0.39064    -0.11618   -0.098965     -1.5924     -0.2552    -0.22694
-0.26624    -0.47379    -0.17692    -0.15029     -2.1966    -0.33737     -0.2539
-0.30489    -0.51699    -0.22272    -0.18666     -2.5003    -0.40656    -0.27501
-0.29482    -0.50303    -0.25552    -0.20713     -2.4681    -0.44001    -0.28443
-0.22694    -0.44066    -0.28118    -0.21525     -2.1495    -0.43027    -0.27728
-0.10579    -0.36011    -0.30424    -0.21427     -1.6376    -0.38187    -0.25455
0.048497    -0.28021    -0.31951    -0.20193     -1.0312    -0.30944    -0.21232
0.19823    -0.18764    -0.31724    -0.17237    -0.41111    -0.22012    -0.14736
0.30704   -0.056741    -0.28346    -0.12268     0.15244    -0.11033   -0.057065
0.34959     0.12125     -0.2133   -0.049595     0.61009    0.029983    0.062789
0.31484     0.31646    -0.11033    0.041351     0.94074     0.20278     0.21317
0.2083     0.48179   0.0072465     0.13684      1.1483     0.39344     0.38565
0.065387     0.57923     0.11541     0.21642      1.2373     0.56657     0.54935
-0.066485     0.59482     0.19011     0.26319      1.2204     0.68447     0.67018
-0.15321     0.54578     0.22584     0.27132      1.1288     0.72864      0.7267
-0.18666     0.46393     0.22487     0.24566     0.99531     0.70039     0.71565
-0.18114     0.38207     0.19953     0.19693     0.80822     0.61918     0.64972
-0.15256     0.31711     0.16413     0.13912     0.49511     0.50907      0.5487
-0.10644     0.27099     0.12807    0.086175    0.024786      0.3863     0.43697
-0.042449     0.23656    0.092996    0.046873    -0.51082     0.26125     0.33335
0.025761     0.19499    0.060515    0.018615    -0.91033     0.14334     0.24598
0.075781      0.1284    0.026085   -0.007045    -0.96977    0.037778     0.17127
0.10144    0.040377  -0.0083442   -0.036927    -0.56831   -0.054142     0.10696
0.11736   -0.045372   -0.035953   -0.065835     0.27456    -0.13827    0.048497
0.13555   -0.098316   -0.052518   -0.087597      1.3617    -0.21785  -0.0093186
0.15211    -0.10968   -0.054467    -0.10221      2.3985    -0.29417   -0.067784
0.15276   -0.091495   -0.045047    -0.10903      3.1131    -0.36173    -0.12463
0.12483   -0.066485   -0.033679    -0.10644      3.3359     -0.4137     -0.1753
0.071883   -0.052193   -0.026858   -0.097666      3.0153    -0.44131     -0.2146
0.0046481   -0.057065   -0.027183   -0.084024      2.2254    -0.44229    -0.23798
-0.062587   -0.077528   -0.034978   -0.067784      1.1613    -0.42085    -0.24415
-0.1204    -0.10774   -0.047321   -0.053817     0.10242    -0.38739    -0.23961
-0.16295    -0.13664   -0.055441   -0.049595    -0.68362    -0.35232    -0.23051
-0.18764    -0.16003   -0.059014   -0.058365     -1.1026    -0.32373    -0.22467
-0.19413    -0.17335   -0.062262   -0.079802     -1.2481    -0.31042    -0.22077
-0.18407    -0.17757   -0.063886    -0.11033      -1.292    -0.31529    -0.22532
-0.15938    -0.17562   -0.067134    -0.14769     -1.3566    -0.32698    -0.23603
-0.1308    -0.16555   -0.074605    -0.18894     -1.4547     -0.3286     -0.2474
-0.10514    -0.14152     -0.0824    -0.22467     -1.5125    -0.30912    -0.25357
-0.076554   -0.098965   -0.084024     -0.2435     -1.4443    -0.26527    -0.24805
-0.031081   -0.042449   -0.072006    -0.23701     -1.2124    -0.19803    -0.23441
0.035505    0.017965   -0.046671    -0.20323    -0.84083    -0.11423    -0.20972
0.11151    0.067661   -0.014516    -0.15029    -0.39974   -0.022636    -0.17724
0.17257    0.099492    0.017965   -0.090196    0.025111    0.064737    -0.14152
0.19856     0.11443    0.048822   -0.035953     0.34862     0.13879    -0.10871
0.18264     0.11866    0.072858    0.008221     0.52239     0.19044     -0.0837
0.13425     0.11963     0.08585    0.039402     0.53538     0.22324   -0.067134
0.071234     0.12158    0.089423    0.058891     0.40059     0.24306   -0.056416
0.013093      0.1271    0.087149    0.070909     0.15114      0.2541   -0.046022
-0.033679      0.1323     0.08585    0.079029    -0.17075      0.2606   -0.037902
-0.077528     0.12807     0.08585      0.0865    -0.54135       0.258   -0.028157
-0.12398     0.10079    0.084551    0.091696    -0.93047     0.24501   -0.022311
-0.1727    0.042651    0.081303    0.092996      -1.279     0.22097   -0.021661
-0.21785   -0.039201    0.071558    0.089098     -1.5096     0.19336    -0.02426
-0.25845    -0.12235    0.054993    0.080653     -1.5694     0.16933   -0.029457
-0.29223    -0.18374     0.03518    0.071234     -1.4489     0.15146   -0.038227
-0.32146    -0.21427    0.022512     0.06084     -1.1815     0.13652   -0.050244
-0.3429     -0.2159    0.020564    0.051745    -0.81614     0.11866   -0.063561
-0.34907    -0.19836     0.02706    0.046873    -0.41793     0.10112   -0.069083
-0.3351    -0.17562    0.036804    0.049796   -0.060313    0.092671   -0.061288
-0.31074     -0.1623    0.046548    0.058241     0.19758    0.099817   -0.044073
-0.30035    -0.16588    0.051096    0.066686     0.33693     0.12125   -0.029132
-0.32373    -0.18439    0.049796     0.06896     0.38142     0.15114   -0.023935
-0.37733     -0.2107    0.043625    0.068635     0.37103     0.17939   -0.028807
-0.42767    -0.23279    0.036154    0.071234     0.34537     0.19693   -0.034654
-0.43092    -0.23928    0.032582    0.075781     0.32556     0.19823   -0.035628
-0.36823    -0.21849    0.031607    0.080653     0.31516     0.18589   -0.029132
-0.24773    -0.15873    0.030957    0.083901     0.31322     0.16738    -0.01484
-0.089221   -0.055441     0.02641    0.083251     0.31386     0.15341    0.008221
0.078704    0.072208    0.020239    0.079029     0.31874     0.14919    0.042975
0.23591     0.18687    0.012443    0.072858     0.32588     0.15568    0.084876
0.36551     0.24598   0.0026992    0.065062     0.33693     0.16543     0.12223
0.46068     0.23721  -0.0067202    0.055968     0.34959     0.16965     0.14107
0.52791     0.17874   -0.012892     0.05272     0.34992      0.1703     0.13912
0.57014     0.11801   -0.011592    0.058566     0.32004     0.17972     0.12645
0.59417    0.098517      0.0014    0.072858     0.25345     0.20603     0.11866
0.5958     0.13749    0.024786    0.087799     0.16705     0.24533     0.12288
0.57046     0.21058    0.050121    0.099817    0.092671     0.28463     0.13457
0.5094     0.27619    0.068635     0.10371    0.065712     0.30964     0.14139
0.40968     0.29795    0.076106     0.10371     0.10599     0.31354     0.14139
0.27846     0.27034    0.065387     0.10144     0.19986     0.30055     0.13749
0.13717      0.2083    0.042001    0.099817     0.30704     0.27684      0.1349
0.0078962     0.13392    0.017316    0.096893     0.37688     0.24273     0.13814
-0.088247    0.065062   0.0033489    0.089748     0.37558     0.19174     0.14237
-0.14216     0.01764   0.0010752    0.077405     0.30574     0.12385     0.13749
-0.15516  -0.0041217  0.00075039    0.064413     0.19986    0.044275     0.12223
-0.13729  -0.0034721 -0.00087364    0.054019     0.10664   -0.036602    0.097543
-0.097666   0.0085458  -0.0028225    0.046548    0.070259    -0.10709    0.075456
-0.045697    0.024137  -0.0021729    0.044275     0.10729    -0.15938    0.060515
0.0033489    0.039078   0.0046481    0.049472     0.19499    -0.19348    0.051096
0.042326    0.047198    0.012768     0.06084      0.2973    -0.21752    0.040052
0.070584    0.046548    0.018615     0.06961      0.3772    -0.23831    0.024461
0.0865    0.040052    0.018615    0.072533     0.40968     -0.2591   0.0069217
0.091372    0.029983    0.013093    0.067336     0.37883    -0.27404  -0.0047713
0.092346    0.018615   0.0062721    0.053369     0.28203    -0.28053  -0.0063954
0.095594   0.0095202  -0.0021729    0.029658     0.13067    -0.28443  -0.0018481
0.10306      0.0014  -0.0076946   0.0010752   -0.046996    -0.28703   0.0026992
0.10989  -0.0041217   -0.011917    -0.02361    -0.20875    -0.28248   0.0039985
0.11638  -0.0076946   -0.016789   -0.041799    -0.32731    -0.26624   0.0046481
0.1245  -0.0080194   -0.026858   -0.052518    -0.40169    -0.24383   0.0052977
0.13002  -0.0054209   -0.042124   -0.061613    -0.42994    -0.22272   0.0065969
0.13067  -0.0031473   -0.056741   -0.073306    -0.42507     -0.2081   0.0046481
0.12678  -0.0011985   -0.063561   -0.085973     -0.4189    -0.20128  -0.0047713
0.11963  0.00042559   -0.064536   -0.098316    -0.42052    -0.20193   -0.021986
0.10761  -0.0011985   -0.064536    -0.10546    -0.42475     -0.2081   -0.042774
0.0865   -0.007045   -0.063237    -0.10644    -0.43189    -0.21622   -0.060963
0.055968    -0.01549   -0.060638    -0.10124    -0.41728    -0.22337   -0.069408
0.022512   -0.023285   -0.057065   -0.090521    -0.34972    -0.22467   -0.066485
-0.0093186   -0.029132   -0.055441   -0.076879    -0.21817    -0.21525   -0.054467
-0.038227   -0.039201   -0.053168   -0.063561   -0.042449    -0.19543   -0.043099
-0.06616   -0.052193   -0.049595   -0.055116      0.1284    -0.16847   -0.037577
-0.094093   -0.068109   -0.045047   -0.052843     0.25475    -0.13632   -0.039851
-0.11066   -0.083375   -0.042449   -0.050894     0.32393    -0.10026   -0.045047
-0.10286   -0.089546   -0.039526   -0.044398     0.34082   -0.065835   -0.050894
-0.067134   -0.084674   -0.034654   -0.034978     0.32361   -0.034329   -0.053492
-0.011267   -0.070058   -0.027183   -0.025559     0.29113  -0.0073698    -0.04927
0.051096    -0.04992   -0.022961   -0.016789     0.25572    0.015692   -0.038551
0.10469   -0.028157   -0.023935  -0.0089938     0.22389    0.031282   -0.025884
0.14237   -0.012567   -0.029132  -0.0054209     0.20018    0.031282   -0.014516
0.16445 -0.00087364   -0.035628  -0.0083442     0.17874    0.012768   -0.008669
0.17387   0.0078962   -0.037577   -0.018413     0.15666   -0.015815  -0.0080194
0.1742    0.013093   -0.034978   -0.029132     0.13425   -0.037577  -0.0083442
0.16835    0.012768   -0.026533   -0.033354     0.11118   -0.043423  -0.0067202
0.15503    0.008221   -0.018413   -0.027833      0.0865   -0.027508  -0.0037969
0.12872  0.00042559   -0.012567   -0.016464    0.062139   0.0039985   -0.007045
0.084876   -0.007045  -0.0076946  -0.0018481    0.046873    0.039078   -0.018088
0.022837   -0.013541  -0.0031473    0.013418    0.054344    0.061489   -0.032705
-0.04992   -0.019712  -0.0031473    0.021863    0.090722    0.065387   -0.048296
-0.1191   -0.025234  -0.0083442     0.01764     0.15373    0.056617   -0.061613
-0.16523   -0.026533   -0.012567   0.0062721     0.22259    0.040702   -0.068758
-0.17854   -0.022636   -0.014191  -0.0089938     0.27586    0.022188   -0.065835
-0.161   -0.014191   -0.013216   -0.019063     0.30574  0.00010078   -0.050569
-0.12495  -0.0073698   -0.015165   -0.020362     0.32361   -0.028807   -0.031081
-0.084024  -0.0037969   -0.018738    -0.01614      0.3392   -0.060313   -0.014191
-0.047646 -0.00054884   -0.021012  -0.0067202     0.34797    -0.09117  0.00042559
-0.021337   0.0049729   -0.021986   0.0049729     0.33043    -0.11748    0.013418
-0.010293    0.010495   -0.021012    0.014068     0.27261    -0.14119    0.019914
-0.019063    0.012768    -0.01484    0.016016     0.18849    -0.15938    0.018615
-0.050244   0.0095202  -0.0054209    0.013093     0.12093     -0.1714     0.01017
-0.10221  -0.0011985   0.0033489     0.01017     0.10664    -0.17594  -0.0054209
-0.1662   -0.015815   0.0056225   0.0065969     0.15049      -0.174   -0.023285
-0.23084    -0.03173  0.00042559  -0.0018481     0.21252    -0.16815   -0.036927
-0.28313   -0.047646  -0.0080194   -0.017439     0.22974    -0.15938   -0.044073
-0.31366   -0.064861   -0.016464   -0.036927     0.15568    -0.14801   -0.047321
-0.32113   -0.087922   -0.024909   -0.054142   -0.026533    -0.13859   -0.051219
-0.30684    -0.11423   -0.034978   -0.064211     -0.2984    -0.14054   -0.054142
-0.26851     -0.1321    -0.04927   -0.068758    -0.60209    -0.15418   -0.048945
-0.2042    -0.12268   -0.061288   -0.069408    -0.85869    -0.17075   -0.035628
-0.12138   -0.076554   -0.061288   -0.065186     -1.0013    -0.17692   -0.012567
-0.038551   0.0020496   -0.041799   -0.049595     -1.0055      -0.161    0.016666
0.028359     0.10177 -0.00054884   -0.023285    -0.89442     -0.1243    0.055643
0.071558     0.20538    0.053044   0.0088706     -0.7213   -0.076554    0.096244
0.084226      0.2895     0.10306    0.040377    -0.55207   -0.027183      0.1284
0.07773       0.334     0.13555    0.066037    -0.42929    0.015692     0.14464
0.069934     0.33011     0.14594    0.083251    -0.36466    0.045574     0.14626
0.074157     0.27879     0.13522    0.091696    -0.34355    0.059216     0.13587
0.09462     0.19499     0.10534    0.090072    -0.33672    0.054019     0.11768
0.12937    0.097218    0.060515    0.081303    -0.31139    0.035505    0.092996
0.17452   0.0078962    0.008221    0.066037    -0.23928    0.016991    0.066037
0.22422   -0.056091   -0.037577    0.043625    -0.10806    0.016341    0.045249
0.25995   -0.097991    -0.06616    0.018615    0.065712    0.043625    0.033556
0.25735    -0.12657   -0.076229  -0.0018481     0.26092    0.095594     0.02706
0.20148    -0.14639   -0.073306   -0.012892     0.46458     0.15763    0.019264
0.10469    -0.16458   -0.068758   -0.016464     0.66011     0.21545   0.0052977
0.0010752    -0.18894   -0.072331    -0.02426     0.81342     0.25507   -0.012567
-0.071032    -0.22272   -0.090521   -0.046022     0.88455     0.27359   -0.025234
-0.087597    -0.26624    -0.12333   -0.078827     0.84947     0.27749   -0.024585
-0.047321    -0.30912    -0.15808    -0.10806     0.71533     0.27716   -0.008669
0.030308    -0.32601     -0.1753     -0.1204     0.52174     0.27879    0.017316
0.11183    -0.29482    -0.16815    -0.10903     0.32069     0.28268    0.049472
0.1651    -0.21135    -0.14022   -0.076879     0.13684     0.28398    0.081303
0.17615    -0.10481    -0.10156   -0.032055   -0.046996     0.27424     0.10371
0.15016   -0.016464   -0.063886     0.01017    -0.25098     0.24143     0.11281
0.10371    0.022837   -0.037252    0.039727    -0.45073     0.18167     0.10696
0.054019    0.014717    -0.01614    0.058566    -0.55207     0.11248     0.09462
0.010819    -0.01484   0.0065969    0.075131    -0.47152    0.063438    0.086175
-0.018413   -0.034654    0.039078    0.095269    -0.22532    0.053044    0.083576
-0.031081   -0.022636    0.082602     0.12223    0.063763    0.083901    0.087799
-0.029132    0.025761      0.1245     0.15276     0.22714     0.15244     0.10371
-0.021337    0.094945     0.15373     0.18069     0.14854     0.24046       0.131
-0.016789     0.16023     0.16608     0.19758    -0.19348     0.32491     0.15861
-0.028157     0.20018     0.16543     0.19888    -0.72552     0.37623     0.17225
-0.068758     0.20343     0.16056     0.18264     -1.3134     0.37525      0.1638
-0.14152     0.16803     0.15244     0.14691     -1.8581     0.31679     0.13165
-0.23896     0.10794     0.14074    0.092996     -2.3463     0.20863    0.071883
-0.34679    0.040052     0.11995     0.02641     -2.7864    0.067661   -0.014516
-0.44099   -0.025234    0.081303   -0.046022     -3.1142   -0.085324    -0.11813
-0.48808   -0.085324    0.029333    -0.11488     -3.1853    -0.22726    -0.21752
-0.46437    -0.13729   -0.026533    -0.16912     -2.8592    -0.33997     -0.2906
-0.36271    -0.17659   -0.072006    -0.20453      -2.106     -0.4241    -0.32568
