0.16056   0.0052977    0.016016    0.031282       0.258    0.022837    0.062789
0.070259    0.027385     0.01764    0.037454     0.17257    0.011469     0.03518
-0.042449    0.020564   0.0095202    0.040702    0.061489   0.0049729    0.015692
-0.14444  -0.0044465   0.0020496    0.047523   -0.075904   0.0056225   0.0062721
-0.21102    -0.03173   0.0017248    0.056292     -0.2461    0.010495   0.0049729
-0.23311    -0.04862   0.0091954    0.063763    -0.44586    0.016991   0.0052977
-0.21427   -0.053168    0.021538     0.06831    -0.64724     0.01829    0.003024
-0.16912   -0.047971    0.028684    0.066362    -0.81192    0.012443  -0.0021729
-0.11878   -0.042449    0.023162    0.055643    -0.90676   0.0017248   -0.008669
-0.079152   -0.045697   0.0062721    0.036154     -0.9217   -0.011592    -0.01484
-0.054142   -0.060963   -0.018088    0.012443    -0.87396   -0.028482   -0.020362
-0.034329   -0.078178   -0.047971   -0.008669    -0.78691    -0.04992   -0.023285
-0.010293   -0.075255    -0.07493   -0.021337    -0.68524   -0.068758   -0.020687
0.015367   -0.037902   -0.088896   -0.022636     -0.5852   -0.078503   -0.017764
0.031932     0.02706   -0.085324   -0.015165    -0.49523   -0.078178    -0.01484
0.034855    0.098193   -0.069408  -0.0050961    -0.41403   -0.069083   -0.014191
0.030633     0.15146   -0.051868   0.0049729    -0.33737   -0.053492  -0.0093186
0.036154     0.17517   -0.038876    0.015367    -0.26559   -0.030756   0.0033489
0.059865     0.17062   -0.029457     0.02641    -0.20063  -0.0031473    0.022512
0.096893     0.14821   -0.018738    0.037454    -0.14411    0.027709    0.045574
0.13684     0.12385  -0.0031473    0.047198   -0.098965    0.059216    0.066686
0.17192     0.10989    0.016666    0.055318   -0.061937    0.088124    0.081303
0.19141     0.10956    0.032906    0.056292   -0.019712     0.10469    0.084551
0.18622     0.11541    0.037454    0.050771    0.034855     0.10599    0.076106
0.15276     0.11898    0.028684    0.038103    0.099492    0.089423    0.056942
0.091696     0.11086    0.015042    0.022188      0.1677    0.063113    0.036154
0.015692    0.090397   0.0039985   0.0078962     0.23234    0.042326    0.024786
-0.055441    0.059216  -0.0028225   0.0033489     0.29665    0.037129    0.023812
-0.10774    0.022188  -0.0028225    0.008221     0.37558    0.046223     0.02641
-0.13437   -0.017764   0.0072465    0.020888     0.47627     0.06084    0.021538
-0.13859   -0.057715    0.021538    0.038753     0.58573    0.070259    0.011794
-0.1217   -0.094418    0.030308    0.054993     0.68577    0.071558  0.00042559
-0.086298    -0.11553    0.030633    0.064413     0.76242     0.06961  -0.0093186
-0.030756    -0.10579    0.023487    0.063113     0.80952    0.070909    -0.01549
0.042651   -0.061288    0.010495    0.054344     0.82641    0.074157   -0.018413
0.12645   0.0033489  -0.0037969    0.038428     0.81017    0.078704   -0.019063
0.20213    0.064413    -0.01549    0.020888      0.7647    0.083901   -0.019063
0.25215    0.096244   -0.024585   0.0046481     0.70169    0.088124   -0.018088
0.27002    0.091696   -0.033679  -0.0080194      0.6325    0.086824   -0.018738
0.25702    0.061489   -0.038227    -0.01484     0.55942    0.078055   -0.021661
0.22357    0.023812   -0.032055   -0.017114      0.4714    0.061814   -0.025234
0.18492  -0.0034721   -0.016464   -0.016789     0.34764    0.039078   -0.027833
0.14626   -0.016464  0.00042559   -0.014191     0.16965    0.015367   -0.028482
0.10112   -0.019712    0.009845   -0.011917   -0.067134  -0.0099683   -0.029132
0.047523   -0.014516    0.012119   -0.011267    -0.34777   -0.037252   -0.033354
-0.0067202  0.00042559     0.01017   -0.012242     -0.6362   -0.062262    -0.04115
-0.04992    0.021538   0.0088706   -0.014191    -0.88403   -0.078178   -0.046347
-0.081101    0.038428    0.012119   -0.011592     -1.0523   -0.081751    -0.04115
-0.10416    0.045899    0.020239  -0.0041217     -1.1137   -0.078178   -0.020687
-0.12073    0.040052    0.031932   0.0036737     -1.0558   -0.077203   0.0095202
-0.12885    0.022837    0.044275   0.0095202    -0.87655   -0.084674    0.040052
-0.11618  -0.0060706     0.05207    0.015042    -0.59397   -0.097991    0.064413
-0.082725   -0.039526    0.052395    0.020564    -0.24253    -0.11293    0.080328
-0.038551   -0.071682    0.042326    0.024461     0.10306    -0.12365    0.086824
0.0010752   -0.090196    0.026735    0.022512     0.35674    -0.13047      0.0852
0.022512   -0.082725    0.010495    0.015692     0.45256    -0.13502    0.080328
0.021538   -0.046347 -0.00022403   0.0095202     0.38922    -0.13599    0.078055
0.00042559    0.003024  -0.0011985   0.0046481     0.22357    -0.13567    0.072533
-0.030756    0.045249   0.0033489   0.0017248    0.038428    -0.13047    0.059216
-0.058365    0.065387   0.0056225 -0.00054884   -0.093769    -0.12008    0.040702
-0.077528    0.064737   0.0033489  -0.0018481    -0.14152    -0.10189    0.022188
-0.087597    0.054993  -0.0041217 -0.00054884    -0.10936   -0.072006   0.0078962
-0.088247    0.046548  -0.0089938   0.0046481   -0.034329   -0.034329  -0.0044465
-0.084674    0.040702  -0.0063954    0.011144    0.044599   0.0039985    -0.01549
-0.0837    0.036479  0.00042559    0.014392     0.10696    0.031282   -0.023935
-0.088247    0.032257   0.0088706    0.012119     0.15016    0.041351   -0.027508
-0.09994    0.022837    0.015042   0.0052977     0.18362    0.040052   -0.029782
-0.11586   0.0052977     0.01764  -0.0057458     0.21967    0.038428   -0.030431
-0.12755    -0.01614    0.015692   -0.017764     0.25313    0.040052   -0.034329
-0.1269   -0.030756   0.0059473   -0.030756     0.27326     0.04395   -0.042774
-0.10806   -0.032705  -0.0063954     -0.0405     0.26709    0.044599   -0.054142
-0.072981   -0.019063   -0.017764   -0.043423     0.23364    0.040052   -0.064211
-0.034329  -0.0044465   -0.028482   -0.042124     0.18004    0.031282   -0.069083
-0.0044465  -0.0034721   -0.037252   -0.039851     0.11963    0.023487   -0.069408
0.011794    -0.01549   -0.038551   -0.038227    0.063113    0.015692   -0.066485
0.013093   -0.035953   -0.031406   -0.036602    0.014392   0.0078962   -0.064536
-0.0011985   -0.056741   -0.020362    -0.03303   -0.029132    0.003024   -0.067134
-0.022311   -0.072656  -0.0083442   -0.029132   -0.069408   0.0010752   -0.072006
-0.040175   -0.076554  0.00010078   -0.026209    -0.10059  0.00042559   -0.074605
-0.050244   -0.072006  0.00075039   -0.023935    -0.10806   0.0043233   -0.065186
-0.055116   -0.073306  -0.0063954   -0.021986    -0.09117    0.013418   -0.043423
-0.058689    -0.09117   -0.021337   -0.017114   -0.051544    0.032582   -0.015165
-0.060638    -0.12625   -0.043423   -0.010943  0.00042559    0.056617   0.0046481
-0.057065    -0.16328   -0.071032   -0.010293    0.054344    0.078379   0.0095202
-0.052518    -0.18569   -0.093444   -0.017114     0.10696    0.092021  0.00042559
-0.047971    -0.17952    -0.09994   -0.022636     0.15763    0.092671    -0.01484
-0.043748    -0.14281   -0.080776   -0.017439      0.2057    0.084551   -0.025559
-0.035628   -0.084674   -0.039526   0.0036737     0.23689     0.06831   -0.027183
-0.016789   -0.020037    0.010819    0.038428     0.23071     0.04395   -0.019063
0.01764    0.033556    0.058241    0.074806     0.17712    0.017316  -0.0057458
0.061489    0.066686    0.093645     0.10014    0.083251  -0.0093186    0.010495
0.098842    0.080328     0.11118     0.10729   -0.034329   -0.035303    0.026085
0.11606    0.091696     0.10761    0.097868    -0.15841   -0.062587    0.033231
0.11054     0.11768    0.084226    0.078055    -0.27793   -0.085324    0.027385
0.092671     0.15471    0.052395    0.055968    -0.38772    -0.10059    0.012119
0.079679     0.18687    0.020564    0.038103    -0.48516    -0.10319 -0.00022403
0.078704     0.19434  -0.0031473    0.026735    -0.56312   -0.089221   0.0010752
0.084551     0.16998    -0.01614    0.023812    -0.62256    -0.05739     0.01764
0.0865     0.12158   -0.019712    0.031282    -0.66803   -0.017439     0.04395
0.076106    0.072533   -0.014516     0.04395    -0.70376    0.017965    0.069934
0.054668    0.044599  -0.0031473    0.057267      -0.707    0.035505    0.090722
0.028684    0.045899   0.0095202    0.065712    -0.64692    0.031282     0.10209
0.0065969    0.067336     0.01829    0.067011    -0.51245   0.0059473     0.10209
-0.0057458    0.092021    0.019589    0.060515    -0.32666   -0.030106     0.09462
-0.0060706    0.098517    0.013093    0.049472    -0.13859   -0.062587    0.084551
0.0049729    0.082277   0.0020496    0.040052  -0.0044465   -0.078827    0.078704
0.01764    0.048497  -0.0067202     0.03583    0.041351   -0.076229    0.079679
0.02706   0.0056225   -0.013866     0.03518     0.01017   -0.062262    0.084876
0.030957   -0.035953   -0.018413    0.033881   -0.054792   -0.043099    0.090072
0.02706   -0.068434   -0.020037    0.029658   -0.095393   -0.030431    0.092021
0.016341   -0.087272   -0.019712    0.022837   -0.071682   -0.030106    0.085525
0.0052977    -0.09182   -0.016789    0.016666    0.023812   -0.036927     0.06831
-0.0028225     -0.0837   -0.010943    0.011469      0.1625   -0.041475    0.044924
-0.0060706    -0.06616  -0.0011985   0.0075714     0.29892   -0.037902     0.01829
-0.0044465   -0.042774   0.0091954  0.00010078     0.39572   -0.026533  -0.0073698
-0.0015233   -0.021661    0.015367   -0.010618     0.43924   -0.010618   -0.028157
-0.0015233   -0.008669    0.015692   -0.020687     0.43047   0.0046481   -0.044398
-0.008669  -0.0015233    0.013743   -0.030756     0.39117    0.016016   -0.059014
-0.024909   0.0017248   0.0065969     -0.0405     0.34635    0.023812   -0.071357
-0.046347  0.00042559  -0.0018481    -0.04992     0.31581    0.029983   -0.079802
-0.068109  -0.0015233  -0.0044465   -0.051544     0.30932    0.036479   -0.081751
-0.081101  -0.0050961  -0.0011985   -0.042774     0.32621    0.046548   -0.076229
-0.080776   -0.012892   0.0033489   -0.027183     0.35804    0.060515   -0.061937
-0.069408   -0.024585   0.0039985   -0.013216     0.39149    0.079679   -0.044723
-0.04992   -0.038551  -0.0028225   -0.012892     0.41488     0.10242   -0.028807
-0.023285   -0.050894   -0.013541   -0.028157     0.42462     0.12418   -0.010943
0.01017   -0.060313   -0.028157   -0.053817     0.42138     0.14139     0.01017
0.046548   -0.064211   -0.045047   -0.080127     0.40384     0.14854    0.033231
0.074482   -0.064211   -0.063237    -0.10059     0.37103     0.14464     0.05142
0.090722   -0.056741   -0.076554    -0.10968     0.32296      0.1271    0.056617
0.093321   -0.041475   -0.079477    -0.10449     0.26579     0.10274    0.047523
0.088448    -0.02426   -0.072656   -0.092794     0.19758    0.079354    0.031932
0.080328   -0.018738   -0.064211   -0.080776     0.11736    0.056292    0.016991
0.067986   -0.028482   -0.061613   -0.070058    0.020888    0.031932   0.0091954
0.048822    -0.04115   -0.059339   -0.059014   -0.086948   0.0075714    0.010819
0.025761   -0.036278   -0.047321   -0.042124    -0.18926   -0.015815    0.020564
0.0069217  -0.0083442   -0.020362   -0.020037    -0.26527   -0.034978    0.031282
-0.0047713    0.029009    0.013418   0.0010752    -0.30489   -0.054142    0.032906
-0.017764     0.06084    0.045249    0.014392    -0.31529   -0.080127    0.019264
-0.034329    0.078055    0.060515    0.019589    -0.30749    -0.11683  -0.0054209
-0.062587    0.076431    0.054019    0.015042    -0.29093    -0.16263   -0.036927
-0.10189     0.05272    0.030633   0.0049729    -0.27566    -0.20972   -0.069408
-0.14379    0.011794   0.0010752  -0.0057458    -0.27664    -0.25195   -0.091495
-0.17237   -0.031081   -0.021661   -0.018413    -0.31269    -0.28768   -0.098641
-0.17465   -0.062912   -0.032055   -0.033679    -0.40883    -0.31821   -0.089221
-0.14639   -0.076229   -0.034329   -0.050894     -0.5826    -0.34387   -0.065186
-0.089546   -0.070707   -0.036278    -0.06551    -0.81159    -0.35816   -0.038876
-0.021337   -0.053168     -0.0405   -0.072656     -1.0331    -0.35849   -0.019063
0.038103   -0.035303   -0.045697   -0.069083     -1.1773    -0.33867  -0.0093186
0.072858   -0.032055   -0.049595    -0.05739      -1.203    -0.29223  -0.0047713
0.083576   -0.045697   -0.047646   -0.039851     -1.1042    -0.22564  -0.0011985
0.087799   -0.060313   -0.035953   -0.017439    -0.90546    -0.15126  0.00042559
0.10436   -0.056091   -0.012242    0.012119    -0.65439     -0.0837   0.0023744
0.13295   -0.023285    0.021213    0.048497    -0.39454   -0.031406   0.0091954
0.15114    0.032582    0.053044    0.088448    -0.15873   0.0088706    0.019264
0.14204    0.092996    0.076431     0.12158    0.037454    0.041351    0.030308
0.10566     0.13684    0.083901      0.1362     0.18914    0.067986    0.037778
0.057267     0.14919    0.072208     0.12807      0.3025     0.08585    0.038103
0.013743     0.13035    0.041676    0.099167      0.3811    0.092021    0.029333
-0.010293    0.090722   0.0020496    0.058241     0.43404    0.083901   0.0085458
-0.013866    0.046223   -0.028482    0.016991      0.4675    0.064413   -0.020687
-0.0067202    0.014392     -0.0405   -0.015815     0.48536    0.045899   -0.049595
-0.0044465   0.0046481   -0.038551   -0.034004     0.48699    0.041351   -0.062912
-0.014516     0.01017   -0.031406   -0.037577     0.47692    0.053369   -0.053817
-0.036927    0.011469   -0.027833   -0.027833     0.45646    0.069934   -0.031406
-0.075255   -0.011592   -0.031081   -0.013541     0.42495      0.0865  0.00075039
-0.13437   -0.056416   -0.039201   0.0036737     0.38142     0.10566    0.035505
-0.20875    -0.10286   -0.045047    0.020564     0.33011     0.12678    0.069934
-0.28021    -0.12203   -0.043748    0.038428     0.27846     0.14854    0.099167
-0.32406   -0.096692    -0.03238     0.06084     0.23006     0.16835     0.12125
-0.32471   -0.029782   -0.011267    0.090722     0.18264     0.18134     0.13327
-0.28378    0.053044    0.011794     0.11638     0.12418     0.18037     0.13132
-0.21265     0.11703    0.027385      0.1284    0.047198      0.1638     0.11508
-0.12982     0.13944    0.028684     0.12223   -0.044723      0.1349      0.0852
-0.045372     0.11995    0.016341     0.10274    -0.14087     0.10339    0.047523
0.044275    0.083251 -0.00022403    0.076431    -0.22077    0.076106    0.012119
0.14302    0.056942   -0.011267    0.051096    -0.26981    0.058241  -0.0060706
0.23981    0.049472   -0.010943    0.032257    -0.28411    0.054993  -0.0044465
0.30899    0.053369  -0.0063954    0.024786    -0.27046    0.062139    0.010495
0.32393    0.052395  -0.0050961    0.024786    -0.23668    0.077405    0.025111
0.27294    0.038428  -0.0083442    0.025761    -0.19348     0.10371    0.029333
0.16998    0.012119   -0.014516    0.023812    -0.14606     0.14432    0.022188
0.045574   -0.018088   -0.024585    0.019264   -0.097017     0.19434   0.0085458
-0.068109   -0.042449   -0.034329    0.012119   -0.048296     0.23429  -0.0047713
-0.14606   -0.048296   -0.037902   0.0020496  -0.0041217     0.24825   -0.017439
-0.17692   -0.030756   -0.030431   -0.011592    0.032582     0.22617   -0.031081
-0.16198  0.00075039   -0.013541   -0.027183    0.056942      0.1716   -0.046022
-0.1178    0.023162   0.0072465   -0.039201    0.067011    0.099492   -0.059664
-0.064536    0.015042    0.021538   -0.044723    0.064088    0.023812   -0.070382
-0.014516   -0.029132    0.023812   -0.044398    0.054344   -0.045372   -0.075255
0.03518   -0.090845    0.014392   -0.046996     0.05207    -0.10286   -0.069408
0.091047    -0.13794  -0.0034721   -0.053168    0.052395    -0.14606   -0.053817
0.15049    -0.14931   -0.019388   -0.060963    0.045574    -0.17919   -0.038551
0.19401    -0.12105   -0.025559   -0.064211     0.01894     -0.2081   -0.031081
0.19888   -0.069408   -0.017764   -0.059014   -0.034654    -0.24221   -0.036278
0.15211   -0.020362  -0.0060706   -0.047321    -0.10644    -0.28118   -0.052518
0.069285   0.0095202  -0.0018481   -0.040175    -0.17432    -0.31756   -0.073306
-0.023935    0.011794  -0.0076946   -0.035953    -0.21687    -0.34484   -0.093119
-0.093769   -0.014516   -0.017764   -0.034329     -0.2172    -0.35816    -0.10579
-0.12203   -0.053492   -0.026209    -0.03173    -0.17205    -0.36109    -0.10579
-0.10319   -0.082076   -0.029782   -0.031081    -0.10091    -0.35296   -0.094093
-0.045697   -0.077203   -0.025884    -0.03173   -0.029782    -0.33867   -0.080451
0.028359   -0.029457    -0.01484   -0.030106    0.024786    -0.32406   -0.073631
0.090722    0.048172  -0.0021729   -0.026209    0.058241    -0.31042   -0.075904
0.12093     0.12353   0.0078962   -0.019388    0.074806    -0.28963   -0.086298
0.11671     0.16738    0.012443   -0.012242    0.079679    -0.25715   -0.092469
0.097218      0.1755    0.016016  -0.0054209    0.079679    -0.21265   -0.085973
0.085525      0.1638    0.023162   0.0036737    0.082602    -0.15873   -0.069083
0.092346     0.15373    0.033556    0.012443    0.092346    -0.10059   -0.051868
0.11508     0.15633     0.04395    0.021863     0.10599   -0.046996   -0.039851
0.14009     0.16348    0.050121    0.029658      0.1206  -0.0047713   -0.035953
0.15081     0.16056     0.05142     0.03583     0.13814    0.034206   -0.037577
0.13295     0.13847    0.050446      0.0433      0.1625    0.072533   -0.043748
0.083901    0.088773    0.047198    0.049147     0.18849     0.11216   -0.054467
0.016016    0.021538    0.042651    0.049147     0.20765     0.14886   -0.062262
-0.046022   -0.044398    0.036479     0.04395     0.21447     0.17582   -0.062912
-0.079802   -0.092145    0.026735     0.03453     0.21058     0.18589   -0.051544
-0.078827    -0.11293    0.013093    0.023162     0.19953     0.17939   -0.028807
-0.055766    -0.11488  -0.0031473    0.012443     0.18232     0.16121 -0.00087364
-0.030431    -0.10806   -0.019712   0.0052977     0.15666     0.14269     0.02641
-0.018413   -0.097991   -0.034329   0.0010752      0.1258     0.13295    0.049796
-0.027508     -0.0837   -0.045047  -0.0028225     0.10631     0.13587     0.06896
-0.052193    -0.06551   -0.053168  -0.0031473     0.11118     0.14529    0.081627
-0.080776   -0.046022   -0.050569   0.0036737     0.13587     0.15276    0.080328
-0.10286   -0.023285   -0.032055    0.014717     0.17225     0.15471    0.063763
-0.11326   0.0052977  -0.0011985    0.026085      0.2109     0.14789    0.038753
-0.11196    0.039727    0.035505     0.03453     0.24013      0.1336    0.012443
-0.10384    0.071558    0.067986    0.038428     0.25475     0.11054  -0.0089938
-0.094418    0.089748    0.087149     0.03453      0.2619    0.080003   -0.025234
-0.085324    0.083251    0.082277    0.021213     0.26774    0.047523   -0.037902
-0.071357    0.046223    0.043625  -0.0024977     0.27651    0.021538   -0.040175
-0.046671  -0.0099683   -0.017114   -0.030106     0.28398    0.010819    -0.03173
-0.012567   -0.064211   -0.078503   -0.053817     0.28203    0.018615    -0.01614
0.020239   -0.096042    -0.11618   -0.066485     0.26222    0.038428 -0.00087364
0.037129    -0.09929     -0.1191   -0.064211     0.22292    0.059541   0.0091954
0.029333    -0.08305   -0.095068   -0.052843     0.16803    0.073832     0.01894
0.0020496   -0.055766   -0.059339   -0.035953     0.10859    0.075456    0.031932
-0.03173   -0.021986   -0.022961   -0.016464     0.05142     0.06831    0.044924
-0.05804    0.011144   0.0062721   0.0017248    0.003024    0.057267    0.051096
-0.067459    0.033881    0.022512    0.012768   -0.034004    0.044275    0.047847
-0.057065    0.039727    0.023162     0.01764   -0.066485     0.02641    0.038428
-0.034004    0.032582    0.013743    0.020239    -0.11033   0.0069217    0.028684
-0.010618    0.020888   0.0026992    0.023162    -0.17659  -0.0076946    0.023812
0.0033489    0.010495   -0.007045    0.027709    -0.25617   -0.010293    0.025111
0.003024   0.0026992   -0.014516    0.032257    -0.31659 -0.00022403    0.031607
-0.011592  -0.0060706   -0.018088    0.031932    -0.32276    0.010819    0.041027
-0.038876   -0.020362   -0.016464    0.025436     -0.2591    0.014717    0.048822
-0.072006   -0.039201   -0.010943    0.017316    -0.13502    0.009845    0.052395
-0.10091   -0.051544  -0.0018481    0.014392    0.019264  -0.0011985    0.056617
-0.11488   -0.047321    0.009845     0.01764     0.17387   -0.014191    0.061165
-0.11131   -0.026533    0.020564    0.026085     0.30607    -0.02361    0.059865
-0.092469  -0.0024977    0.026085    0.034206     0.39896   -0.030106    0.050771
-0.06616    0.014392    0.027385    0.038753     0.43859   -0.036927    0.037778
-0.040825    0.021213    0.023162    0.039727     0.42203   -0.044723     0.02706
-0.025559    0.019914    0.013743    0.039402       0.347   -0.050569    0.021863
-0.027508    0.012443      0.0014    0.033231     0.22194   -0.047971    0.021213
-0.046671   0.0010752  -0.0050961    0.022512    0.057267    -0.03303    0.022837
-0.078178   -0.008669  -0.0024977    0.010819    -0.14249   -0.011917    0.019914
-0.10838   -0.017764   0.0049729   0.0033489    -0.36498   0.0052977   0.0069217
-0.11845   -0.023935    0.012443  -0.0028225    -0.57351    0.010495   -0.012567
-0.09929   -0.024909    0.016666  -0.0083442    -0.73169  0.00010078   -0.027833
-0.052518   -0.021661    0.017316   -0.011592    -0.83595   -0.023935   -0.029132
0.015367   -0.020687    0.012119   -0.014516    -0.90741   -0.060638   -0.019388
0.093321   -0.026858   0.0017248   -0.017764    -0.97789    -0.10384  -0.0050961
0.16673   -0.038227  -0.0096434   -0.018413     -1.0695    -0.14541    0.010819
0.22389   -0.046022   -0.018738   -0.012892     -1.1747    -0.17302    0.029983
0.2567   -0.044398   -0.024585  -0.0047713     -1.2605    -0.17984     0.05207
0.26092   -0.030431   -0.031081   0.0020496       -1.29     -0.1701    0.074482
0.24273  -0.0054209   -0.039851   0.0046481     -1.2446    -0.14899    0.092671
0.21058    0.024786   -0.045372   0.0039985     -1.1237    -0.12105     0.10047
0.1729    0.052395   -0.044723  0.00042559    -0.95191   -0.090196    0.095919
0.13522    0.070259   -0.035628 -0.00054884     -0.7606   -0.058689    0.083251
0.098517    0.079029   -0.022636   0.0033489    -0.57383   -0.029132    0.072533
0.064413    0.082602  -0.0093186   0.0088706    -0.39811   -0.007045    0.066362
0.034206    0.082602  -0.0028225    0.008221     -0.2133  -0.0011985    0.056942
0.010495    0.078704  -0.0037969  -0.0057458   0.0039985   -0.013541    0.042001
-0.0050961    0.067986   -0.012242   -0.025884     0.25378   -0.036927    0.026085
-0.012242    0.048822   -0.026858   -0.040175     0.50615   -0.059014    0.013093
-0.01484    0.024137   -0.040175   -0.042774     0.71598   -0.070707   0.0065969
-0.017114 -0.00054884   -0.046671   -0.034978     0.84363    -0.07428   0.0062721
-0.02426   -0.018088   -0.041799   -0.021661     0.87838   -0.067784    0.016016
-0.035303   -0.021012   -0.024909  -0.0080194     0.84395   -0.055116    0.030308
-0.046996   -0.011267  -0.0057458      0.0014     0.77672   -0.041799    0.040377
-0.05739   0.0043233    0.012768   0.0072465     0.70721   -0.027183    0.041676
-0.064536     0.01764    0.029333    0.012768     0.64874   -0.010943    0.036804
-0.067459    0.021863    0.041676    0.017965     0.60132   0.0017248     0.02706
-0.068434    0.016341    0.045899    0.021213     0.55585   0.0052977    0.016016
-0.062912    0.008221    0.038428    0.017316     0.50485 -0.00054884   0.0036737
-0.052193 -0.00054884    0.018615   0.0056225     0.44769   -0.013216  -0.0099683
-0.033679   -0.012892  -0.0083442   -0.013216     0.39084   -0.029457    -0.02426
-0.0076946   -0.031081   -0.036278   -0.034654     0.34537    -0.04927   -0.034654
0.023162   -0.056416   -0.057715   -0.051219     0.32198   -0.067134   -0.038876
0.054019     -0.0837   -0.070382   -0.056416     0.31776   -0.077528   -0.038876
0.076106    -0.10221   -0.073306   -0.048296     0.32458   -0.076229   -0.035953
0.080653    -0.10806   -0.067784   -0.030431     0.33368   -0.069083   -0.032055
0.058241    -0.10156   -0.055766   -0.010293     0.33303   -0.059339   -0.028482
0.0075714   -0.085648   -0.039526    0.011794     0.31679   -0.046996   -0.027508
-0.05804   -0.069733   -0.021012    0.034206     0.28853    -0.03173   -0.029782
-0.1178    -0.05739  0.00010078    0.056942      0.2541   -0.016464   -0.039526
-0.15841   -0.050244    0.023487    0.078055     0.21642  -0.0028225   -0.051219
-0.17237   -0.047646    0.043625    0.093321     0.17842   0.0075714   -0.058365
-0.15646   -0.043748    0.055643     0.10014     0.14367    0.017965   -0.056416
-0.1178   -0.031081    0.058241    0.098517     0.11313    0.029333   -0.043423
-0.073306  -0.0044465    0.056292    0.093645     0.08585    0.044924   -0.018738
-0.034004    0.036804    0.054344    0.090072    0.057267    0.062464    0.011144
0.0014    0.081952    0.056617    0.088448    0.026735    0.076431    0.038428
0.039402     0.11508    0.062464    0.085525  -0.0076946    0.080653    0.058566
0.074482     0.12255    0.067011    0.075781   -0.047646    0.073507    0.067986
0.095919     0.10079    0.057267    0.056942   -0.089221     0.06019    0.064737
0.098193    0.063763    0.028034    0.030308    -0.13015    0.042326    0.049147
0.092021    0.035505   -0.013216   0.0017248    -0.16718     0.02706     0.02641
0.089748     0.03453   -0.050244   -0.018738    -0.20323    0.018615   0.0036737
0.09462    0.063438   -0.072656   -0.026209    -0.23928    0.016016   -0.011267
0.10371     0.10631    -0.07493   -0.017439    -0.26981    0.019589   -0.015165
0.10956     0.13879   -0.060638  -0.0018481    -0.28735    0.029333  -0.0057458
0.10047     0.14399   -0.041799    0.011794     -0.2867    0.041351    0.012768
0.071558     0.12028   -0.025884     0.01764    -0.26657    0.051096    0.033881
0.029009    0.080653   -0.014516     0.01894    -0.23538    0.057592    0.053369
-0.016464    0.036154  -0.0057458    0.021538     -0.2094    0.062464    0.065062
-0.052193  -0.0021729   0.0017248    0.022837    -0.20388    0.063763    0.062139
-0.071032   -0.033679   0.0046481    0.019914    -0.21817    0.061165    0.047847
-0.075255   -0.060638  -0.0015233    0.013418    -0.24773    0.054668    0.023162
-0.07428   -0.080451   -0.017114   0.0036737    -0.28216    0.045249  -0.0063954
-0.07493   -0.080776    -0.03303  -0.0067202    -0.30619    0.040377   -0.031406
-0.078503   -0.054142     -0.0405   -0.012892    -0.30847    0.036479   -0.053168
-0.089546   -0.007045   -0.038551   -0.016464    -0.28703    0.028684   -0.072331
-0.10546    0.040052   -0.029132   -0.018413     -0.2474    0.016991   -0.092794
-0.12138    0.070584    -0.01614   -0.018738    -0.19348   0.0075714    -0.11488
-0.13015    0.078379  0.00010078   -0.018088     -0.1204   0.0036737    -0.13177
-0.12268    0.067661    0.017965   -0.014191   -0.018088    0.013418    -0.13242
-0.092794    0.046548    0.030633  -0.0015233     0.10371    0.036804    -0.11521
-0.04927    0.024461     0.03518    0.017965     0.21805     0.06961   -0.086623
-0.012242   0.0062721    0.032257    0.036154     0.30315     0.10339   -0.056416
0.0036737   -0.012242    0.017965    0.045574     0.34732     0.12483   -0.034654
-0.0041217   -0.037902  -0.0099683    0.046548     0.35771     0.12937   -0.022636
-0.026533   -0.071682   -0.042449    0.042975     0.35024     0.11963   -0.016464
-0.046022    -0.10611   -0.069408    0.042651     0.34472     0.10566   -0.012567
-0.053168    -0.13502    -0.08305    0.049796     0.35187    0.095269  -0.0089938
-0.042774    -0.14476   -0.079152    0.061814     0.36551    0.090072  -0.0057458
-0.015165    -0.11715   -0.058689    0.072533      0.3746    0.083251  -0.0083442
0.028359   -0.042774   -0.026533    0.076431     0.37071    0.070584   -0.016789
0.081303    0.059865   0.0069217     0.06831     0.35154    0.042651   -0.030106
0.1258     0.15438    0.031607    0.045574     0.32101  -0.0018481   -0.044723
0.15179      0.2044    0.040377    0.014392     0.29275   -0.059339   -0.052518
0.15406     0.19693    0.032906   -0.020037     0.27846    -0.12105   -0.052843
0.13847     0.14204    0.013418    -0.04992     0.27261    -0.17724   -0.046671
0.11248    0.067661   -0.012567   -0.075579     0.24598    -0.22467     -0.0405
0.081627  -0.0028225   -0.036927   -0.093769     0.16608    -0.26007   -0.036602
0.057917   -0.054142   -0.051219   -0.099615    0.020239    -0.28346   -0.036927
0.047523   -0.080451   -0.049595   -0.092469    -0.16847    -0.29677   -0.037902
0.057917     -0.0837    -0.03238   -0.076554    -0.35394    -0.30165   -0.038227
0.078704    -0.07493   -0.010293   -0.059014    -0.50075    -0.29515   -0.037577
0.087799   -0.064211   0.0069217   -0.046022    -0.59007    -0.27371   -0.036278
0.071234   -0.055766    0.013418    -0.04115    -0.61508    -0.23376   -0.033354
0.028359   -0.044073    0.012768    -0.04115    -0.58553    -0.18147    -0.02426
-0.023935   -0.026533    0.012768   -0.043099    -0.51764    -0.12463  -0.0083442
-0.072331  -0.0041217    0.015367   -0.043748    -0.43059   -0.071357    0.012443
-0.10384     0.01829    0.020239   -0.044073    -0.33185   -0.028157    0.033556
-0.11488     0.03453    0.026085   -0.047646    -0.23441  0.00042559     0.05142
-0.10936    0.042326    0.029009   -0.062262    -0.15711    0.014068    0.065712
-0.096042     0.04395    0.023812   -0.084674    -0.10774    0.014068    0.070909
-0.084999    0.042326     0.01017    -0.10806   -0.084999   0.0059473    0.062789
-0.0824    0.036479   -0.010943      -0.123   -0.090196  -0.0044465    0.039078
-0.090521    0.017965   -0.036602    -0.12592    -0.12105   -0.011592   0.0059473
-0.10449   -0.021661   -0.059664    -0.12138    -0.17367   -0.011267   -0.024909
-0.11618   -0.086623   -0.073631    -0.11358    -0.24123  -0.0018481   -0.041475
-0.11813    -0.16198   -0.078178    -0.10774    -0.31561    0.016666   -0.042449
-0.10709    -0.21947   -0.076554    -0.09994    -0.38155     0.03583   -0.034329
-0.0837    -0.23181   -0.071357   -0.087272     -0.4267    0.051096   -0.023935
-0.050894    -0.19056   -0.062587   -0.072656    -0.43774    0.056617    -0.01549
-0.017114    -0.11098   -0.050244   -0.058365    -0.41208    0.051745   -0.011592
0.013093   -0.018413   -0.036278   -0.047321    -0.35459    0.040377  -0.0073698
0.038753    0.059865   -0.018413   -0.038876    -0.28183    0.029658  -0.0034721
0.053369     0.10696    0.003024   -0.029782    -0.21785    0.023812  -0.0024977
0.054993     0.11541    0.023487   -0.019388    -0.18439    0.024137  -0.0076946
0.047198    0.088448    0.037454  -0.0099683    -0.18959    0.028034   -0.019063
0.037454    0.040702    0.040377  -0.0037969    -0.21655    0.023812    -0.03173
0.030308   -0.011267     0.03453    0.003024    -0.24318    0.012768   -0.039201
0.024786   -0.052843    0.023162   0.0062721     -0.2552   0.0010752   -0.042124
0.021863   -0.076554    0.011144    0.008221    -0.24156  -0.0044465   -0.040175
0.01829   -0.079477   0.0020496   0.0085458    -0.19836  -0.0057458   -0.036927
0.0088706   -0.061288  -0.0034721   0.0056225     -0.1334  -0.0073698   -0.035303
-0.010293   -0.027508  -0.0054209 -0.00022403   -0.059664   -0.013216   -0.033354
-0.031081    0.014392  -0.0054209  -0.0028225    0.013418   -0.020362   -0.030431
-0.0405    0.054019  -0.0067202  -0.0018481    0.079354   -0.024585   -0.027508
-0.029457    0.076106  -0.0096434   0.0069217     0.13327   -0.020687   -0.025559
-0.0028225    0.069934   -0.013216    0.019589     0.16933   -0.010943   -0.019388
0.018615    0.038103   -0.012242    0.036804     0.18654  -0.0021729   -0.008669
0.013418  -0.0041217 -0.00054884    0.059541     0.18816  -0.0047713   0.0062721
-0.028482   -0.037902    0.027385    0.089748     0.18751   -0.014516     0.02641
-0.097666    -0.04992    0.067661     0.12418     0.19628   -0.027183    0.047523
-0.16847   -0.042124     0.10729     0.15536     0.21707   -0.043423     0.06084
-0.2133   -0.025559     0.13132     0.17647     0.23851   -0.064211    0.060515
-0.21525  -0.0093186     0.13002      0.1729     0.24403   -0.088247    0.044924
-0.17335   0.0026992     0.10436     0.14367     0.22682    -0.11001    0.026085
-0.10124   0.0026992    0.061489     0.10242     0.19499     -0.1269    0.016016
-0.017439   -0.019712    0.017316    0.068635     0.16218    -0.13567    0.024137
0.057592   -0.060313   -0.013541    0.056292     0.14042    -0.14152    0.044275
0.10664   -0.092794   -0.022961    0.061165     0.12515    -0.14281    0.059865
0.12515   -0.095393   -0.019388     0.06896     0.10761    -0.13957    0.059541
0.11801   -0.068109   -0.018413    0.064737     0.07773     -0.1334    0.039727
0.092996   -0.025234   -0.028807    0.047198    0.036804    -0.12203   0.0049729
0.06084    0.024786   -0.046022    0.026085  -0.0047713    -0.10481   -0.033679
0.02706    0.076106    -0.05739    0.011794   -0.038551   -0.084024   -0.062587
-0.0024977     0.12288   -0.050894    0.010495   -0.052843   -0.061288   -0.070382
-0.025234     0.15341   -0.025884     0.01829   -0.041475   -0.034654   -0.057065
-0.037902     0.16348    0.013093    0.033881  -0.0034721  0.00042559   -0.025234
-0.041799     0.15438    0.048172    0.051745    0.053694    0.041676    0.014392
-0.04115     0.13067    0.067336    0.067661     0.11541    0.083901    0.048497
-0.039851    0.099167    0.066037    0.076755     0.16478     0.11898    0.069934
-0.038227    0.068635    0.049796    0.075781     0.19044     0.13977    0.080653
-0.030106    0.047198    0.027385    0.059865     0.19141     0.14561    0.082602
-0.010943    0.039727   0.0095202    0.031932     0.17517     0.13977    0.080328
0.018615    0.042651   0.0017248   0.0036737     0.14919     0.12613    0.079354
0.052395    0.048822  0.00075039   -0.014516     0.11931     0.11021    0.078704
0.081627    0.049147  0.00010078   -0.019388    0.096569    0.097218    0.079354
0.098193    0.039402  -0.0089938   -0.013216    0.086824    0.088448    0.078055
0.095919    0.018615   -0.027183  -0.0018481    0.087474    0.084876    0.074482
0.079029   -0.010618   -0.047321   0.0078962    0.092996      0.0852    0.068635
0.057267   -0.039526   -0.056416    0.013743     0.10469    0.087474    0.059216
0.041351   -0.059339   -0.047646    0.013418     0.12515    0.091047    0.050121
0.036154   -0.062587   -0.024585    0.012119     0.15763    0.094945     0.04395
0.041351    -0.04927   0.0056225    0.015692     0.19823    0.097543    0.038753
0.054993   -0.024585    0.031607    0.023162     0.23656     0.10014    0.030957
0.068635 -0.00054884    0.041676    0.029333     0.26319     0.10144    0.020888
0.071558    0.015367    0.031932    0.027709     0.27944    0.099817    0.012119
0.054993    0.019914   0.0091954    0.021538     0.28723    0.094945   0.0049729
0.022837    0.019589   -0.010943    0.014068     0.28918    0.085525 -0.00054884
-0.011592    0.023162   -0.017764   0.0052977     0.28756    0.070259  -0.0054209
-0.03303     0.03518   -0.010618  -0.0028225     0.28236     0.05207   -0.011917
-0.033354    0.048497   0.0017248  -0.0073698     0.27132    0.038103   -0.017764
-0.016464    0.050771    0.010495  -0.0080194     0.24533    0.028034   -0.021337
0.0078962    0.029983    0.009845   -0.008669     0.20343    0.019589   -0.023285
0.038103  -0.0093186  -0.0018481   -0.014191     0.15244    0.012119   -0.025884
0.078379   -0.046022   -0.022311   -0.024909     0.10014   0.0078962   -0.029132
0.12905   -0.059014   -0.045697   -0.036278    0.046873   0.0046481   -0.031406
0.18199   -0.045697   -0.065835   -0.044073   -0.011917   0.0033489   -0.029457
0.22032   -0.017114   -0.072981   -0.046996   -0.077853   0.0095202   -0.029132
0.23136     0.01017   -0.066485   -0.046671    -0.15483    0.029009   -0.037252
0.21123    0.026735   -0.051219   -0.042774    -0.24805    0.061165   -0.052843
0.16153    0.031932    -0.03173   -0.034978    -0.35037    0.098193   -0.070058
0.096893    0.027709   -0.013216   -0.020362    -0.44586     0.12905   -0.080127
0.03453    0.015042   0.0017248  -0.0054209    -0.51212     0.14399    -0.08305
-0.014191  0.00075039    0.011144   0.0069217    -0.53681     0.13717     -0.0824
-0.042774  -0.0089938    0.013743    0.010495    -0.51764     0.10696   -0.079477
-0.058689  -0.0057458   0.0095202   0.0036737      -0.466     0.06084   -0.073631
-0.073955   0.0095202  0.00075039  -0.0073698    -0.39909   0.0095202   -0.063237
-0.093119    0.029983  -0.0041217   -0.015165    -0.33413   -0.039526   -0.046347
-0.11326    0.047198  -0.0060706   -0.014516    -0.27988   -0.084674   -0.029782
-0.12657     0.06084  -0.0080194  -0.0073698    -0.24156    -0.12625   -0.016789
-0.12885    0.070259   -0.013216  0.00042559     -0.2159    -0.16035  -0.0073698
-0.12008    0.069934   -0.021986   0.0062721    -0.19251    -0.18569  -0.0031473
-0.10286    0.054019   -0.034654   0.0062721    -0.16458    -0.20063  -0.0041217
-0.074605    0.020239    -0.04927 -0.00022403    -0.12787    -0.20972   -0.007045
-0.035303   -0.016789   -0.062912   -0.010293   -0.080776    -0.22337  -0.0067202
0.0062721   -0.037577   -0.075579   -0.019712   -0.020687    -0.24448 -0.00022403
0.036154   -0.029457   -0.084024    -0.02426    0.058241    -0.26689    0.012443
0.05142   0.0023744   -0.084674   -0.020037     0.15341    -0.28151     0.02641
0.053694    0.042975   -0.076229  -0.0099683     0.24825    -0.28443    0.037778
0.042975    0.072533   -0.062262  0.00042559     0.32783    -0.27534    0.041351
0.015042    0.074482   -0.047971   0.0039985     0.37915    -0.25715    0.038428
-0.028482    0.049472   -0.035953   0.0026992     0.39767    -0.22467    0.038428
-0.078178   0.0049729   -0.024585   0.0026992     0.38402    -0.17984    0.050771
-0.11651   -0.043748   -0.012567    0.011144     0.34472     -0.1269    0.075781
-0.12787     -0.0824  -0.0031473    0.024786     0.28398   -0.076879     0.10599
-0.11196    -0.09994   0.0020496     0.03583     0.21058   -0.039526     0.12872
-0.076554    -0.09182   0.0049729    0.037129     0.13814   -0.023935     0.13814
-0.03303   -0.064536    0.009845    0.026735    0.073507    -0.03173     0.12872
0.0059473   -0.031081    0.015692    0.012119   0.0062721   -0.051544     0.10339
0.029658  -0.0015233    0.020239   0.0026992   -0.090196   -0.071032     0.06896
0.032906    0.016016    0.020239   0.0010752    -0.23051   -0.077528    0.033881
0.021213    0.021538    0.014392   0.0023744    -0.39454   -0.067784   0.0033489
0.0056225    0.016991   0.0033489   0.0059473    -0.54428   -0.046022   -0.022636
-0.0047713   0.0043233  -0.0096434   0.0049729    -0.63977   -0.021661   -0.044723
-0.0093186   -0.014191   -0.020362  -0.0031473    -0.66705  -0.0044465    -0.06551
-0.0047713   -0.036278   -0.027833   -0.015165    -0.63652 -0.00054884   -0.084349
0.0062721   -0.056741   -0.030756   -0.023935    -0.56929   -0.008669    -0.10091
0.023162   -0.070707   -0.028157   -0.025559    -0.48159   -0.021986    -0.11131
0.040377   -0.079152   -0.023935   -0.019388    -0.38674   -0.030106    -0.11586
0.050121   -0.082076   -0.018413  -0.0096434    -0.30229   -0.029132    -0.11715
0.040377    -0.08305   -0.012567  0.00075039    -0.23376   -0.020687    -0.11553
0.010819   -0.082725   -0.007045   0.0065969    -0.17594  -0.0024977    -0.10741
-0.028157    -0.07493  -0.0044465   0.0052977    -0.12138    0.023487   -0.089546
-0.064861   -0.056416  -0.0034721 -0.00054884   -0.068758    0.054993   -0.058689
-0.094093   -0.027183  -0.0018481  -0.0060706   -0.013866    0.089423   -0.013866
-0.11293   0.0043233  0.00042559   -0.007045      0.0433     0.12223    0.036479
-0.12235    0.028684   0.0043233   0.0010752     0.10014     0.14724    0.079029
-0.12203    0.041351    0.011469    0.016341     0.15309     0.15893     0.10371
-0.10968    0.041027    0.020888    0.028684     0.19953     0.15373     0.10664
-0.089221    0.031607    0.029658    0.031282     0.23689     0.13392    0.091372
-0.069083    0.015042     0.03518    0.023812     0.26287     0.10469    0.065387
-0.053492  -0.0057458     0.03453   0.0088706     0.28398    0.073832    0.034206
-0.045047   -0.027833    0.028034  -0.0044465     0.30802    0.046548   0.0023744
-0.045047   -0.048296    0.021863   -0.013541      0.3418    0.028034   -0.025559
-0.051219    -0.06616    0.020564   -0.019063      0.3811    0.016341   -0.046671
-0.053817   -0.078827    0.021213   -0.025559      0.4217    0.016991   -0.056091
-0.04115   -0.082725    0.019589   -0.029457     0.45905    0.031282   -0.054792
-0.010618   -0.076879    0.014392   -0.030106     0.48406     0.05142   -0.048296
0.030633   -0.064211   0.0036737   -0.025234     0.48536    0.065712     -0.0405
0.070259    -0.04115  -0.0054209   -0.012567     0.46068    0.070259   -0.029132
0.098842  0.00075039  -0.0057458   0.0062721      0.4243    0.067011  -0.0096434
0.11054    0.057917   0.0036737    0.025761     0.39637    0.062464    0.024461
0.10177     0.11573    0.018615    0.038753     0.38532    0.063113    0.071234
0.078704     0.15698    0.036804    0.043625     0.39084    0.069934     0.12158
0.062139     0.17192    0.049796    0.042001     0.40514    0.080653     0.15926
0.061814     0.16153     0.05207    0.032257     0.41618    0.088124      0.1755
0.071558     0.13652    0.039078     0.01829     0.41131    0.085525     0.16965
0.080328     0.10696    0.016666   0.0062721     0.37493    0.075456     0.14984
0.074482    0.080328  -0.0041217    0.003024     0.30022    0.058241      0.1219
0.053694    0.058566    -0.01549   0.0078962     0.19044    0.039078    0.092671
0.026735    0.044275   -0.012242    0.018615    0.054019     0.01894     0.06961
0.00010078    0.033881   0.0026992    0.030633    -0.10774   0.0026992    0.050771
-0.020362    0.023162    0.020239    0.037778     -0.2984   -0.012242    0.033231
-0.034004    0.010819     0.03453    0.036479    -0.51017   -0.028157    0.016341
-0.039201      0.0014    0.038103    0.028359    -0.69921   -0.046996  -0.0015233
-0.038876  -0.0031473    0.033881    0.015692    -0.82004    -0.07428   -0.019388
-0.034004  -0.0031473    0.024461 -0.00022403    -0.85739    -0.10741   -0.033679
-0.024585  -0.0024977    0.012443   -0.017114    -0.82686    -0.13729   -0.043748
-0.012567  -0.0060706   0.0072465   -0.030106    -0.75378    -0.15126   -0.045372
-0.0041217   -0.014191    0.013418   -0.036927     -0.6664    -0.14476   -0.042774
-0.0041217    -0.02361    0.023812   -0.038876    -0.58553    -0.12073   -0.036278
-0.018088   -0.030756    0.028034   -0.037577    -0.51927   -0.089871   -0.029782
-0.045047   -0.038551    0.021213   -0.034654    -0.47672   -0.066485   -0.028157
-0.077528   -0.052518   0.0059473   -0.031406      -0.466   -0.051868   -0.030106
-0.10871   -0.075579   -0.010293   -0.028157    -0.49296   -0.046022   -0.034978
-0.1295    -0.10416   -0.022961    -0.02426    -0.54915   -0.042449   -0.042124
-0.13534    -0.13632   -0.030106   -0.020687    -0.60794   -0.030756   -0.046347
-0.12398    -0.17335   -0.033354   -0.015815    -0.63815  -0.0093186   -0.043099
-0.10221    -0.21622   -0.037902   -0.008669    -0.62061     0.01764   -0.036278
-0.076229     -0.2552   -0.045372 -0.00087364    -0.55207    0.039402   -0.034654
-0.050569    -0.26234   -0.059664   0.0046481    -0.44943    0.044599   -0.045047
-0.025234    -0.21232   -0.075579   0.0056225    -0.32438    0.034206   -0.063886
0.0046481    -0.10806    -0.08305  0.00042559    -0.17205    0.013093   -0.077853
0.044275    0.023487   -0.073955   -0.011267    0.015367   -0.011917   -0.079152
0.092346     0.14756   -0.051219   -0.027508     0.23234   -0.036602   -0.062912
0.14302     0.24046    -0.02361   -0.043423     0.45418   -0.059014   -0.039526
0.18102     0.29373      0.0014   -0.046996     0.64192   -0.072006   -0.021012
0.19109     0.30639    0.022188   -0.034004     0.76535   -0.073955   -0.012892
0.1677     0.28008    0.034855  -0.0089938     0.81439   -0.067134   -0.016464
0.11508     0.21805    0.036804    0.018615     0.79718   -0.051868   -0.029457
0.051096     0.13847    0.028684    0.039402     0.74034   -0.031406   -0.043748
-0.0021729    0.058241    0.013093    0.050446     0.67667  -0.0083442   -0.054467
-0.029132  -0.0057458  -0.0080194    0.050771     0.63413    0.014717    -0.05804
-0.031406   -0.046996   -0.025884    0.045574     0.62341    0.035505   -0.046996
-0.018738   -0.064861    -0.03238    0.044924     0.62308    0.045899   -0.028482
-0.0063954   -0.064861   -0.029457    0.046873     0.59385    0.038103   -0.008669
0.00075039   -0.054792    -0.02426    0.044599     0.49121   0.0069217   0.0046481
0.0026992   -0.045047   -0.019712    0.035505     0.29633   -0.043423   0.0091954
0.009845   -0.038227   -0.020687    0.022512     0.03518    -0.10059   0.0043233
0.028684   -0.030756   -0.026858   0.0078962    -0.22142    -0.14769   -0.011917
0.055318   -0.018088   -0.033354  -0.0054209    -0.40071    -0.17205   -0.032055
0.073832  -0.0015233    -0.03238   -0.015165    -0.45495    -0.16977   -0.043423
0.072208    0.014392   -0.022961   -0.020037    -0.38772    -0.14541    -0.04115
0.045249    0.023812   -0.011917   -0.016464    -0.24188    -0.10514   -0.031406
0.0046481    0.028359   -0.007045   -0.007045   -0.075255   -0.060313   -0.021986
-0.036602    0.029658   -0.008669   0.0023744    0.053369   -0.020687   -0.015815
-0.067134    0.029333   -0.013866   0.0072465     0.11736   0.0088706   -0.011592
-0.082076    0.030308   -0.018088   0.0036737     0.11703    0.023487  -0.0096434
-0.0837     0.03518   -0.018088  -0.0047713    0.067661    0.023812   -0.012242
-0.076554    0.044924   -0.010293   -0.019388   -0.018088    0.015692    -0.01614
-0.068758    0.057267   0.0033489   -0.034329    -0.13145   0.0078962   -0.019388
-0.065186    0.063438    0.015367   -0.043423    -0.26137   0.0062721   -0.019388
-0.069408    0.059541     0.01894   -0.044073    -0.38967    0.010819   -0.014516
-0.073955    0.041676    0.011794   -0.035953    -0.48938    0.021863  -0.0028225
-0.070058    0.009845  -0.0021729   -0.018413    -0.53518    0.034206   0.0095202
-0.055441   -0.027833   -0.015165   0.0036737    -0.52901    0.041351    0.021213
-0.038876   -0.055441   -0.022636    0.024461    -0.49068    0.041676    0.031932
-0.027508   -0.063237   -0.021661    0.039727    -0.44911     0.03518    0.040702
-0.021986    -0.04992   -0.013866    0.047198    -0.42377     0.02641    0.047523
-0.017764   -0.025884  0.00010078    0.050121     -0.4137    0.020564    0.050121
-0.018738  -0.0067202    0.016666    0.052395    -0.39779     0.01894    0.047847
-0.023935  -0.0021729    0.029983    0.055643    -0.35004    0.019914    0.042975
-0.031081   -0.007045    0.037778     0.06084     -0.2552    0.022512    0.037129
-0.032705   -0.012567    0.041027    0.061814    -0.12105    0.031282     0.03453
-0.020037  -0.0067202    0.037129    0.054344    0.029009    0.046223    0.036804
0.011144    0.013743    0.028684    0.037778     0.16998    0.062464    0.044599
0.049796    0.042001     0.01764    0.021863     0.28366    0.078704    0.054344
0.085525    0.063438   0.0072465   0.0072465     0.35966    0.092346    0.059865
0.10729    0.067986  -0.0028225  -0.0041217     0.39377     0.10014     0.06084
0.11736    0.057917   -0.011267  -0.0076946     0.38727    0.095919    0.058241
0.11963    0.039402   -0.019063  -0.0083442     0.34894    0.080328     0.05207
0.11898    0.021213   -0.026858  -0.0050961     0.28788    0.058241    0.041351
0.11768    0.012119   -0.030756  0.00075039     0.21025    0.030957    0.026735
0.11476    0.013743   -0.028482    0.010495     0.12613 -0.00054884   0.0095202
0.10696    0.023812   -0.016789    0.021213     0.05142    -0.03303  -0.0093186
0.089748     0.03583   0.0010752    0.031932   0.0062721   -0.062587   -0.028482
0.067986    0.042651    0.019589    0.037129   0.0088706    -0.08305   -0.046671
0.048497    0.038103    0.027709    0.032257    0.058241   -0.092469   -0.064211
0.039402    0.022512    0.018615    0.020239      0.1349   -0.087272   -0.077528
0.042326  -0.0044465  -0.0083442   0.0088706     0.22162   -0.070382   -0.083375
0.056942   -0.037252   -0.043748   0.0043233     0.29795   -0.050569   -0.076229
0.075456   -0.064861   -0.071682    0.009845     0.34992   -0.035303   -0.057715
0.087149   -0.075579   -0.077528    0.022188     0.36941   -0.021337   -0.037252
0.079679    -0.06551    -0.05739    0.034855     0.35479  -0.0093186   -0.022311
0.049796   -0.041475   -0.021012    0.045249     0.31029  -0.0028225    -0.01484
0.003024   -0.012567    0.016991    0.052395     0.25475  -0.0047713   -0.018413
-0.047321    0.016016    0.045574    0.054019     0.20895   -0.016789   -0.024585
-0.084674    0.039727    0.059216    0.046873     0.19109   -0.035303   -0.028482
-0.10351    0.052395    0.057592     0.03453     0.19986   -0.052518   -0.024909
-0.10416    0.051096    0.043625    0.021863     0.22649   -0.060638   -0.017114
-0.098316     0.03453    0.019914    0.011469     0.25572   -0.055766  -0.0089938
-0.092469   0.0036737   -0.010618   0.0023744     0.27749   -0.041799 -0.00087364
-0.086948   -0.034978   -0.042124  -0.0054209     0.28626   -0.022311   0.0059473
-0.084674    -0.07428    -0.06616   -0.010618     0.27911  -0.0047713    0.008221
-0.0837    -0.10091   -0.075579   -0.015815      0.2541   0.0049729   0.0049729
-0.081426    -0.10514   -0.071032   -0.022311     0.21155   0.0056225  -0.0028225
-0.076879   -0.081751   -0.053817   -0.028482     0.15568 -0.00054884  -0.0099683
-0.068109   -0.036927   -0.028482   -0.027508    0.095594   -0.010618   -0.012242
-0.051544    0.017965  -0.0044465   -0.023285    0.040702   -0.020362  -0.0093186
-0.030431     0.06896    0.008221   -0.017764  -0.0024977   -0.026858  -0.0034721
-0.0099683     0.10469    0.010495   -0.010618   -0.031081   -0.025884   0.0023744
0.0059473     0.11995   0.0059473  -0.0073698   -0.045047   -0.016789   0.0052977
0.014392     0.11216  -0.0011985  -0.0076946   -0.046996  -0.0028225    0.011144
0.014068    0.087474  -0.0080194  -0.0096434   -0.046671    0.013743    0.016666
0.0088706    0.051745    -0.01614   -0.013541   -0.051544    0.022837    0.021538
0.0020496    0.015042   -0.027508   -0.020687   -0.063561     0.01894    0.023162
-0.012242   -0.013216   -0.038227   -0.032055   -0.084349      0.0014    0.021538
-0.033354   -0.028807   -0.046996   -0.043423    -0.10838   -0.025234    0.016016
-0.055766   -0.034978   -0.050244   -0.046347    -0.13145   -0.052518    0.011469
-0.075579   -0.037902   -0.046347   -0.038876    -0.14866   -0.069733    0.008221
-0.086948   -0.037252   -0.034978    -0.02361    -0.15158   -0.071357   0.0052977
-0.087922   -0.037252   -0.017439  -0.0041217    -0.14184   -0.058689 -0.00022403
-0.080776   -0.042124      0.0014    0.015692    -0.12592   -0.038227  -0.0067202
-0.069733   -0.051868    0.015692    0.034206     -0.1204   -0.016789   -0.010943
-0.059664   -0.064211    0.022512    0.046548    -0.13015  0.00042559   -0.011267
-0.059989   -0.074605    0.023162    0.048822    -0.14736    0.013093  -0.0096434
-0.07493     -0.0824    0.017965    0.044599    -0.16198    0.023162  -0.0096434
-0.10416   -0.090521   0.0043233    0.033231    -0.17335    0.032582   -0.013541
-0.13469   -0.095068    -0.01614    0.017965    -0.17984    0.039402   -0.017439
-0.15711   -0.090521   -0.040825  -0.0015233    -0.17919    0.041676   -0.019388
-0.161   -0.077528   -0.060313   -0.020362      -0.174    0.037454   -0.017439
-0.14834   -0.062262   -0.063237    -0.03238    -0.16035    0.030308    -0.01549
-0.12527   -0.056416   -0.046996   -0.028807    -0.13404    0.020239    -0.01549
-0.095717   -0.062587   -0.017439   -0.012567   -0.096367    0.010495   -0.018413
-0.060313   -0.072656    0.013418    0.008221   -0.057715   0.0017248   -0.022311
-0.014191   -0.073631    0.033556    0.026085   -0.028807  -0.0060706   -0.021012
0.038103   -0.061937    0.038103    0.032582    -0.01614    -0.01549   -0.012242
0.079354   -0.044073    0.030633    0.027709  -0.0099683   -0.024909  -0.0031473
0.098193   -0.025559    0.016341    0.013418    0.003024   -0.035303  -0.0050961
0.092346   -0.010293   0.0017248   -0.007045    0.029009   -0.048945   -0.023285
0.069285  -0.0037969   -0.017764   -0.030756    0.054019   -0.064861   -0.052843
0.045249  -0.0037969   -0.044073   -0.057065    0.056617   -0.081751   -0.078827
0.038753  -0.0083442   -0.072331   -0.081101    0.014068   -0.093119   -0.085648
0.057592  -0.0073698   -0.089221   -0.093119   -0.080776   -0.097991   -0.067784
0.089748   0.0039985   -0.085324   -0.087597    -0.22272    -0.10026   -0.034329
0.11736    0.018615   -0.062262   -0.070382     -0.3861    -0.10091   0.0023744
0.13197    0.029658   -0.026858   -0.045047    -0.52966    -0.10286    0.034206
0.13684    0.034206   0.0062721   -0.018738    -0.61703    -0.10416    0.058566
0.13652     0.03453    0.029009   0.0039985     -0.6284    -0.10806    0.070259
0.12905    0.037778    0.039727    0.019264    -0.57643    -0.11975    0.067986
0.11443    0.047523    0.042001    0.029658    -0.48744    -0.13957    0.058891
0.091372    0.060515    0.044599    0.037129    -0.38707    -0.16328    0.050771
0.066686    0.071883    0.046548    0.047198    -0.29288    -0.17757    0.045899
0.049796    0.078055     0.05272    0.059865    -0.21265    -0.17562    0.049472
0.047198    0.076431    0.063438    0.071234    -0.14931    -0.15776    0.061165
0.053044    0.066686    0.074157     0.07773   -0.095717    -0.12885    0.078055
0.061489    0.053369     0.07773    0.076106   -0.046671   -0.098641    0.093645
0.069285    0.042001    0.072858    0.067011  -0.0047713   -0.072981    0.097218
0.073182    0.035505    0.059216    0.058566    0.027385   -0.050894    0.086175
0.072858     0.03518    0.042326    0.054019    0.052395   -0.034329    0.067336
0.066362    0.036479    0.026085    0.054993    0.072208   -0.019063    0.047523
0.054344     0.03583    0.015042    0.057267    0.094295  0.00042559    0.033881
0.039402    0.033556     0.01017     0.06084     0.12255    0.023162    0.028359
0.024786    0.029009    0.009845    0.061489     0.14919    0.044599    0.029658
0.014068    0.027385    0.013743    0.056942     0.15958    0.056292    0.031282
0.011469    0.027385    0.016341    0.046548     0.14009    0.055318    0.026085
0.015042    0.028034    0.016991    0.033231      0.0852    0.043625    0.015042
0.022837    0.030957    0.016341    0.024461  -0.0018481    0.029333 -0.00022403
0.028684    0.037454    0.020239    0.022188    -0.10189     0.01829   -0.015815
0.024786    0.046548    0.031932    0.025436    -0.19154    0.013093   -0.030106
0.0062721    0.054993    0.046223    0.030633    -0.25422     0.01017   -0.044398
-0.028157    0.054668    0.055968    0.031282    -0.28378   0.0072465   -0.057065
-0.073306    0.042001    0.051096    0.022188     -0.2867   0.0046481   -0.066485
-0.11813     0.01017    0.030308   0.0046481    -0.27014    0.003024   -0.072331
-0.14866   -0.038551  -0.0028225   -0.017764    -0.23733   0.0039985   -0.074605
-0.15353   -0.097017   -0.042124   -0.042774    -0.18829    0.012119   -0.075904
-0.12917    -0.14964   -0.079477   -0.063561    -0.11553    0.026085   -0.075255
-0.0824    -0.17887   -0.099615   -0.072331    -0.01614    0.040377   -0.069733
-0.019388    -0.17205   -0.098316   -0.064861    0.099492     0.05207   -0.058365
0.044599    -0.12722   -0.078178   -0.044723      0.2161    0.066362   -0.030431
0.088124   -0.054792   -0.047646   -0.017439     0.31159    0.086175    0.014068
0.09462    0.029333   -0.017764   0.0069217     0.36778     0.10859    0.064088
0.058241     0.10047   0.0059473    0.019914     0.37233     0.12743     0.10469
-0.0037969     0.14107    0.020564    0.022188     0.32718      0.1362      0.1232
-0.069408     0.14594    0.021863    0.016991     0.23851       0.131     0.11086
-0.11845      0.1232   0.0088706   0.0043233     0.12223     0.11216    0.074806
-0.13924    0.083251    -0.01614   -0.013866   0.0039985    0.089423    0.030957
-0.1308    0.033231   -0.045697    -0.03238   -0.093119    0.070259  -0.0060706
-0.096367   -0.017764   -0.070058   -0.043099    -0.15646    0.062789   -0.023285
-0.044073   -0.054142   -0.072656   -0.040175    -0.17822     0.06961   -0.017764
0.015042   -0.061613   -0.051544   -0.028482    -0.16555    0.088773   0.0059473
0.068635   -0.040825   -0.016464   -0.013866    -0.12625     0.11378    0.038428
0.10566   0.0010752    0.015367   0.0033489   -0.070707     0.13392    0.069934
0.1206    0.053044    0.036479    0.021863   -0.015165     0.14074    0.091047
0.12125     0.10339    0.046223    0.036154     0.01829     0.13327    0.095594
0.11866     0.14042    0.046223      0.0433     0.01764     0.11411    0.084876
0.11606     0.15179    0.040052    0.044599  -0.0089938    0.087149    0.062139
0.10924       0.131    0.030633    0.039727    -0.04115    0.053369     0.03518
0.093645    0.090072    0.019264    0.029983   -0.063886    0.021213    0.008221
0.068635    0.044275   0.0085458     0.01764   -0.072331  -0.0067202   -0.014191
0.040702    0.010819 -0.00054884   0.0069217   -0.066485   -0.027183   -0.027183
0.014068  -0.0034721  -0.0067202      0.0014   -0.046996   -0.038876    -0.03173
-0.011267  -0.0021729   -0.008669   0.0017248  -0.0067202   -0.043099   -0.030106
-0.039526   0.0075714  -0.0050961  0.00010078    0.048172   -0.041799   -0.024585
-0.068109    0.017965 -0.00087364   -0.012892    0.098842   -0.041475   -0.021012
-0.088247    0.023487  -0.0028225   -0.034978     0.11118   -0.044723   -0.017764
-0.097341     0.01829   -0.013541   -0.054792    0.063113   -0.051868   -0.012892
-0.095393 -0.00022403   -0.029132   -0.064536   -0.034004   -0.060963  -0.0060706
-0.08305   -0.025234     -0.0405   -0.059989    -0.14411   -0.067134  0.00075039
-0.063561   -0.045372   -0.041799   -0.041475    -0.22434   -0.070058   0.0039985
-0.043099    -0.04992   -0.034654   -0.021986    -0.24675   -0.069408  0.00075039
-0.028157   -0.043423   -0.025559   -0.012892    -0.20453   -0.062587  -0.0096434
-0.019712    -0.03238   -0.022636   -0.013541    -0.10838   -0.037577   -0.022636
-0.01484   -0.025884   -0.027833   -0.022636    0.023162    0.012443   -0.033354
-0.011592   -0.029457   -0.034978   -0.032705      0.1703    0.084226   -0.038227
-0.0083442   -0.044073    -0.04115   -0.038876     0.31419     0.16218   -0.036278
-0.0044465   -0.064861   -0.044723   -0.036927     0.43372     0.22844   -0.028807
-0.0063954   -0.083375   -0.046996   -0.028157      0.5146     0.26839   -0.021337
-0.016789    -0.09117   -0.044723    -0.01484     0.55195     0.27326   -0.016789
-0.03303   -0.086298   -0.035953 -0.00054884     0.55487     0.24208   -0.014191
-0.04927   -0.071682   -0.020687    0.011794     0.53603     0.18394   -0.018088
-0.062587   -0.054792  -0.0073698    0.016016     0.50875     0.10761   -0.026533
-0.068434   -0.042449  0.00042559    0.010819     0.47757    0.022837    -0.03238
-0.062587   -0.034978  -0.0024977  0.00075039     0.43599   -0.059664   -0.034978
-0.051219   -0.028807   -0.013541  -0.0057458      0.3785    -0.13372   -0.034329
-0.039526   -0.025559   -0.025884   -0.007045     0.29568    -0.19511   -0.035628
-0.03303   -0.022311   -0.033679  -0.0073698     0.19206    -0.24318     -0.0405
-0.03303   -0.017764   -0.033354  -0.0063954    0.083251    -0.27728   -0.045372
-0.030431  -0.0096434   -0.023285 -0.00022403   -0.017764    -0.29807   -0.042124
-0.023935  0.00075039  -0.0099683    0.012119    -0.11488    -0.31204   -0.036278
-0.012892   0.0095202      0.0014    0.026735    -0.23376    -0.33088   -0.032705
0.0023744    0.011794    0.010495    0.033231    -0.39032    -0.36076   -0.032055
0.015367   0.0069217    0.019264     0.02706    -0.57351    -0.39714    -0.03238
0.021538 -0.00054884    0.029009    0.013418    -0.74826    -0.42767   -0.032705
0.015692  -0.0031473    0.038428  -0.0015233     -0.8824    -0.44196   -0.034004
-0.0037969   0.0043233    0.042651   -0.011267    -0.95418    -0.43384   -0.039526
-0.032705    0.015367    0.041027    -0.01549    -0.95743    -0.40493   -0.048945
-0.059664    0.023812     0.03518    -0.01614    -0.89247    -0.35589   -0.057065
-0.070382    0.028684    0.029009   -0.013541    -0.77034     -0.2932   -0.055766
-0.059014    0.025436    0.025436   -0.007045    -0.60534    -0.22791   -0.044073
-0.02426    0.013093    0.022837   0.0043233     -0.4241    -0.16685   -0.025234
0.019589  -0.0024977    0.019589    0.015367     -0.2552    -0.11521  -0.0096434
0.053694   -0.019712    0.010495    0.021538    -0.11553   -0.076229  -0.0031473
0.065712   -0.034978  -0.0060706     0.01894   -0.014516   -0.050244  -0.0067202
0.058566   -0.046996   -0.028807   0.0091954    0.042975   -0.031406   -0.017439
0.041027   -0.056091   -0.052193  -0.0021729    0.059865   -0.010943   -0.030431
0.020564   -0.066485   -0.067134  -0.0076946    0.038428    0.016666     -0.0405
-0.00087364   -0.079152   -0.067134  -0.0037969   -0.015815    0.046223   -0.045047
-0.028807    -0.09117   -0.052518   0.0020496   -0.086948    0.076755   -0.044073
-0.064211   -0.093769   -0.030431   0.0069217    -0.15516    0.098193   -0.041799
-0.10059   -0.080451   -0.014191   0.0049729    -0.18894     0.10469   -0.038876
-0.13145   -0.051219  -0.0099683  -0.0037969    -0.16133     0.09462   -0.038551
-0.14866   -0.014516   -0.020037   -0.017764   -0.051868    0.071883   -0.036927
-0.14574    0.014068   -0.036278   -0.034978     0.13749    0.045899   -0.032055
-0.1243    0.022188    -0.04927   -0.047646     0.37948    0.031607    -0.02426
-0.094743   0.0039985   -0.055116   -0.049595     0.63153     0.03518   -0.020037
-0.062262   -0.034978   -0.056091   -0.044398     0.84525    0.052395   -0.026209
-0.029132   -0.079152   -0.055766   -0.038551     0.98427    0.073182   -0.039201
0.0065969    -0.10059   -0.055441   -0.034004      1.0375    0.097543   -0.046671
0.038753   -0.077528   -0.053168   -0.028157      1.0174     0.11963   -0.042449
0.059216  -0.0096434   -0.044073   -0.017439     0.94854     0.13977   -0.026209
0.064737    0.082927   -0.022311 -0.00087364     0.85564     0.15796  -0.0083442
0.054019     0.17225    0.009845    0.021213      0.7582     0.17225 -0.00087364
0.031607     0.23559    0.045899      0.0433     0.66336     0.18102  -0.0063954
0.0052977     0.26027    0.076431    0.056942     0.56981     0.18816   -0.016464
-0.026858      0.2476    0.092671    0.059541     0.47075     0.19726   -0.022311
-0.070382     0.20505    0.091372     0.05207     0.35576      0.2044   -0.019388
-0.11878     0.14464    0.069934    0.038103     0.21188     0.20343  -0.0060706
-0.16035    0.075781     0.03453    0.020888    0.023812     0.18946    0.014068
-0.18439   0.0095202  -0.0037969   0.0046481     -0.2081     0.16445    0.028684
-0.18309   -0.045697   -0.032705   -0.007045     -0.4569     0.12937    0.032257
-0.14996   -0.090196   -0.046022   -0.010943      -0.669    0.089748    0.029333
-0.087922    -0.12885   -0.047321  -0.0076946    -0.79698    0.057917    0.027709
-0.010293    -0.15418   -0.039851  0.00075039    -0.81874    0.045574     0.03453
0.064737    -0.15126   -0.031081    0.012443    -0.74566    0.056617     0.05142
0.12028    -0.11033   -0.023935    0.026085    -0.61411    0.082602    0.075781
0.15049   -0.035953   -0.019063    0.033231    -0.46243     0.10664     0.10631
0.15568    0.049796   -0.012567    0.032257    -0.30912     0.11768     0.13035
0.14432     0.12418 -0.00022403    0.029658    -0.16068     0.11281     0.13944
0.12548     0.17322    0.013418    0.028684   -0.013866    0.095919      0.1323
0.11248     0.19628    0.026085    0.034855     0.13392     0.06896     0.11833
0.11346     0.18946    0.036479    0.044599     0.27976    0.041027     0.10696
0.12775     0.15536    0.044275    0.049796     0.41618    0.019589     0.10079
0.14334     0.10469    0.048822    0.046223     0.52856    0.008221     0.09462
0.14399    0.058566    0.044924    0.036154     0.60262   0.0056225    0.081627
0.11638    0.029983    0.036154    0.022512     0.62568   0.0043233    0.062789
0.06084     0.01894    0.028034   0.0069217     0.59677  -0.0024977    0.040052
-0.0073698    0.016666    0.020239  -0.0073698     0.51849   -0.017114     0.01764
-0.069408    0.017316    0.016016   -0.018413     0.39539   -0.031081 -0.00022403
-0.10611    0.014717    0.015367   -0.025234     0.22065   -0.041475   -0.012567
-0.11261   0.0091954    0.016341   -0.025884  -0.0057458   -0.044398    -0.01614
-0.094743 -0.00054884    0.015692   -0.020687     -0.2565   -0.040825  -0.0096434
-0.068758    -0.01614   0.0078962   -0.016789    -0.48451   -0.032705   0.0049729
-0.042124   -0.032705  -0.0037969   -0.017764    -0.64692   -0.020687     0.01894
-0.015165   -0.042774  -0.0093186   -0.021337    -0.72454  -0.0076946    0.023812
0.009845   -0.039526  -0.0041217    -0.02426    -0.73526   0.0020496    0.018615
0.033231   -0.023285    0.008221   -0.026209     -0.7148   0.0056225   0.0052977
0.050446   0.0017248    0.017316   -0.028807    -0.69206  -0.0015233   -0.010943
0.06019    0.026085    0.012443   -0.035303    -0.67582    -0.01549   -0.021986
0.065712    0.041351  -0.0041217   -0.047321    -0.64821   -0.028157   -0.024909
0.06831    0.044924   -0.020687   -0.058365    -0.57741   -0.031406   -0.019712
0.069285    0.039727   -0.025884   -0.063561    -0.43806   -0.023935  -0.0021729
0.067011    0.028684   -0.020687   -0.060638    -0.24026   -0.011592    0.023487
0.063763     0.01829  -0.0089938   -0.051219   -0.029457  -0.0024977    0.047847
0.060515   0.0095202  0.00075039   -0.041475     0.13717  -0.0044465     0.06084
0.054668   0.0020496   0.0043233   -0.036278     0.22519   -0.025234    0.055968
0.047847  -0.0060706   0.0010752   -0.033354     0.23754   -0.061937    0.030957
0.041351   -0.017439  -0.0080194   -0.028157     0.20505    -0.10319  -0.0063954
0.036154   -0.028807   -0.019712   -0.018738     0.16835    -0.13827   -0.044398
0.030633   -0.032705   -0.029782  -0.0041217     0.14951    -0.16003   -0.071682
0.022837   -0.029457   -0.032705    0.013743     0.14561    -0.16847   -0.084024
0.011469   -0.027833   -0.026858    0.030308     0.14496    -0.16685   -0.087922
-0.0050961    -0.03173    -0.01484    0.040702     0.13814    -0.15711   -0.090845
-0.023935   -0.040825  -0.0011985     0.04395     0.11346    -0.14346   -0.090196
-0.035303   -0.047321    0.008221    0.045574    0.061165    -0.13112   -0.079802
-0.032055    -0.04115    0.013743    0.048172   -0.020362    -0.12203    -0.05739
-0.0083442   -0.018088    0.013418    0.054344    -0.11715    -0.11618   -0.028482
0.029333    0.017965    0.011144     0.06084    -0.19413    -0.11423  -0.0018481
0.069285    0.056942    0.012119    0.064413     -0.2159    -0.11748    0.013093
0.092671      0.0852     0.01764    0.064088      -0.174     -0.1256    0.011794
0.091696    0.084226    0.020888    0.059865   -0.084999    -0.13632  0.00010078
0.066362    0.049796    0.016341    0.054344    0.018615    -0.14639   -0.016789
0.028034  -0.0060706    0.003024    0.046873     0.11118    -0.15646   -0.033354
-0.0096434   -0.059339   -0.012242     0.03518     0.17355    -0.16588   -0.044073
-0.037902   -0.094418    -0.02361    0.023487     0.19499    -0.17335   -0.048296
-0.053168    -0.10709   -0.027833    0.015367      0.1742    -0.17497   -0.042774
-0.054142    -0.10806   -0.028157    0.013093     0.12515    -0.16523   -0.026858
-0.041475    -0.10774   -0.027183    0.015042    0.068635    -0.14281  -0.0057458
-0.013866    -0.10579   -0.025234    0.023812    0.027709    -0.11196    0.016341
0.020239   -0.092145   -0.022311    0.035505    0.016666   -0.076879    0.032906
0.048497   -0.060638   -0.013541    0.049472     0.03453   -0.043423     0.04395
0.062139   -0.020037  0.00010078    0.062139    0.065712   -0.017439     0.05272
0.061814    0.015367    0.014068    0.070909     0.09462    0.003024    0.061814
0.056617    0.033231    0.026735    0.079679     0.11054    0.022837    0.075781
0.056617    0.028684    0.037778    0.091047     0.11606    0.044924    0.095919
0.066686   0.0072465    0.045899     0.10079     0.11931    0.067661     0.11931
0.084226   -0.019063    0.050771     0.10436      0.1297    0.089098     0.13912
0.098517   -0.044073    0.048497    0.096893     0.15211     0.10794     0.14269
0.10047   -0.062912    0.029983     0.07708     0.18264     0.12093      0.1232
0.088773   -0.074605  -0.0021729    0.048497     0.20798     0.12353    0.086175
0.064088   -0.071357   -0.034978    0.019914      0.2109     0.11638    0.042651
0.029333   -0.051219   -0.057715 -0.00087364     0.18557     0.10599   0.0049729
-0.011267   -0.017439   -0.060313  -0.0096434     0.14074    0.098517   -0.012892
-0.052843    0.014392   -0.043748   -0.010618    0.092671    0.097543   -0.010943
-0.095717    0.030308   -0.017764   -0.011592    0.062464     0.10112      0.0014
-0.13437     0.02706   0.0039985   -0.013216    0.059216     0.10339    0.010495
-0.15808    0.010819    0.008221   -0.018738    0.080003    0.099817   0.0036737
-0.1623  -0.0096434  -0.0089938   -0.030106     0.11378    0.082927   -0.025884
-0.15223   -0.028157   -0.034654   -0.039526     0.15276    0.054019   -0.070707
-0.13567    -0.04115   -0.053492   -0.040825     0.19499    0.020564    -0.11651
-0.1191   -0.045047   -0.055441   -0.028807     0.23429  -0.0018481    -0.14476
-0.10319   -0.038876   -0.039851   -0.010943     0.26352  -0.0044465    -0.14476
-0.084024   -0.025884   -0.018738   0.0059473     0.27781    0.010495     -0.1178
-0.057065  -0.0083442  -0.0050961    0.014392     0.27196    0.031607   -0.078827
-0.02361   0.0085458   -0.007045    0.012768     0.24598    0.046548   -0.045372
0.012119    0.017965   -0.024585   0.0036737     0.20635    0.044275   -0.027833
0.042651     0.01894   -0.051544   -0.011592     0.16121     0.02641   -0.025559
0.056617    0.019264   -0.072656   -0.026209     0.11638  -0.0018481   -0.029132
0.053044    0.030633   -0.081101   -0.036278    0.079029   -0.026858   -0.028157
0.03453    0.051096   -0.072006   -0.034654    0.051096   -0.038227   -0.015815
0.010495    0.074157   -0.046671   -0.018738    0.028684   -0.034329      0.0014
-0.008669    0.089098   -0.013866    0.008221    0.013093   -0.023285    0.016016
-0.022961    0.088448    0.015692    0.037129   0.0023744   -0.013541     0.01829
-0.041475    0.074482    0.032582    0.061165   -0.013866  -0.0076946   0.0065969
-0.071682    0.055643    0.034206    0.076431   -0.044073  -0.0096434   -0.014516
-0.11001    0.037129    0.024461    0.080978   -0.091495   -0.019063   -0.037902
-0.14476     0.01829    0.010495    0.074482    -0.15061   -0.030756   -0.054792
-0.16588  -0.0067202  -0.0041217    0.061165    -0.21817   -0.039526    -0.05804
-0.16653   -0.042449   -0.013216    0.047198    -0.29515   -0.041799    -0.04862
-0.14736   -0.084349   -0.014516    0.037129     -0.3796   -0.034004   -0.032055
-0.11163    -0.11618  -0.0080194    0.031932     -0.4634    -0.01484   -0.012242
-0.059014     -0.1204    0.003024    0.030957    -0.53128    0.013418   0.0085458
0.012768   -0.089546    0.010819    0.029333    -0.57026    0.042001    0.027385
0.097868   -0.032705   0.0095202    0.023812    -0.58358     0.06019    0.042001
0.18102    0.029009   0.0023744    0.013743    -0.58325    0.064413    0.048822
0.24078    0.071883  -0.0057458  0.00075039    -0.58325     0.06019    0.050446
0.26742    0.089748  -0.0067202   -0.012892    -0.59527    0.061489     0.05142
0.25832    0.085525 -0.00054884   -0.018088    -0.61736    0.074806    0.053694
0.22065    0.067986   0.0095202   -0.011917    -0.63457    0.096893    0.058241
0.16965    0.042001    0.015692   0.0020496    -0.63262     0.11606    0.065062
0.12158    0.014392    0.017965     0.01829    -0.60761     0.12645    0.070259
0.087149  -0.0054209     0.01894    0.028684    -0.56312      0.1219    0.071558
0.065712    -0.01549    0.019914    0.024461     -0.4988    0.097868    0.066037
0.050771   -0.017114    0.020888    0.008221    -0.41598    0.058891    0.055318
0.036804   -0.014191    0.020239   -0.013216    -0.32081    0.012119    0.041676
0.023162   -0.010293    0.016341   -0.035303    -0.21655   -0.033354    0.028034
0.015692  -0.0054209   0.0072465   -0.053168    -0.10514   -0.072006    0.017316
0.011469   0.0010752  -0.0080194   -0.062262    0.014717   -0.095068   0.0091954
0.0075714    0.011144   -0.026533   -0.058365     0.13782   -0.098641   0.0095202
0.00042559    0.024461   -0.041799   -0.041799     0.25345   -0.087272    0.014717
-0.010293    0.038753   -0.045697   -0.021986     0.34927   -0.072656    0.021863
-0.022961     0.05207   -0.035953  -0.0050961      0.4191   -0.063886    0.024461
-0.033354    0.062139   -0.012892    0.003024     0.45483   -0.063886    0.018615
-0.036278     0.06831    0.016341   0.0046481     0.42527   -0.074605   0.0072465
-0.030431    0.066686    0.042001  0.00042559     0.29275    -0.10026  -0.0057458
-0.021337    0.058566    0.057917  -0.0093186    0.040702    -0.13989   -0.020362
-0.013216    0.042975    0.062789    -0.02361    -0.30165    -0.18861   -0.040825
-0.0093186    0.027385    0.053369   -0.039201    -0.65504    -0.24058   -0.067459
-0.010618    0.015692    0.033556   -0.054142    -0.92203    -0.28508   -0.097666
-0.01484    0.009845   0.0062721   -0.071682     -1.0289    -0.30782    -0.12722
-0.014191   0.0088706   -0.022636    -0.09117    -0.96198    -0.30359    -0.14314
-0.0060706   0.0075714   -0.046996    -0.10936    -0.76872    -0.27306    -0.13957
0.0036737    0.003024    -0.05739     -0.1204    -0.52316    -0.22142    -0.12235
0.0095202  -0.0067202   -0.054142    -0.11488    -0.29515    -0.15873    -0.09929
0.0056225   -0.024909   -0.043099   -0.092794    -0.12268   -0.095717   -0.078827
-0.010943   -0.047971   -0.031081   -0.062587  -0.0093186   -0.042124   -0.065835
-0.0405   -0.067134   -0.023285   -0.036927    0.058241  -0.0021729   -0.058365
-0.079802   -0.075255   -0.021986   -0.022961     0.10144    0.024461    -0.04862
-0.11651   -0.070707   -0.021986   -0.021012     0.13684    0.042001   -0.034978
-0.13989   -0.054792   -0.017114   -0.025234     0.16218    0.054019   -0.019063
-0.14249   -0.034004  -0.0057458   -0.032705     0.16608    0.064088   -0.007045
-0.12105   -0.013541   0.0085458   -0.035628     0.14139    0.075456  0.00042559
-0.084024   0.0010752    0.019264   -0.029782    0.092996    0.088124   0.0026992
-0.04992   0.0072465    0.018615   -0.020362    0.029658     0.10047  -0.0021729
-0.028807   0.0026992   0.0065969   -0.014516   -0.029132     0.10599   -0.014191
-0.024909   -0.012242    -0.01484   -0.015165   -0.062262     0.10339   -0.029457
-0.034978   -0.035953   -0.034978   -0.023935   -0.047646    0.089748   -0.044073
-0.050894   -0.060313   -0.051219   -0.039851    0.021213    0.066037   -0.056091
-0.062912   -0.077528   -0.060313   -0.058365     0.12775    0.039727   -0.059664
-0.072331   -0.079477   -0.059989   -0.070058     0.24858    0.021863   -0.050894
-0.0824   -0.067784   -0.052843    -0.06681     0.35024    0.016666   -0.030756
-0.097341   -0.048296   -0.043099   -0.046347     0.40351    0.025111  -0.0041217
-0.11683   -0.028807   -0.033354    -0.01549     0.39539     0.04395    0.023162
-0.13404   -0.011917   -0.020037    0.014717     0.33952     0.06961      0.0433
-0.14314   0.0056225  -0.0044465    0.032906     0.26027     0.09397    0.050446
-0.14119    0.024137    0.009845    0.038753     0.17842     0.10794    0.040702
-0.12917    0.039078     0.01894    0.033881     0.10696     0.10631    0.021538
-0.11553    0.047847    0.019914    0.023812    0.056292    0.090722   0.0056225
-0.10286    0.047523    0.015367    0.013093    0.026085    0.071234  -0.0044465
-0.096042    0.039402   0.0069217   0.0043233    0.016666    0.053369   -0.007045
-0.096692    0.027709 -0.00022403  0.00042559    0.029983    0.037778 -0.00054884
-0.10091    0.009845  -0.0044465  0.00075039    0.063763    0.025436   0.0088706
-0.09994    -0.01614  -0.0054209   0.0017248      0.1219    0.013093    0.018615
-0.085973   -0.043099  -0.0041217   0.0036737     0.20246   0.0023744    0.028034
-0.05804   -0.055766  -0.0034721   0.0065969     0.29048   -0.010943    0.034206
-0.018088   -0.044723  -0.0034721    0.009845     0.36486   -0.027833    0.031607
0.027709   -0.014516  -0.0031473    0.013418     0.40676   -0.052843    0.018615
0.067986     0.01894  -0.0057458    0.013743     0.41033   -0.082076 -0.00054884
0.098517    0.045899   -0.012242    0.013093       0.385    -0.11098   -0.020037
0.11443    0.063113   -0.020687    0.012443     0.34212    -0.13307   -0.032705
0.11508    0.070584   -0.026858    0.013418     0.29503    -0.14314   -0.037252
0.10306    0.073507   -0.028807    0.018615     0.25475    -0.14054    -0.03238
0.086824    0.075131   -0.021661    0.030308     0.22552     -0.1295   -0.018413
0.072208    0.078055  -0.0041217    0.045899     0.20668    -0.11586  -0.0028225
0.063763    0.080328     0.01829    0.062139     0.19531    -0.10124   0.0059473
0.062139    0.075131    0.036479    0.072858     0.19369    -0.09117   0.0049729
0.061165     0.06084    0.044275    0.074157     0.20863   -0.086623  0.00042559
0.054344    0.042326    0.040702    0.069934     0.24501   -0.090521  -0.0011985
0.040052    0.023812    0.026735    0.065062     0.29665   -0.093769   0.0036737
0.022188   0.0095202   0.0059473     0.06084     0.35934   -0.090521    0.016341
0.01017   0.0049729   -0.012567    0.055968      0.4295   -0.078827    0.031282
0.0056225    0.010819   -0.025559    0.047847     0.49088   -0.060313    0.042651
0.0046481    0.023162   -0.032705    0.038428     0.52109     -0.0405    0.048497
0.0065969    0.032257   -0.030106    0.028034     0.50518   -0.024585     0.05272
0.015692    0.032906   -0.019388    0.019914     0.44574   -0.013541    0.056942
0.033881     0.02706  -0.0063954     0.01764     0.35382  -0.0080194    0.059541
0.054344    0.016991   0.0065969    0.022837     0.24858  -0.0047713    0.062139
0.06831   0.0046481    0.014068    0.036804     0.14951   0.0033489    0.065387
0.074157  -0.0050961    0.014068    0.053044     0.06831    0.012768    0.066686
0.072533  -0.0067202   0.0072465    0.063438    0.009845    0.020239    0.064088
0.065712  -0.0054209   0.0023744    0.063438   -0.027508    0.028034     0.06084
0.057592  -0.0067202  0.00075039    0.050121   -0.050894    0.038753    0.056617
0.047523   -0.011592   0.0033489    0.033231   -0.065835    0.053369    0.049147
0.031282   -0.018413   0.0085458    0.021213   -0.075904    0.068635    0.036479
0.010495   -0.021986    0.013743    0.016016   -0.081101    0.081952    0.020888
-0.0099683    -0.01614    0.017316    0.014392   -0.084024    0.091047   0.0036737
-0.027183   0.0017248    0.020564    0.012119   -0.078178    0.092671  -0.0096434
-0.033679    0.027709    0.023487    0.008221   -0.059664      0.0865   -0.014191
-0.025234    0.054344    0.023812   0.0049729   -0.033354    0.076431  -0.0096434
-0.0037969    0.072858    0.021863 -0.00022403   -0.010943    0.065712   0.0010752
0.026085    0.073832    0.015692  -0.0080194  -0.0018481    0.056292    0.014068
0.054344    0.053044   0.0036737   -0.019388   -0.011267     0.05207    0.023812
0.072208    0.016016   -0.013866   -0.028807   -0.033679     0.05142    0.026085
0.074806   -0.025559    -0.03303   -0.029132   -0.058365    0.054019    0.022512
0.058566   -0.058689   -0.045047   -0.021012    -0.07428    0.059216    0.016666
0.023812    -0.07428   -0.046671  -0.0054209   -0.080127    0.066362   0.0085458
-0.024909   -0.067784   -0.038227    0.014717   -0.079802     0.07773  -0.0028225
-0.073306   -0.043748   -0.021661     0.03518   -0.081101    0.092346   -0.011917
-0.10871   -0.012242  -0.0037969    0.050446   -0.087597     0.10469   -0.015165
-0.1217    0.012119    0.011144     0.06084   -0.097341     0.11021   -0.012892
-0.10838    0.024137    0.021863    0.064088    -0.10514     0.10956  -0.0057458
-0.075904     0.02641    0.030957    0.058891    -0.10579     0.10729   0.0046481
-0.039851    0.023487    0.037129    0.044599   -0.094418     0.10242    0.011794
-0.0073698    0.024137    0.038103    0.027709   -0.069733    0.092996    0.017316
0.023487    0.028684    0.028684   0.0078962     -0.0405    0.074482    0.020888
0.054019    0.031282   0.0085458   -0.013216   -0.022961    0.047523    0.015042
0.086824    0.027385    -0.01484   -0.033679   -0.024585    0.015042  -0.0021729
0.11573    0.016341   -0.030106    -0.04992    -0.04927   -0.015815   -0.021661
0.13165  -0.0018481   -0.036278   -0.056091   -0.087922   -0.039851   -0.036278
0.12872   -0.024909   -0.040175   -0.055441    -0.13047   -0.051219     -0.0405
0.10436   -0.053817   -0.047971   -0.045047    -0.16653   -0.044723   -0.039526
0.063113   -0.087272   -0.059014   -0.028157    -0.19154   -0.015815   -0.041475
0.016666    -0.11488   -0.066485   -0.012892    -0.20648    0.031607   -0.048296
-0.017764     -0.1282   -0.072006  -0.0044465     -0.2133    0.083576    -0.05804
-0.03303     -0.1217    -0.07493  -0.0067202    -0.21655     0.12515   -0.064211
-0.035303   -0.095717   -0.073955  -0.0099683    -0.21232     0.15309   -0.060963
-0.035628   -0.053492   -0.061613  -0.0034721    -0.19413      0.1677   -0.042774
-0.037902  -0.0028225   -0.037252    0.014717    -0.15256     0.17387  -0.0076946
-0.032055     0.05272  -0.0011985    0.040702   -0.092145     0.17322    0.041676
-0.007045     0.10761    0.034206    0.062789   -0.023935     0.15926    0.096569
0.033556     0.15731    0.059865    0.074157    0.035505      0.1284     0.14302
0.078704     0.19044     0.06831    0.071883    0.074806    0.082277       0.169
0.11476     0.20213    0.061814    0.058891    0.095269    0.026735     0.17192
0.13327     0.19271    0.045574    0.039402    0.098193   -0.029782     0.15406
0.13165     0.16315     0.01894    0.020888    0.082927   -0.085324     0.11833
0.10761     0.11378  -0.0089938   0.0069217     0.05272    -0.14054    0.073182
0.067986    0.053694   -0.030756  -0.0018481    0.013093    -0.19089     0.03583
0.017965  -0.0015233   -0.041475  -0.0041217    -0.03173    -0.23149     0.01764
-0.030431   -0.038551   -0.042124  0.00010078   -0.081101    -0.25682    0.020564
-0.066485   -0.056741    -0.03303    0.013093    -0.13697    -0.27014    0.038428
-0.084674   -0.061288   -0.018738    0.025761    -0.21492    -0.27728    0.059865
-0.084349   -0.054792  0.00075039    0.034206    -0.31951    -0.28183    0.072858
-0.072331   -0.041475    0.022512    0.037454    -0.43482    -0.28735    0.071558
-0.059989   -0.026209    0.041027    0.038103    -0.53843    -0.29905    0.055318
-0.051219   -0.011917    0.053694    0.037778    -0.61184    -0.30944    0.028034
-0.046671   0.0036737    0.057917    0.034855    -0.65114    -0.31236  -0.0011985
-0.039851    0.021213    0.054668    0.032257    -0.65958      -0.301   -0.024585
-0.029132    0.037454    0.044924    0.028359    -0.64464    -0.27436   -0.032705
-0.01484    0.046223    0.036479    0.019589    -0.61379    -0.23441   -0.020362
-0.0024977    0.038428    0.028034   0.0036737    -0.57871    -0.18796   0.0056225
0.0039985   0.0075714    0.016341   -0.015165    -0.55467    -0.14704    0.033881
0.0039985   -0.043423 -0.00022403   -0.032705     -0.5472    -0.11456    0.048822
-0.0031473   -0.097666    -0.01549   -0.046671    -0.53518    -0.09117    0.048172
-0.016464     -0.1308   -0.021012   -0.053817    -0.48938   -0.073306    0.032906
-0.033679    -0.13307   -0.018413    -0.04927    -0.39681   -0.053817    0.011144
-0.051544    -0.11423   -0.012892   -0.033679    -0.26267   -0.030756   -0.013541
-0.063886   -0.092469   -0.007045   -0.015815    -0.10871  -0.0050961   -0.036602
-0.067134     -0.0837  -0.0041217  -0.0018481    0.039402    0.019589   -0.053168
-0.056741   -0.092145  -0.0041217   0.0017248     0.15536    0.037454   -0.061937
-0.036278    -0.10806  -0.0063954  -0.0031473     0.22617    0.048172    -0.06551
-0.010618    -0.11163   -0.010943   -0.013216     0.24598    0.054993   -0.068109
0.014717   -0.089871   -0.013866   -0.025234      0.2161     0.06019   -0.071357
0.037129   -0.043423   -0.013541   -0.037252     0.14919    0.062464    -0.07428
0.050446    0.016666  -0.0096434   -0.047321    0.070584    0.061165   -0.076554
0.05142    0.074157  -0.0063954   -0.053168   0.0078962    0.055318   -0.076554
0.036479     0.11118  -0.0031473   -0.054792   -0.022636    0.044275   -0.072981
0.0095202     0.11411  -0.0044465   -0.053817   -0.023285    0.035505   -0.063886
-0.025234    0.083901   -0.013866   -0.051219  -0.0044465    0.029983   -0.052518
-0.060313    0.034206   -0.034004   -0.048945    0.021863    0.028684   -0.045697
-0.087597   -0.013541   -0.060638   -0.047321     0.05207    0.024786   -0.046022
-0.098316   -0.043748   -0.084024   -0.045697    0.081952    0.016991   -0.047321
-0.080451   -0.049595   -0.091495   -0.042449     0.10826   0.0062721   -0.050569
-0.039851   -0.034004   -0.081101   -0.036927      0.1271  -0.0047713   -0.053492
0.0078962  -0.0067202   -0.059989   -0.029132     0.13457   -0.013216   -0.054467
0.047198    0.020888   -0.034654   -0.020687     0.13327   -0.013541   -0.050244
0.06831    0.036804   -0.011267    -0.01484      0.1297   -0.007045   -0.044723
0.071234    0.032906   0.0091954   -0.010618     0.12775  -0.0015233     -0.0405
0.064413    0.013093    0.024137  -0.0063954     0.12288  -0.0041217   -0.039526
0.054019   -0.012567    0.029983  0.00042559     0.10501   -0.013866   -0.043748
0.047198   -0.036278    0.023162    0.008221    0.072858   -0.026858   -0.050244
0.039402   -0.051219    0.012443    0.013743    0.034206   -0.039526    -0.05739
0.021863   -0.057065    0.003024    0.015367   0.0020496   -0.044073   -0.060638
-0.0099683   -0.053168  -0.0011985     0.01894   -0.013216   -0.034654   -0.054792
-0.051219   -0.042449  -0.0021729     0.02641  -0.0083442   -0.011917   -0.040175
-0.084349   -0.028807  0.00010078    0.037454    0.013743    0.015367   -0.018413
-0.098316   -0.016464   0.0085458    0.048172    0.048172     0.03583   0.0062721
-0.09117  -0.0063954    0.020564     0.05207    0.089748    0.045899    0.028684
-0.069733   0.0026992    0.032257    0.046548     0.12937    0.048822      0.0433
-0.040175    0.010495    0.035505    0.035505     0.16023    0.048172    0.050771
-0.0083442    0.017965     0.02706    0.024786     0.17939    0.045249    0.051096
0.01894    0.024786    0.011469    0.019264     0.18751    0.039727    0.045899
0.032582    0.029658 -0.00054884     0.01764      0.1742    0.030308    0.034855
0.029658    0.034206  -0.0037969    0.018615     0.12743    0.020888    0.018615
0.015692    0.037129  -0.0037969    0.017965      0.0433    0.014068  -0.0021729
-0.0021729    0.037129  -0.0063954    0.011469   -0.051219    0.010819   -0.023285
-0.018738    0.032906   -0.017764  -0.0011985    -0.11066    0.010495   -0.040175
-0.029782    0.025761   -0.032055   -0.018738    -0.09929    0.013093   -0.050569
-0.033354    0.014717    -0.04115   -0.033679   -0.011592    0.019589   -0.053168
-0.032705  -0.0011985     -0.0405   -0.038876     0.13295    0.030308   -0.045697
-0.032705   -0.016464   -0.036602   -0.035628     0.30055    0.046223   -0.033354
-0.034978   -0.028807   -0.030431   -0.026533     0.45613    0.063113   -0.019388
-0.040825   -0.038551   -0.021986   -0.015815     0.57306    0.070584   -0.012567
-0.047646   -0.044398   -0.012567  -0.0089938     0.63607    0.064413   -0.019063
-0.055116   -0.047646  -0.0047713  -0.0083442     0.63932    0.043625   -0.036278
-0.062262   -0.045697  -0.0044465    -0.01549     0.58053    0.013418   -0.053168
-0.066485   -0.036278  -0.0083442   -0.023935      0.4688   -0.018738   -0.060638
-0.067784   -0.022961   -0.014191   -0.033679     0.32004   -0.046022   -0.056091
-0.066485   -0.010943   -0.022961   -0.042774     0.15601   -0.062912   -0.042774
-0.059989  -0.0054209   -0.033354   -0.050569   0.0026992   -0.069083   -0.029782
-0.051544   -0.010293    -0.04862   -0.055766    -0.12235   -0.067784   -0.022636
-0.045372   -0.021986   -0.065835   -0.057065    -0.20875   -0.062587   -0.018413
-0.040825   -0.034654   -0.077853   -0.049595    -0.25585   -0.055441   -0.013541
-0.033679   -0.041799   -0.077853   -0.037577    -0.27371   -0.047321  -0.0076946
-0.024909   -0.038876    -0.06616   -0.025884    -0.27274   -0.040175  -0.0044465
-0.018088   -0.027833   -0.047971   -0.017114    -0.25227   -0.035628  -0.0060706
-0.018088   -0.017764   -0.029457  -0.0096434    -0.20128     -0.0405   -0.010943
-0.028807    -0.01614    -0.01484  -0.0054209    -0.11618   -0.059339   -0.018088
-0.046996   -0.027508  -0.0057458  -0.0034721  -0.0060706   -0.087272   -0.024909
-0.067459   -0.047646  -0.0028225  -0.0018481    0.099817    -0.11586   -0.028482
-0.081426   -0.067134  -0.0050961  -0.0041217      0.1729     -0.1334   -0.027183
-0.086948   -0.075255   -0.011917   -0.007045     0.20538    -0.13599   -0.026533
-0.084349   -0.067459   -0.020037  -0.0083442      0.2083    -0.12495   -0.028807
-0.074605   -0.044723   -0.023935  -0.0054209     0.19888    -0.10384   -0.034004
-0.055116   -0.012567   -0.022636   0.0036737     0.18849   -0.076554   -0.038227
-0.029782    0.012443   -0.017439    0.017316     0.18167   -0.046996   -0.040175
-0.0024977    0.016341   -0.012567    0.031932     0.17615   -0.020362   -0.041799
0.023812   -0.012242   -0.011267    0.044924      0.1638   0.0017248   -0.043423
0.050121   -0.066485   -0.012567    0.055318     0.13555    0.019264   -0.038551
0.080328    -0.11586   -0.017439    0.057592    0.092021    0.032906   -0.025559
0.10859    -0.12657   -0.026858    0.051096    0.038753    0.038428   -0.011267
0.11866   -0.080127   -0.035953    0.041027  -0.0093186    0.036154  -0.0011985
0.096893    0.008221    -0.03303    0.035505   -0.039201    0.026085   0.0056225
0.045249     0.10501   -0.013216    0.041676   -0.046671    0.016016    0.014717
-0.022636     0.17387    0.017965    0.058566   -0.040175    0.014392    0.029983
-0.087597     0.19499    0.049796     0.07773   -0.027833    0.022837    0.047847
-0.13372     0.17192    0.072858    0.090397   -0.022636    0.036479    0.063113
-0.15386     0.12613      0.0852    0.092346   -0.029457    0.046873    0.071883
-0.15093    0.082277    0.090722    0.087149   -0.047646    0.047847    0.073507
-0.13437    0.061165    0.092671    0.079029   -0.067134    0.038428    0.062464
-0.11066    0.065712    0.093321    0.069934     -0.0824    0.022512    0.044924
-0.087272    0.084876    0.092021    0.061489   -0.097017   0.0069217    0.033881
-0.065835     0.10242    0.086175    0.055643    -0.12722  -0.0041217    0.036154
-0.046022     0.10664     0.07773    0.053044    -0.19283   -0.012892    0.050121
-0.024585    0.089423    0.059216     0.05207    -0.31756    -0.02361    0.065387
0.0010752    0.049472    0.029983    0.047523    -0.50205   -0.048945    0.072858
0.030957  -0.0057458  -0.0096434     0.03453    -0.70928   -0.096042    0.063763
0.067011   -0.053492   -0.045697    0.015367    -0.88045    -0.15516     0.03518
0.11378   -0.069408   -0.066485  -0.0044465    -0.96588    -0.21005  -0.0031473
0.17712   -0.038551    -0.06551   -0.015815    -0.95158    -0.24286   -0.035303
0.2502    0.027385   -0.041799   -0.015165    -0.85544    -0.23831   -0.044723
0.31322     0.10079  -0.0063954  -0.0083442    -0.71318    -0.19836    -0.03173
0.34894     0.15244    0.025761  -0.0037969    -0.55662    -0.13762  -0.0054209
0.3457     0.16348    0.038428  -0.0057458    -0.40818   -0.075255     0.02641
0.30315     0.12905    0.025436   -0.013216    -0.28378   -0.022636    0.056292
0.22877    0.063763  -0.0076946   -0.024585    -0.19641    0.011144    0.078379
0.13749  -0.0028225   -0.048945   -0.034654    -0.14411    0.027709    0.087149
0.046873   -0.044073   -0.081426   -0.041475    -0.11358    0.030633    0.085525
-0.02426   -0.047971   -0.091495   -0.043099     -0.0837    0.030633     0.07708
-0.069083   -0.025884   -0.076554   -0.038227   -0.043099    0.032257    0.065712
-0.096042  0.00042559   -0.045047   -0.027508   0.0065969    0.039078    0.050771
-0.11066    0.011144   -0.008669   -0.013541    0.055643    0.047523    0.029983
-0.10968   0.0010752    0.017965   0.0023744    0.090397    0.056617   0.0033489
-0.092469   -0.026209    0.033881    0.019589     0.10989    0.071883   -0.021012
-0.063561   -0.057065    0.042326    0.037778     0.12093    0.099817   -0.032055
-0.029782   -0.082076      0.0433    0.051096     0.13197     0.13717   -0.025559
0.0049729    -0.09117     0.03453    0.054668     0.15406      0.1703  -0.0054209
0.042001   -0.076879    0.019264    0.045899     0.19369     0.19628    0.017965
0.08585   -0.042449   0.0026992    0.027709      0.2567     0.21188    0.034855
0.12872   0.0056225   -0.010943   0.0036737     0.34764     0.21545    0.040377
0.15893    0.050446   -0.021012   -0.020687     0.45808      0.2122     0.03518
0.16803    0.084551    -0.02426   -0.038876     0.57209     0.20635    0.021538
0.15438     0.11216   -0.019712   -0.044073     0.67083     0.20083   0.0052977
0.12125     0.13327   -0.008669   -0.036278     0.74651     0.19563  -0.0073698
0.078055     0.13977   0.0085458   -0.020687     0.79328     0.18849  -0.0096434
0.037778     0.13035    0.029658  -0.0054209     0.79913     0.17712   0.0017248
0.0095202     0.10826    0.047523   0.0033489     0.75073     0.15601    0.021863
-0.0028225    0.083576    0.055318   0.0062721     0.64874     0.12158    0.039402
-0.00087364    0.059216    0.049147   0.0056225     0.50648     0.07773    0.043625
0.009845    0.030633    0.030957   0.0017248     0.35057    0.030957    0.032906
0.01894  -0.0083442   0.0056225  -0.0060706      0.2083   -0.010618    0.011794
0.025761   -0.047321   -0.017439   -0.016464     0.10761   -0.041799  -0.0093186
0.033556   -0.066485   -0.034329   -0.024909    0.064088   -0.062262   -0.021012
0.040702   -0.052193   -0.040175   -0.028482    0.071883    -0.07493   -0.020687
0.040052  -0.0099683   -0.034978   -0.023285     0.10047     -0.0837  -0.0096434
0.030633    0.031282   -0.025559  -0.0080194     0.10014   -0.089546   0.0026992
0.018615    0.045249   -0.018738    0.011794    0.031932   -0.094743    0.011469
0.0078962    0.017316   -0.018413     0.02641    -0.10806   -0.097991    0.013743
-0.00022403   -0.037902   -0.022636    0.031282    -0.27599   -0.098641   0.0085458
-0.0060706   -0.092145   -0.025884    0.032257    -0.40916   -0.097017 -0.00022403
-0.0083442    -0.11163   -0.025884    0.032257    -0.46437   -0.090845   -0.007045
-0.0011985   -0.081751   -0.019712     0.03518    -0.42735   -0.076229  -0.0054209
0.016341   -0.011592  -0.0099683    0.037778    -0.31366   -0.053168   0.0039985
0.037778    0.073832   0.0017248    0.038428    -0.15581   -0.025559    0.013743
0.051096     0.14529    0.010819    0.034206    0.008221   0.0023744    0.015042
0.046873     0.18264    0.016016     0.02706     0.14821    0.022837   0.0065969
0.022188     0.18134    0.015692    0.018615     0.24111    0.041351  -0.0031473
-0.018413     0.14919    0.013418    0.012119     0.28073    0.064413  -0.0050961
-0.067134     0.10177    0.011469   0.0059473     0.27391    0.091372   0.0049729
-0.11131    0.055643    0.010495 -0.00022403     0.23429     0.11768    0.028034
-0.14216    0.019589    0.013093  -0.0076946     0.17225     0.14074    0.056617
-0.15418  -0.0054209    0.015042   -0.016789     0.10144     0.15601      0.0852
-0.15093    -0.02426    0.012443   -0.025559    0.028359     0.15828     0.10599
-0.13859   -0.037902   0.0062721   -0.031406   -0.038876     0.14009     0.11346
-0.12105    -0.04862  -0.0021729   -0.031081   -0.097341     0.10274     0.10599
-0.10416   -0.058689   -0.011267   -0.023935    -0.14736    0.055968    0.089748
-0.090196   -0.067134    -0.01614   -0.012567    -0.19413   0.0065969    0.067986
-0.082076   -0.072006    -0.01614  0.00010078    -0.23538   -0.036278    0.046873
-0.079802   -0.070707  -0.0096434    0.015692    -0.26364    -0.06551    0.032582
-0.079477   -0.065835  0.00010078    0.032582    -0.27923   -0.079802     0.02706
-0.081751   -0.063886     0.01017    0.049796    -0.28768   -0.087272    0.024137
-0.089546   -0.067134    0.015692    0.061165    -0.29223    -0.10189    0.017316
-0.10644    -0.07493    0.015692    0.062789    -0.29028    -0.13047   0.0052977
-0.12917   -0.084349    0.013093    0.056617    -0.27761    -0.16555   -0.014516
-0.14899   -0.094093   0.0075714    0.045249     -0.2552    -0.19706   -0.038227
-0.16165    -0.10351  -0.0018481     0.03453    -0.22889     -0.2159    -0.05804
-0.16133    -0.11066   -0.012567    0.024786    -0.20583    -0.22044   -0.064861
-0.14152    -0.11391   -0.019388    0.016016    -0.18861    -0.20972   -0.057715
-0.10059    -0.11196   -0.013216    0.009845    -0.17432    -0.18796   -0.039851
-0.042774   -0.097666   0.0026992   0.0049729     -0.1636    -0.15776   -0.019712
0.019589    -0.06681    0.019589   0.0026992    -0.16295    -0.12657  -0.0076946
0.076431   -0.021986    0.030308   0.0046481    -0.17659   -0.096367  -0.0067202
0.11476     0.02706    0.032257   0.0075714    -0.20225   -0.069083   -0.014516
0.1349     0.06961    0.028034     0.01017    -0.23149   -0.048945   -0.023935
0.13944    0.097868    0.024461    0.011144    -0.26137   -0.035303    -0.03173
0.13327     0.10859    0.021863    0.009845    -0.28768   -0.026533   -0.036602
0.1206     0.10209     0.01829   0.0039985    -0.30879   -0.021337     -0.0405
0.10047    0.081627    0.012443 -0.00022403    -0.32211   -0.019063   -0.046996
0.070909    0.054019   0.0075714  -0.0054209    -0.32373   -0.019063   -0.055116
0.037454    0.028034   0.0072465   -0.012242    -0.30262   -0.018738   -0.057065
0.003024   0.0065969    0.010495   -0.018413    -0.24935   -0.019388   -0.051219
-0.028157   -0.011592    0.015692   -0.021986    -0.14249   -0.019388   -0.041475
-0.052193   -0.026858    0.020239   -0.021337    0.025111   -0.019388   -0.033679
-0.063886   -0.038551    0.022188   -0.017764     0.23104   -0.022636   -0.038876
-0.061288    -0.04862    0.017316  -0.0096434     0.43242   -0.029782   -0.054142
-0.051544   -0.056416    0.003024 -0.00087364     0.57728     -0.0405   -0.077528
-0.036602   -0.063237   -0.022636   0.0072465     0.62633    -0.05804    -0.10124
-0.023285   -0.064536   -0.053492   0.0078962     0.57501   -0.081101    -0.11813
-0.01549   -0.059014     -0.0824 -0.00022403     0.45158    -0.10124    -0.12365
-0.01484    -0.04992    -0.09929   -0.013541     0.30315    -0.10709    -0.11391
-0.016789   -0.045047   -0.097017   -0.023285       0.169   -0.097341   -0.095717
-0.01614   -0.043099   -0.077528    -0.02426     0.06831   -0.078827   -0.075255
-0.013541   -0.043423   -0.047646    -0.01614   0.0046481   -0.055116   -0.056416
-0.0041217   -0.039851   -0.014516  -0.0034721   -0.030756   -0.032055   -0.038551
0.0078962   -0.029782    0.012119   0.0078962   -0.050244    -0.01614   -0.019712
0.016016   -0.017439    0.025436    0.014392   -0.068434   -0.010943  -0.0037969
0.0085458  -0.0037969    0.025761    0.017316    -0.10221   -0.019063    0.003024
-0.021012    0.009845     0.01829    0.014068    -0.15743   -0.041475  -0.0041217
-0.064211    0.022512   0.0095202   0.0043233    -0.23279   -0.076229   -0.021012
-0.10903    0.031282   0.0046481   -0.011267    -0.31464    -0.11878    -0.04115
-0.13957    0.033881   0.0023744   -0.030106    -0.39032    -0.16458   -0.057715
-0.14249    0.025111 -0.00022403    -0.04927    -0.44716    -0.20518   -0.067459
-0.11683  0.00042559  -0.0083442   -0.065186    -0.47119    -0.23344   -0.073955
-0.071357   -0.039851   -0.016464   -0.072331     -0.4595     -0.2435   -0.080776
-0.01549   -0.086623    -0.01614   -0.069733    -0.41565    -0.22986   -0.080776
0.046548     -0.1269   -0.008669   -0.060963    -0.35167    -0.19771   -0.070382
0.10339    -0.14736  -0.0031473   -0.054467    -0.28768    -0.15256   -0.053168
0.14496    -0.14801  -0.0076946   -0.054792    -0.24156    -0.10189   -0.033679
0.1625    -0.12722   -0.020687   -0.058365    -0.21395   -0.051868    -0.01484
0.15796   -0.084674   -0.032055   -0.060313    -0.19738  -0.0093186   0.0043233
0.13587    -0.02361   -0.035303   -0.056091    -0.19446    0.027709    0.029009
0.10371      0.0433   -0.031406   -0.045697    -0.21622     0.06084    0.061165
0.06831     0.10209   -0.025884   -0.029782     -0.2591    0.094295    0.098193
0.039402     0.14172   -0.019388   -0.011917    -0.30262     0.12937     0.12515
0.020239     0.16023    -0.01549   0.0020496    -0.32795     0.15341     0.12483
0.0033489     0.15666   -0.020687    0.008221    -0.31789     0.15536    0.095594
-0.014516     0.13262   -0.039526    0.011794    -0.26494     0.13457    0.048822
-0.034654    0.088448   -0.066485    0.010819    -0.17594    0.098517  0.00010078
-0.059339    0.029658   -0.091495   0.0075714   -0.062587    0.065062   -0.032055
-0.089221   -0.029457    -0.10319   0.0046481    0.059216    0.050446   -0.037577
-0.1217   -0.068758   -0.092145   0.0078962      0.1677    0.057917   -0.020037
-0.14379   -0.075255   -0.058689    0.016016     0.25053    0.082602   0.0046481
-0.14509   -0.047971   -0.013541    0.028034      0.3012     0.11281    0.028034
-0.12203 -0.00087364    0.024461    0.039727     0.32231     0.13457    0.047847
-0.077203    0.044275    0.044275    0.046223     0.31906     0.14237    0.062464
-0.021012    0.071558    0.044924    0.046873     0.30087      0.1336    0.069285
0.032257     0.07773    0.031607    0.040702     0.26839     0.10859    0.066037
0.069285    0.071234    0.015692    0.027385     0.22682    0.074157    0.050771
0.080003    0.062139   0.0088706    0.012443     0.18751    0.038428    0.028359
0.066686    0.059541    0.017965      0.0014     0.15601    0.011144   0.0078962
0.041351    0.061489    0.036804  -0.0028225     0.13652  -0.0037969  -0.0054209
0.015042     0.06084    0.053369      0.0014     0.12645  -0.0028225  -0.0083442
-0.0024977    0.055318    0.057267    0.014717     0.12158   0.0059473  0.00042559
-0.0021729    0.042975    0.044924    0.031282     0.11931    0.017316    0.017316
0.012119    0.030957    0.023162    0.045899     0.12158    0.028034    0.037129
0.032906    0.023487   0.0023744    0.055643      0.1258    0.034855    0.057267
0.057267    0.020564  -0.0093186    0.059541       0.131     0.03583    0.072208
0.080978    0.017316   -0.012567    0.057267     0.14042     0.02706    0.075781
0.10209    0.011469   -0.008669    0.050771     0.16445    0.012119    0.066686
0.11898   0.0033489  -0.0028225    0.039727      0.2096  -0.0031473    0.054019
0.131   -0.007045 -0.00054884     0.02706     0.27359   -0.015815    0.039727
0.1336   -0.019063  -0.0057458    0.016341     0.33725   -0.026209    0.026085
0.12872   -0.030431   -0.010943    0.012119     0.38662   -0.035303    0.012443
0.11995   -0.039201   -0.011267    0.014068     0.41488   -0.041799  0.00042559
0.10924   -0.039526  -0.0073698    0.019589     0.43274   -0.041475  -0.0076946
0.092346   -0.032055  0.00042559    0.030633     0.45093   -0.033354  -0.0096434
0.06831   -0.019063    0.009845    0.042001     0.47432   -0.021337  -0.0041217
0.036479  -0.0031473    0.014717    0.051745     0.49901  -0.0063954   0.0046481
-0.0018481    0.009845    0.016016    0.058241     0.51492    0.012119    0.015367
-0.036278    0.016666     0.01829    0.057917     0.50907    0.031932    0.024786
-0.059664    0.014068    0.021213    0.049796     0.48212    0.041027    0.031282
-0.068109   0.0049729    0.019264    0.039402     0.44574    0.031282    0.030957
-0.065835  -0.0083442   0.0091954    0.030308     0.40481   0.0069217    0.026735
-0.060313   -0.023935  -0.0037969    0.021538     0.35024   -0.026533    0.019264
-0.053168   -0.038227   -0.013541    0.010819       0.258   -0.063886   0.0065969
-0.04992   -0.047321   -0.015815   0.0010752     0.10891    -0.10546   -0.013216
-0.052518   -0.051544   -0.010943  -0.0063954   -0.084024    -0.14574   -0.033679
-0.061288   -0.052518   -0.008669  -0.0093186    -0.26949    -0.17627   -0.047321
-0.073631    -0.04992   -0.013866  -0.0099683    -0.39519    -0.18926   -0.051219
-0.082076   -0.042774   -0.025559  -0.0093186    -0.42994    -0.18049    -0.04862
-0.0824   -0.035628   -0.038876   -0.011267    -0.37213    -0.15353   -0.044723
-0.071357   -0.031406   -0.045047   -0.014516    -0.24968    -0.11066   -0.042774
-0.051544   -0.028482   -0.044398   -0.019063    -0.10384   -0.048296   -0.043099
-0.029782   -0.025559   -0.042124   -0.021986    0.028684    0.028684   -0.046022
-0.013216   -0.023935   -0.045047   -0.023935     0.12125     0.10501    -0.04992
-0.0096434   -0.021012   -0.053817   -0.025559     0.16835     0.16478   -0.055766
-0.017114   -0.013216   -0.059989   -0.026858     0.16835     0.19823   -0.062262
-0.03303  0.00010078    -0.05804   -0.027508      0.1271      0.2044   -0.065835
-0.052518    0.016016   -0.045697   -0.026209    0.054019     0.19304   -0.066485
-0.067134     0.03453   -0.029782   -0.022311   -0.036602     0.16965   -0.067784
-0.072331    0.050446   -0.017764   -0.017114    -0.12592     0.13587   -0.069408
-0.064536    0.061489  -0.0093186   -0.015165    -0.20128    0.092996   -0.068758
-0.047321    0.067011  -0.0011985    -0.01484    -0.25455    0.044275   -0.064211
-0.027183    0.066037   0.0052977  -0.0096434    -0.29158  -0.0041217   -0.052843
-0.0093186    0.055643    0.003024 -0.00087364     -0.3299    -0.04927   -0.035303
0.00042559    0.036154  -0.0093186   0.0078962    -0.39487   -0.095068   -0.019388
0.0017248    0.011794   -0.030106    0.013418     -0.4975    -0.14249  -0.0063954
-0.0034721  -0.0089938   -0.050894    0.014068    -0.62191    -0.18569   0.0059473
-0.0099683   -0.020362   -0.064211    0.010819    -0.74598    -0.22077    0.017965
-0.016464   -0.023285   -0.068109   0.0033489    -0.85934    -0.24578    0.025436
-0.020687   -0.021337   -0.061288  -0.0063954    -0.95646    -0.26299    0.029009
-0.02361   -0.020037   -0.047646    -0.01614      -1.026    -0.27339     0.03583
-0.025234   -0.021986   -0.031081   -0.021986     -1.0451    -0.27826    0.048172
-0.025559   -0.026209   -0.018088   -0.023285    -0.99998    -0.27599    0.064413
-0.024909   -0.028807   -0.012242   -0.017114    -0.89085    -0.26169    0.080653
-0.027183   -0.028807   -0.015165  -0.0034721    -0.73104    -0.23311    0.092021
-0.034978   -0.027508   -0.021986    0.012443    -0.54525    -0.19121    0.092996
-0.046022   -0.028157   -0.027833    0.021863    -0.35784    -0.14346    0.085525
-0.053817   -0.028482   -0.028157    0.022837    -0.19511    -0.10026    0.076755
-0.054792   -0.025884   -0.024585     0.01764   -0.076554   -0.061613     0.06961
-0.046996   -0.013866   -0.017764   0.0088706   -0.010293   -0.028157    0.064088
-0.031081   0.0069217   -0.008669   0.0020496    0.010819  -0.0018481    0.058891
-0.010293    0.031932   0.0062721  0.00075039   0.0078962     0.01894    0.053694
0.011469    0.054344    0.027385   0.0091954   0.0062721    0.039078    0.047198
0.031282    0.069934    0.047847    0.019264    0.026735    0.062464    0.040377
0.047523    0.076431    0.059216    0.022837     0.07708    0.089748    0.032582
0.06019    0.073832    0.054344    0.021538     0.14821     0.11833    0.025761
0.064737    0.067986     0.03518    0.016991     0.22324     0.14074    0.018615
0.063763    0.062464    0.011794    0.011144     0.28756     0.15471    0.011794
0.061814    0.056942   -0.007045   0.0062721     0.32946     0.16121   0.0072465
0.061489    0.045574   -0.022961   0.0036737     0.35154     0.16413   0.0046481
0.057917    0.031282   -0.032705   0.0059473     0.36843      0.1651   0.0020496
0.049472    0.017965   -0.037252    0.011469     0.40091     0.16543  -0.0021729
0.037129    0.009845    -0.03303    0.019589     0.45808     0.16608  -0.0047713
0.023162   0.0052977   -0.022961    0.030957     0.53279     0.16933  -0.0050961
0.0088706   0.0052977   -0.010943    0.041676     0.61171     0.17777  -0.0067202
-0.0015233   0.0085458  -0.0015233    0.046548     0.68122     0.18459   -0.018738
-0.0044465    0.013093   0.0069217    0.045249     0.72734     0.18037   -0.039526
-0.0015233    0.017316    0.012768    0.039402     0.74261     0.15893   -0.057715
0.0033489     0.01764    0.012443    0.028034     0.73189     0.12255   -0.065186
0.0052977    0.013093   0.0033489    0.015042     0.70396    0.084226    -0.05739
0.0052977   0.0036737   -0.010293   0.0023744     0.66011    0.055968     -0.0405
0.0039985  -0.0096434   -0.022311  -0.0099683     0.59417      0.0433   -0.018738
0.0072465    -0.02426   -0.026858   -0.020037     0.49933    0.042326  0.00075039
0.011794   -0.036602   -0.027183   -0.025884     0.37623    0.044924    0.010819
0.013418   -0.042449   -0.024909   -0.027833     0.22877    0.047523    0.011469
0.0065969   -0.040175   -0.022961   -0.029132    0.062464    0.046548   0.0072465
-0.0067202   -0.027183   -0.021661   -0.034978     -0.1269    0.044275  -0.0031473
-0.019388  -0.0047713   -0.019063   -0.041799    -0.33543    0.042001   -0.017114
-0.021337    0.023487   -0.014191   -0.047321    -0.53128    0.038428   -0.027833
-0.011592    0.049147  -0.0037969   -0.052193    -0.66998    0.033231   -0.027508
0.0078962    0.067661     0.01017   -0.051544    -0.72065    0.026085   -0.017114
0.031282    0.077405    0.020239   -0.046671     -0.6703    0.019264 -0.00022403
0.053044    0.080003    0.021538   -0.042774    -0.52186    0.010819    0.016341
0.067661    0.075781    0.014068   -0.039201     -0.2997  -0.0015233    0.023812
0.071234    0.066362   0.0033489    -0.03173   -0.040825  -0.0099683    0.022512
0.066037     0.05272  -0.0037969    -0.01549     0.20603   -0.010618    0.016666
0.05272    0.036154  -0.0037969  0.00042559     0.38954  -0.0028225    0.010495
0.02706    0.020888  0.00042559    0.011144     0.47562   0.0085458  -0.0018481
-0.013866   0.0095202   0.0062721    0.012119     0.45808    0.018615   -0.020687
-0.057065   0.0043233    0.012119   0.0043233     0.36421    0.024461   -0.040825
-0.088247   0.0078962    0.013743   -0.008669     0.24176    0.022188   -0.058689
-0.096042    0.015042    0.011794   -0.018738     0.13879    0.016666   -0.064861
-0.081101    0.014068   0.0078962   -0.022636    0.084226     0.01829   -0.054467
-0.061288   -0.010618  -0.0021729   -0.019712    0.082602    0.034855   -0.030431
-0.050244   -0.062262    -0.01614    -0.01484     0.11898    0.062139  -0.0057458
-0.052193    -0.12105   -0.029132   -0.015165     0.16965     0.08585    0.011469
-0.055441    -0.15646   -0.037252   -0.017764     0.21382     0.09397     0.01829
-0.046996    -0.14931   -0.038876   -0.017764     0.23689    0.086175    0.017965
-0.021012    -0.10481   -0.031081  -0.0083442     0.22032    0.067336    0.015692
0.015367   -0.046022   -0.012242   0.0062721     0.13587      0.0433    0.015367
0.046223   0.0023744   0.0072465    0.020239   -0.019063    0.013093    0.016666
0.063438    0.022512     0.01764    0.030633     -0.2042   -0.023935    0.017316
0.06896     0.01764    0.021213    0.033556    -0.35979   -0.063237    0.014717
0.069934   0.0026992    0.022837    0.025761    -0.44229   -0.095717    0.013418
0.071883   -0.007045    0.025436    0.010819    -0.43969    -0.11553    0.011794
0.074482  -0.0060706    0.026735  -0.0073698    -0.36888    -0.12105   0.0056225
0.06896  -0.0041217     0.02706   -0.022961    -0.26007    -0.11975  -0.0073698
0.048172  -0.0057458    0.022512   -0.034978    -0.14476     -0.1178   -0.022636
0.016341    -0.01484    0.011469   -0.043748   -0.039201    -0.11813   -0.036927
-0.017439   -0.029132  -0.0021729   -0.049595    0.045574    -0.12235   -0.043099
-0.044073   -0.045372   -0.010618   -0.053168    0.097218    -0.12787   -0.040175
-0.062262   -0.059664  -0.0083442   -0.053492    0.098193    -0.13567   -0.031081
-0.071357   -0.067459  0.00042559   -0.049595    0.038428    -0.14964    -0.02361
-0.076554   -0.072006   0.0085458   -0.043099   -0.068109     -0.1688   -0.020362
-0.080127   -0.072981    0.013743    -0.03303    -0.18894    -0.18536   -0.021337
-0.079802   -0.069083    0.017965   -0.019388    -0.28865    -0.19186   -0.025559
-0.072006   -0.061937    0.020888  -0.0034721    -0.35167    -0.18926   -0.027183
-0.056741    -0.04927    0.022512    0.014068    -0.38415    -0.18049   -0.023285
-0.038551   -0.026209    0.027385    0.029333    -0.39454     -0.1701   -0.013216
-0.020362   0.0075714    0.039402    0.040377    -0.39422     -0.1623  -0.0011985
-0.0028225    0.045249    0.055643    0.046548    -0.39357    -0.15678   0.0069217
0.012443    0.076755    0.070584    0.047523    -0.39292    -0.15386   0.0078962
0.030308    0.096893    0.080653    0.044924    -0.38317    -0.15191      0.0014
0.062464     0.11054    0.086824    0.042001    -0.36141    -0.14022  -0.0089938
0.11411     0.12385    0.087149    0.044924    -0.32958    -0.11683   -0.014516
0.17225     0.13717    0.080978     0.05272    -0.29125   -0.085648   -0.011917
0.21577     0.14074     0.06831    0.062464    -0.24968   -0.055441  0.00010078
0.22747      0.1297    0.047847    0.067011    -0.20485   -0.030106    0.016016
0.207     0.10014    0.019264    0.066686    -0.15938   -0.013541    0.030633
0.17127    0.051745   -0.016464    0.061814    -0.11683  -0.0063954    0.036154
0.14107   -0.011917   -0.054142    0.054668   -0.081751   -0.010618     0.02706
0.1232   -0.073631     -0.0824    0.048172   -0.059014   -0.018413   0.0069217
0.11638    -0.10351   -0.089871    0.047198   -0.044723   -0.022636   -0.014516
0.11671   -0.078503    -0.06681    0.057917   -0.028157   -0.017114    -0.02426
0.11054  0.00010078   -0.015815    0.077405   0.0026992  -0.0034721   -0.020037
0.084876     0.10242    0.048172    0.095594    0.051096    0.017965  -0.0080194
0.037129     0.19044     0.10599     0.10599     0.10859    0.040702    0.009845
-0.016789     0.23948     0.13879     0.10501      0.1638    0.063763    0.030633
-0.062587     0.24501     0.14172     0.10079     0.20213      0.0865     0.05207
-0.092469     0.21415     0.12223    0.096244     0.21577     0.10696    0.070584
-0.10124     0.16283    0.090722    0.091696     0.20928     0.12125    0.081952
-0.093119     0.10274    0.054993    0.083576     0.19369      0.1232    0.081627
-0.080776     0.03453    0.017965    0.069934     0.17939     0.10956    0.067011
-0.073306   -0.036927   -0.015165     0.05142     0.17355    0.081303    0.042651
-0.074605    -0.10416   -0.037902    0.033556      0.1716    0.045574    0.011144
-0.079802    -0.15158   -0.051219    0.017965     0.16673   0.0095202   -0.018088
-0.079802    -0.17465   -0.059014   0.0088706     0.15926    -0.01549   -0.035953
-0.063886    -0.17659   -0.069083   0.0075714     0.15926   -0.026209   -0.036927
-0.025559    -0.17042   -0.078827    0.012443     0.18069   -0.024585   -0.018413
0.033881    -0.16977   -0.084024    0.019264     0.23948   -0.019388   0.0075714
0.09462    -0.17789     -0.0837    0.022837     0.34732   -0.018738    0.028684
0.12678    -0.17854   -0.078178    0.021538     0.49283   -0.026209    0.036154
0.10729    -0.15321   -0.061613    0.020564     0.64744   -0.033679    0.028684
0.039402   -0.092469    -0.03173    0.024786     0.76275   -0.033679     0.01017
-0.057065   -0.008669    0.008221    0.032906     0.78484   -0.023935  -0.0099683
-0.14931    0.079354    0.047523    0.037454     0.68285  -0.0063954   -0.022636
-0.21167     0.15016    0.075131    0.037129     0.48276   0.0095202   -0.026533
-0.23636     0.19109    0.083251    0.027709     0.24176    0.017316   -0.022636
-0.22402     0.19434     0.06896   0.0088706    0.020564     0.01764   -0.013216
-0.18569     0.16218    0.035505    -0.01484    -0.14444    0.012119  -0.0063954
-0.14152     0.10501  -0.0054209   -0.039526    -0.24675   0.0046481  -0.0041217
-0.10936    0.039727   -0.039851   -0.059014    -0.30359  -0.0047713   -0.011267
-0.094418   -0.018088   -0.060638   -0.072656     -0.3364   -0.013866   -0.022961
-0.093769   -0.068758   -0.067459   -0.082076    -0.36141    -0.02361   -0.034654
-0.098316    -0.11163   -0.067134   -0.086948    -0.38512   -0.031081   -0.042124
-0.095393    -0.14509   -0.060963   -0.084349    -0.40721   -0.027508     -0.0405
-0.076229    -0.15938    -0.04992   -0.076554    -0.41695   -0.010293   -0.025559
-0.045697    -0.14996    -0.03238   -0.063886    -0.40201    0.020239  -0.0021729
-0.010943    -0.12365   -0.012567   -0.047321    -0.35296    0.055968    0.019589
0.016016   -0.093444   0.0033489   -0.031406    -0.27664    0.087799    0.034855
0.027385   -0.073955   0.0078962   -0.018738    -0.18374     0.10501    0.039078
0.022188   -0.068434   0.0017248   -0.015165   -0.090196     0.10047    0.030308
0.0069217   -0.073955   -0.011267   -0.020037  -0.0024977    0.073507    0.011469
-0.0099683   -0.081101   -0.022961   -0.029132    0.073182    0.030633  -0.0096434
-0.023285   -0.081751   -0.028807   -0.040175     0.12743   -0.015165   -0.026533
-0.024585   -0.068109   -0.025884   -0.051868     0.13392   -0.055441   -0.038551
-0.012892   -0.036278   -0.018413   -0.061937    0.051745   -0.087272   -0.044073
0.0062721    0.009845   -0.012242   -0.067784    -0.13567    -0.11033   -0.041475
0.021538    0.058891   -0.010943   -0.071032    -0.38902    -0.12365   -0.031081
0.026085    0.099167   -0.008669   -0.068109    -0.62775    -0.12495   -0.017114
0.014717     0.12255  -0.0047713   -0.060313    -0.78236     -0.1204  -0.0060706
-0.012567     0.12743  -0.0054209   -0.051219    -0.81744    -0.11066  -0.0024977
-0.046996     0.12028   -0.013541   -0.043748    -0.74208   -0.095068   -0.008669
-0.072981     0.10989   -0.029132   -0.037577    -0.59949   -0.072981   -0.020037
-0.082725    0.098517   -0.043748   -0.032705    -0.44099   -0.045372   -0.031406
-0.079802    0.082927    -0.04927   -0.026858    -0.30294   -0.017114   -0.036278
-0.06551    0.063438   -0.043748   -0.020362    -0.20453    0.008221   -0.031406
-0.043423    0.038428   -0.032055    -0.01614    -0.14314    0.023487   -0.021661
-0.015815    0.009845   -0.021661   -0.010943    -0.11098    0.027709   -0.012892
0.01017   -0.020687   -0.015165  -0.0024977   -0.095393    0.020888   -0.008669
0.027709   -0.043748   -0.015815   0.0072465   -0.081751   0.0062721   -0.010943
0.031282   -0.054467    -0.02361    0.011469   -0.052518   -0.010943   -0.018738
0.024786   -0.050244   -0.036602     0.01017   0.0017248   -0.025884   -0.030106
0.013093   -0.038227    -0.04992   0.0059473    0.080328   -0.033679   -0.036602
-0.0041217   -0.026858   -0.061288   0.0036737     0.17225   -0.032055   -0.036927
-0.025559   -0.026858   -0.067134   0.0043233     0.26157   -0.020037   -0.029132
-0.044398    -0.04115   -0.068758   0.0026992     0.32458  0.00010078   -0.015815
