-0.076229    0.010819    0.046873     0.01764    -0.62743    -0.36856   -0.032055
-0.052518     0.01829    0.049472    0.030308    -0.17887     -0.2042   -0.025884
-0.0076946     0.01764    0.044924    0.042001    0.049147   -0.031081   -0.012242
0.05207    0.012119    0.031282    0.048172    0.054993     0.11736   0.0046481
0.11963    0.011794    0.013418    0.050121   -0.064861     0.21772    0.019264
0.19044     0.02706 -0.00087364    0.047198    -0.18731     0.26514    0.028034
0.25507    0.061814  -0.0054209    0.042975    -0.23668     0.26742    0.033556
0.30087     0.10599  -0.0018481    0.041027    -0.23733     0.23624    0.041027
0.31939     0.14269   0.0052977    0.042651      -0.301     0.16933    0.048497
0.30639     0.15568    0.011144    0.041676    -0.52836    0.065062    0.050771
0.2606     0.14042    0.011794     0.03453    -0.89247   -0.071032    0.049796
0.18394     0.10339   0.0085458    0.019914     -1.2309    -0.22304    0.053044
0.0865    0.061165    0.003024   0.0017248     -1.3375    -0.36921    0.063763
-0.013216    0.027385 -0.00022403   -0.011917     -1.1153    -0.48581    0.080653
-0.092145   0.0091954   0.0043233    -0.01484    -0.63912    -0.54817     0.10079
-0.13859    0.003024    0.019914  -0.0015233   -0.085324      -0.542      0.1219
-0.15256   0.0046481    0.041676    0.030308     0.37201    -0.46762     0.13879
-0.14249   0.0049729    0.063763    0.078055     0.63997    -0.34355     0.13912
-0.11715  0.00042559    0.081952     0.13067      0.7189    -0.19251     0.10989
-0.0824  -0.0080194    0.096893     0.16835     0.67862   -0.035303    0.045899
-0.050894   -0.019712     0.10177     0.17647     0.62146     0.10501    -0.04862
-0.035953   -0.036602    0.088773     0.15081      0.6286     0.21285    -0.15613
-0.038551   -0.063886    0.053369     0.10177     0.72312     0.28463    -0.25487
-0.044723    -0.10286  -0.0034721    0.042651     0.87708     0.32296    -0.32666
-0.040825    -0.13924   -0.068109   -0.010943      1.0223      0.3353    -0.35946
-0.019063    -0.14996    -0.12105   -0.047646      1.0515     0.32848    -0.35069
0.010495    -0.12138    -0.14834    -0.06616     0.85792     0.30899    -0.30165
0.02706   -0.056416    -0.14574   -0.069408     0.42982     0.28821    -0.21687
0.015042    0.025111    -0.12203    -0.06616    -0.13599     0.27489    -0.10416
-0.027183     0.10436    -0.09117   -0.066485    -0.67355     0.26644    0.023162
-0.085973     0.16933    -0.06681   -0.079477     -1.0139      0.2502     0.14269
-0.14281      0.2187   -0.055116    -0.10254     -1.0377     0.21512     0.22974
-0.17724      0.2476   -0.057065     -0.1243    -0.72552     0.16445     0.26872
-0.17465     0.25735   -0.063886    -0.13307    -0.17497     0.11216     0.26125
-0.13697      0.2476    -0.06616     -0.1217     0.43274    0.073507     0.22292
-0.079802     0.22162   -0.059664   -0.086298     0.93035    0.057267     0.17127
-0.026858     0.17972    -0.04992   -0.034329      1.2503    0.058566     0.11931
0.0039985     0.12548   -0.045372    0.024137      1.4033    0.055968    0.080653
0.010819    0.062139   -0.046022    0.076755      1.4247    0.036479    0.064413
0.0069217  -0.0050961   -0.049595     0.11313      1.3234   0.0075714    0.076106
0.0088706   -0.063886   -0.051219     0.13522      1.1012  -0.0050961     0.11671
0.025436   -0.098641   -0.042449     0.15146     0.77964    0.003024      0.1729
0.046873    -0.10156   -0.021661     0.16153     0.36518    0.011469     0.22324
0.060515   -0.073631   0.0065969     0.15536    -0.11001  -0.0076946     0.24338
0.062139   -0.029132    0.028359     0.11898    -0.59592   -0.061288     0.22259
0.056617    0.015367    0.035505     0.05272      -1.051    -0.12463      0.1742
0.050121    0.051096    0.024137   -0.030756     -1.4381     -0.1623     0.11833
0.048172    0.079354  -0.0021729    -0.11391     -1.7529    -0.14769     0.06896
0.042975     0.10014   -0.036927    -0.18439     -2.0059   -0.082076    0.028034
0.029333     0.11151   -0.069083    -0.23441     -2.1764    0.015042  -0.0067202
0.0039985     0.10501   -0.093119    -0.25845     -2.2417     0.12418     -0.0405
-0.025559    0.078379    -0.10351    -0.25325     -2.1868     0.22584   -0.076554
-0.052193    0.039402    -0.09994    -0.22174     -2.0036     0.30867    -0.11521
-0.070707  -0.0011985   -0.084349    -0.17562     -1.7061     0.36389    -0.15093
-0.083375   -0.034654   -0.062912     -0.1282     -1.3511      0.3811    -0.17562
-0.088896   -0.055766   -0.044073   -0.094743     -1.0104     0.35674    -0.19024
-0.088572   -0.060963   -0.030431   -0.086948    -0.69726     0.30217    -0.19706
-0.085648   -0.055116   -0.028157    -0.10254    -0.38869     0.23006    -0.20128
-0.078827   -0.047321   -0.033679    -0.12787    -0.05804     0.13977    -0.20583
-0.068109   -0.043099     -0.0405    -0.14476     0.32913    0.029333     -0.2068
-0.04992   -0.042774   -0.039526    -0.13892     0.77737   -0.091495    -0.20355
-0.026209   -0.045047   -0.025884    -0.10546      1.2246    -0.20128    -0.19641
-0.0024977   -0.047646  -0.0011985   -0.053168      1.5715    -0.29158    -0.18926
0.015367    -0.04927    0.027709   0.0072465      1.7433    -0.36823    -0.18699
0.027385   -0.046347    0.054019    0.061814      1.7304    -0.44066    -0.18277
0.041351   -0.036602    0.071234     0.10436      1.5744    -0.49913     -0.1753
0.058891   -0.019063    0.078055     0.13425      1.3484    -0.52641    -0.16393
0.080653  -0.0011985    0.075781     0.15373      1.1252    -0.50627    -0.14152
0.098842   0.0095202     0.06961      0.1651     0.94659    -0.43839    -0.10449
0.10664   0.0078962    0.064088     0.16283     0.79718    -0.33802   -0.055116
0.10014  -0.0021729     0.06019     0.14464     0.65849    -0.24123  -0.0076946
0.080328   -0.016464    0.055643     0.11671     0.55487    -0.19316    0.028684
0.057592   -0.031406    0.045899    0.090722      0.5422    -0.21102     0.05207
0.041676   -0.042124    0.033231     0.07708     0.62958    -0.27046    0.059541
0.039078   -0.043099    0.024461    0.077405     0.74066    -0.32568    0.062464
0.049796   -0.033679    0.028359    0.086824     0.76177    -0.35004    0.067336
0.063438   -0.018088    0.042326    0.098842     0.61594    -0.34614    0.075131
0.073832  -0.0011985    0.062464     0.10664     0.28333    -0.33055    0.081952
0.076755    0.014717    0.080003     0.10696    -0.15256    -0.31269      0.0852
0.067661    0.026085    0.088773     0.09462    -0.51212     -0.2893    0.085525
0.049147     0.03453    0.089423    0.072208    -0.63003     -0.2435    0.081952
0.027709    0.038428    0.086824    0.048172    -0.46665    -0.16035    0.074157
0.0010752    0.041351    0.082927    0.027385    -0.12722   -0.053168    0.061165
-0.03238    0.044599    0.079029   0.0072465     0.21707    0.043625    0.041676
-0.069083    0.047198    0.074806   -0.011592     0.44866     0.10339    0.019914
-0.10091    0.044599    0.067661   -0.024585     0.51654     0.11671  0.00075039
-0.11943     0.03518    0.057917   -0.025559     0.42105    0.089098    -0.01549
-0.11813    0.017316    0.046548   -0.010618     0.21935    0.042975   -0.024909
-0.09929  -0.0067202    0.033881    0.018615   0.0049729  -0.0037969   -0.027833
-0.069083   -0.036278    0.022512    0.051745    -0.13794   -0.038227   -0.028482
-0.041799   -0.069408    0.010819    0.077405    -0.17692   -0.058689   -0.032705
-0.026533    -0.09994  -0.0018481    0.087474    -0.14866   -0.068109   -0.041799
-0.019388    -0.11878   -0.012567    0.079354    -0.14899   -0.070382   -0.050894
-0.016464    -0.11618   -0.021012    0.058566    -0.25877   -0.067459   -0.053492
-0.014191   -0.087922   -0.021337     0.03583    -0.49231   -0.063237   -0.045697
-0.018088   -0.044398   -0.014516     0.01894    -0.78236   -0.069083   -0.026209
-0.026209 -0.00087364  -0.0054209    0.015042     -1.0276   -0.094418 -0.00087364
-0.043099    0.029983   0.0017248    0.022188     -1.1474    -0.13437    0.021213
-0.072981    0.041676   0.0065969    0.036479     -1.1169    -0.16555    0.031932
-0.11098     0.03518   0.0088706    0.050121    -0.96912     -0.1636    0.029333
-0.14574    0.021863   0.0078962    0.058891    -0.76969    -0.12398    0.017316
-0.16393    0.011794   0.0056225    0.061165    -0.58195   -0.064861   0.0017248
-0.15743    0.012443    0.003024    0.056292    -0.44846  -0.0041217   -0.013541
-0.1295    0.023162   0.0039985    0.048822    -0.38317    0.036804   -0.026209
-0.0837    0.036804    0.012119    0.049147    -0.37083     0.06019    -0.03173
-0.028157    0.047523    0.025761    0.057592      -0.377    0.074482   -0.030106
0.034855    0.051096    0.042975    0.068635    -0.37018    0.085525   -0.020687
0.10306    0.047847    0.057267    0.074157    -0.31854     0.10274   -0.010293
0.17387    0.042326    0.066686    0.072858    -0.19576     0.13197  -0.0021729
0.24143    0.038428    0.070259    0.064413   0.0078962      0.1755   0.0039985
0.29697    0.033881    0.066037    0.053044     0.26384     0.22941    0.010819
0.33205    0.027385    0.055968    0.036154     0.51395     0.27944    0.021538
0.34407     0.01764    0.044275    0.015367     0.69259     0.31192    0.039078
0.33855   0.0049729    0.030633 -0.00087364     0.75106     0.32686    0.062464
0.31776   -0.007045    0.017316  -0.0067202     0.68642     0.32556    0.084876
0.28561    -0.01614   0.0069217  -0.0073698     0.52077     0.29438    0.097868
0.24208   -0.027508  -0.0047713  -0.0089938     0.29957     0.21805    0.095594
0.18719    -0.04992   -0.018088   -0.015815    0.074806    0.096893    0.076431
0.12515   -0.083375   -0.032705   -0.025884    -0.11001    -0.04862    0.044924
0.065062    -0.11358   -0.045047   -0.038876    -0.22856    -0.17692   0.0078962
0.013743    -0.12333   -0.053492   -0.053168    -0.27501    -0.25195   -0.023935
-0.021012    -0.10546   -0.055116   -0.059664    -0.26527    -0.25585   -0.039201
-0.045697   -0.064861   -0.048296   -0.051544    -0.22499    -0.19738    -0.03173
-0.06681   -0.013866   -0.035953    -0.03238    -0.17952    -0.10968  -0.0024977
-0.091495    0.031607   -0.023935   -0.012892    -0.14314   -0.027508    0.035505
-0.12073    0.058891   -0.013216   0.0017248    -0.11553    0.028034    0.069285
-0.14964    0.066686  -0.0060706   0.0075714   -0.087597    0.061814    0.090072
-0.1688    0.059216  -0.0057458   0.0069217   -0.047321    0.094295    0.096569
-0.17205    0.046548  -0.0096434   0.0033489   0.0049729     0.14204    0.089748
-0.16133    0.039402   -0.011267   0.0017248    0.056942     0.20538    0.074482
-0.14671    0.040052  -0.0060706   0.0052977    0.090722     0.27067    0.053694
-0.13599    0.044599   0.0039985    0.015367    0.098193     0.32198    0.034206
-0.13275    0.048172    0.012443    0.029333    0.080653     0.35706    0.023487
-0.13892    0.042651    0.015042    0.042651    0.044599     0.38467    0.024137
-0.14736    0.021538   0.0059473    0.044924  -0.0011985     0.40838    0.031282
-0.15158   -0.013216   -0.016464    0.034855   -0.046671     0.42657     0.03518
-0.14444   -0.053492   -0.045047    0.016991   -0.075904     0.44021    0.040052
-0.12463   -0.080776   -0.068434   0.0026992   -0.068758     0.45678    0.054993
-0.096367   -0.085973   -0.076879  -0.0031473   -0.017114     0.47984    0.080978
-0.067784   -0.072656   -0.070058  -0.0018481    0.069285     0.49868     0.10761
-0.044073    -0.04862   -0.051219    0.003024     0.18199     0.48861     0.12418
-0.03238   -0.022636   -0.029457   0.0091954     0.31484      0.4308      0.1271
-0.029457   0.0020496   -0.012242    0.012443     0.45158     0.32978     0.11638
-0.030106    0.020564  -0.0024977    0.011144     0.57274     0.20668    0.095594
-0.03173     0.03518  -0.0054209   0.0043233     0.66011      0.0865    0.072533
-0.035303    0.043625   -0.018413  -0.0044465     0.70039  -0.0099683    0.058566
-0.046996    0.041351   -0.034004   -0.011917     0.68285   -0.070382    0.057917
-0.06681    0.032257   -0.049595   -0.017439     0.60392   -0.093769    0.070259
-0.088572    0.021863   -0.061613   -0.022311     0.45678   -0.085648    0.082602
-0.10286    0.016991   -0.063886   -0.025884     0.24468    -0.05739    0.089748
-0.094743    0.019589   -0.058689   -0.030756   -0.018088  -0.0011985     0.09462
-0.058689    0.025111   -0.047321   -0.035628    -0.30489     0.10924     0.10079
-0.0067202    0.031932   -0.030431   -0.040175     -0.5904     0.27846     0.10436
0.04395    0.039727   -0.012242   -0.046671    -0.84342     0.47659     0.10112
0.083576    0.047198   0.0039985   -0.050569     -1.0253     0.64842    0.097543
0.11346     0.05142    0.014068   -0.049595     -1.0964     0.73579    0.099167
0.13879    0.050446     0.01829   -0.036602     -1.0237      0.7137     0.10761
0.16056    0.047198     0.01894    -0.01614    -0.80282      0.5932     0.12548
0.1781    0.041676    0.017316   0.0065969    -0.48971     0.40449     0.14756
0.18751    0.031932    0.015042    0.025761      -0.174     0.18004     0.16023
0.18784    0.016016   0.0049729    0.041351    0.072533   -0.050894     0.15861
0.1768  -0.0050961   -0.010618    0.050771     0.22162    -0.26657     0.14237
0.16153   -0.028807    -0.02426    0.055968     0.29503    -0.44911     0.11248
0.14496   -0.048945    -0.03238    0.054668     0.32751    -0.58455    0.074806
0.12807   -0.062587   -0.035953    0.044924     0.33173    -0.67258    0.032906
0.10924   -0.064861   -0.034004    0.028684      0.2502    -0.72779   -0.011592
0.087149   -0.056091   -0.027833   0.0075714    0.025111     -0.7632   -0.051544
0.064088     -0.0405   -0.019063   -0.010943    -0.32763    -0.78691   -0.075579
0.038753   -0.021986   -0.008669   -0.019063    -0.71188    -0.79698   -0.075904
0.0036737   -0.007045   0.0059473   -0.016464     -1.0214    -0.78821   -0.053492
-0.038876   0.0036737    0.023487   -0.007045     -1.1757    -0.75475   -0.019388
-0.079152    0.012443      0.0433   0.0017248     -1.1699    -0.69109    0.012768
-0.10286    0.023162    0.060515   0.0088706     -1.0688    -0.59267    0.030308
-0.10254     0.03518    0.068635    0.011144     -0.9701     -0.4673    0.025111
-0.084999    0.044924    0.061165   0.0056225    -0.91488     -0.3364  0.00042559
-0.062262    0.048822    0.038753   -0.011267    -0.85577    -0.22889   -0.034654
-0.038876    0.047198     0.01017   -0.036602    -0.72649    -0.16425   -0.069408
-0.016789    0.039727   -0.017114   -0.068109    -0.46925    -0.14639   -0.097341
0.0088706    0.030633   -0.034978   -0.096692    -0.04992    -0.17627    -0.11488
0.036804    0.021213   -0.043423    -0.11618      0.5016    -0.23798    -0.12527
0.061165    0.011469   -0.046022    -0.12625      1.1074    -0.30847    -0.13632
0.075781   0.0026992   -0.044398    -0.13307      1.6631    -0.37245    -0.15841
0.071883  -0.0060706   -0.045047    -0.14411      2.0688    -0.43189    -0.19446
0.047523   -0.012892   -0.048945    -0.16263      2.2858    -0.48841    -0.23896
0.0078962   -0.019712   -0.059989    -0.18244      2.3403    -0.53356    -0.28378
-0.036927   -0.026533   -0.072006    -0.19576      2.2734    -0.55012    -0.32276
-0.077853   -0.033679   -0.079152    -0.19543      2.1152    -0.52251    -0.34549
-0.10579   -0.036278   -0.070382    -0.17822      1.8775    -0.44554    -0.33737
-0.11683    -0.03173   -0.042774    -0.14639      1.5426     -0.3299    -0.29255
-0.11586   -0.021337  -0.0057458    -0.10968      1.0934     -0.2029    -0.22532
-0.11163   -0.010943    0.021213   -0.077853     0.57111    -0.09182    -0.16003
-0.10936  -0.0057458     0.02641   -0.055441    0.042975   -0.015815    -0.11358
-0.10838  -0.0080194    0.011144   -0.039526    -0.43774    0.014717   -0.095393
-0.10286   -0.017114   -0.012242   -0.022636    -0.82946 -0.00054884    -0.10416
-0.086948   -0.026533   -0.031081  -0.0024977     -1.1065   -0.045697    -0.13112
-0.059664   -0.032705   -0.039526    0.020888     -1.2725   -0.098316    -0.16912
-0.025234   -0.036927   -0.037577    0.039727      -1.343     -0.1295     -0.2107
0.003024   -0.038876   -0.027508    0.046873     -1.3404    -0.11878    -0.25098
0.0078962   -0.040825    -0.01484    0.041027     -1.3154   -0.064861    -0.27956
-0.01549   -0.045697  -0.0044465    0.020564     -1.3267    0.014717    -0.29353
-0.054792   -0.053168  -0.0037969   -0.013866      -1.367     0.10177    -0.29028
-0.0837   -0.059339   -0.014191   -0.055441     -1.3621     0.18524    -0.26592
-0.078178   -0.050569   -0.027833   -0.088247     -1.2293     0.26547    -0.21525
-0.029457   -0.021986   -0.035303   -0.097017    -0.92722     0.33465    -0.14249
0.046873    0.022512   -0.035303   -0.082725     -0.4582     0.37883   -0.064861
0.11443    0.072208   -0.031406   -0.059339      0.1323     0.37785  -0.0031473
0.14529     0.11736   -0.026533   -0.038551     0.74651     0.32361    0.032906
0.13262     0.15146   -0.022636   -0.024585      1.2626     0.23396    0.048172
0.089423     0.16738   -0.017764  -0.0099683      1.5754     0.14009    0.057267
0.042326     0.16185   -0.008669    0.011469      1.6433    0.076755    0.065387
0.012443     0.13847   0.0039985    0.039402      1.4893    0.050446    0.072858
0.0036737     0.10469    0.019914     0.06896      1.1843    0.055968    0.072858
0.016341    0.069285     0.03453    0.093645     0.81894    0.080978    0.062464
0.044599    0.037778    0.037454     0.10924     0.48471     0.11411    0.045899
0.079679    0.010819    0.021538     0.11151     0.25637     0.14594    0.033556
0.11248   -0.011917  -0.0063954     0.10112     0.14919     0.17355    0.028684
0.13717   -0.031081   -0.037902    0.082602      0.1245     0.18849    0.026085
0.14594   -0.045697   -0.061288    0.065062     0.13522     0.19401    0.025111
0.13522   -0.051544   -0.068434    0.060515     0.15763     0.19888    0.028359
0.10469     -0.0405   -0.057065    0.076431     0.19174     0.21317    0.039727
0.056617   -0.011592   -0.029132     0.10891     0.23851     0.24241    0.059216
0.00010078    0.029333    0.013093     0.15016      0.2908     0.28593      0.0865
-0.055766    0.070584    0.059216     0.19076     0.34635     0.32946     0.11476
-0.10286    0.098517    0.093321      0.2187     0.40936     0.35414     0.13879
-0.13242     0.10469     0.11118     0.23234     0.47724     0.34602     0.15568
-0.14119    0.089098     0.10891     0.23201     0.51687     0.30282     0.16413
-0.1334    0.058241    0.091047      0.2174     0.44151     0.22941     0.16283
-0.11943     0.01894    0.064737     0.18849     0.14496     0.13425     0.14432
-0.10579    -0.02426    0.037778     0.15341    -0.35784    0.029009     0.11411
-0.094418    -0.06551    0.016016     0.11898    -0.89799   -0.061288    0.080653
-0.082076   -0.097991   0.0043233    0.090722     -1.2793    -0.11975    0.057592
-0.070707    -0.11358  0.00075039    0.072533     -1.3923    -0.13957    0.051096
-0.060313    -0.10774   0.0049729    0.066686     -1.2449    -0.12592    0.062789
-0.053168   -0.083375    0.010819    0.072208    -0.91553    -0.09182    0.082277
-0.053817    -0.04862    0.016666    0.089748    -0.50725    -0.04927     0.10014
-0.070707   -0.014516    0.024786     0.11248    -0.11683  -0.0093186     0.10956
-0.10546   0.0065969    0.035505     0.13165     0.18979    0.016016     0.10924
-0.15386    0.015692    0.044599     0.13847     0.39767    0.030308     0.10014
-0.19803     0.01764    0.050121      0.1336     0.53051    0.039727    0.087799
-0.22402    0.021863    0.051096     0.11931     0.60424    0.048497     0.07708
-0.22174    0.029658    0.051096     0.10371     0.58573    0.049472    0.067336
-0.19186    0.040052    0.054019    0.091047     0.42268    0.030957    0.055643
-0.14281    0.049147    0.060515    0.079679     0.12255  -0.0028225    0.044924
-0.089546    0.055318    0.061165    0.067011    -0.24156   -0.039526    0.037454
-0.043748    0.062139    0.051745    0.044275    -0.59722   -0.068434    0.027385
-0.0080194    0.074482    0.030633    0.009845    -0.89539   -0.084674    0.012119
0.016341    0.089423   0.0023744   -0.031081     -1.1166   -0.090196  -0.0096434
0.025761     0.10112   -0.021661   -0.070707     -1.2455   -0.087272   -0.034329
0.019264    0.095919   -0.034329   -0.098965     -1.2692   -0.077528   -0.055116
0.0078962    0.064413   -0.036602    -0.10709     -1.1835   -0.056091   -0.062587
0.0039985   0.0078962   -0.039526   -0.091495    -0.99966   -0.026209   -0.054142
0.020564   -0.060963   -0.046347   -0.060638    -0.75443  -0.0057458   -0.034654
0.054993    -0.11813   -0.051219   -0.025884     -0.4988   -0.014191   -0.016464
0.099817    -0.13859   -0.044723   0.0052977    -0.27631   -0.059664  -0.0037969
0.14302    -0.10936   -0.027183    0.030633    -0.11033    -0.13307   0.0017248
0.17452   -0.040825  -0.0041217    0.048822  -0.0021729    -0.20453    0.008221
0.18946    0.041027    0.019264    0.059865     0.06084    -0.24708    0.019914
0.18914     0.10664    0.039727    0.065062    0.095594    -0.24805    0.037778
0.18102     0.13717    0.053369    0.064737     0.11768     -0.2107    0.056942
0.17387     0.12775    0.058891    0.062139     0.12905    -0.14964    0.072208
0.1755    0.085525    0.056292    0.054993     0.12515   -0.082725    0.079679
0.18881    0.028684    0.047847    0.044599     0.10242   -0.019388    0.081627
0.20928   -0.025884    0.037129    0.034855    0.053044    0.038753    0.082602
0.22941   -0.062262     0.02706    0.030308   -0.028482    0.087474     0.08585
0.24338   -0.075904    0.021863    0.031282    -0.13729       0.131    0.089098
0.24533   -0.074605     0.01764    0.035505    -0.25682     0.17355    0.088448
0.23429   -0.070058    0.011144    0.037454    -0.36238      0.2109    0.078055
0.20863   -0.068434  -0.0024977    0.032582    -0.43352     0.23883    0.055643
0.16575   -0.068434   -0.022636    0.020888    -0.46567     0.24825    0.029333
0.10729   -0.069083   -0.043423   0.0033489     -0.4569     0.24078   0.0062721
0.041027   -0.070707   -0.059339   -0.018413    -0.39487     0.22357   -0.011917
-0.017439   -0.069408   -0.064861   -0.041475     -0.2513     0.20083   -0.022961
-0.051219   -0.061613   -0.064211   -0.058689  -0.0021729     0.18037   -0.027508
-0.050894   -0.045697   -0.059339    -0.06616     0.34375     0.16543    -0.02426
-0.022311   -0.018088   -0.051544   -0.063561     0.72897     0.15211  -0.0083442
0.01829    0.020564   -0.037252   -0.054467      1.0742     0.13262    0.020888
0.057267    0.067011   -0.015165   -0.042449      1.3146     0.10924    0.065062
0.0865     0.11573   0.0085458   -0.029457      1.4289    0.089748     0.12093
0.10599     0.15698    0.027385   -0.017764      1.4484    0.073507     0.17452
0.11313      0.1781     0.03518  -0.0096434      1.4107    0.053694      0.2083
0.10339     0.17127    0.028684  -0.0063954      1.3357    0.024137     0.20538
0.080328     0.13814    0.009845  -0.0050961      1.2178  -0.0044465     0.16445
0.057592    0.084876   -0.012242  -0.0060706      1.0388   -0.017764     0.10242
0.05272     0.02706   -0.026209  -0.0047713     0.77769   -0.010293    0.046223
0.073507   -0.020362   -0.029132  0.00042559     0.40708    0.008221    0.020888
0.11573    -0.04992   -0.022636   0.0069217   -0.057715    0.021538    0.028034
0.15406   -0.060963  -0.0093186   0.0091954    -0.53713    0.024786    0.055968
0.16933   -0.059014   0.0065969   0.0056225    -0.93762    0.019914    0.093321
0.15568    -0.04927    0.022512   0.0036737     -1.2247   0.0085458     0.12613
0.1245   -0.036927    0.031282   0.0075714     -1.4174   -0.014516     0.14919
0.088124   -0.025884    0.028359     0.01894     -1.5632   -0.043423     0.15861
0.051096   -0.020362     0.01764    0.033881     -1.6743   -0.076229     0.14919
0.011144   -0.025884   0.0039985    0.044275     -1.7113    -0.11813     0.11833
-0.036602   -0.046022  -0.0093186    0.046873     -1.6259    -0.16035    0.067661
-0.092145   -0.073631   -0.020037    0.044599     -1.3842    -0.18536    0.008221
-0.14931   -0.093119   -0.023935    0.042326    -0.98861    -0.17919   -0.042124
-0.19998   -0.091495   -0.019388    0.045574    -0.50855    -0.14119   -0.071357
-0.24513   -0.065186   -0.012242    0.045899   -0.058689   -0.085648    -0.07428
-0.28378   -0.026858  -0.0080194    0.031282      0.2606   -0.035953   -0.061613
-0.31366   0.0072465   -0.014516  -0.0089938     0.39896   -0.012892   -0.044073
-0.32536    0.029333   -0.026858   -0.074605      0.3444   -0.027183    -0.03173
-0.31561    0.039078   -0.036602    -0.14899     0.11281   -0.085324   -0.034654
-0.28833    0.037129   -0.037577    -0.20388    -0.22532    -0.18699   -0.046022
-0.25357    0.025761   -0.028482    -0.21849     -0.5537    -0.32731   -0.053817
-0.22304    0.010495   -0.017114    -0.19478    -0.74533    -0.47996   -0.052193
-0.2016  -0.0034721  -0.0099683    -0.15256    -0.72422    -0.60534   -0.045697
-0.18439   -0.014516  -0.0089938    -0.11683    -0.51602    -0.67582   -0.046347
-0.16653   -0.026209    -0.01549   -0.097666    -0.20096    -0.68362   -0.061288
-0.14769   -0.042449   -0.028807   -0.094743     0.14269    -0.64172   -0.086623
-0.1295   -0.060638   -0.046996    -0.09994      0.4727    -0.56182    -0.11261
-0.11228   -0.076879   -0.068109    -0.10774     0.78743    -0.43579    -0.12463
-0.096042   -0.086948   -0.084999    -0.11423      1.0976    -0.24708    -0.11878
-0.079477   -0.087597    -0.09117      -0.123      1.3822  0.00010078    -0.10091
-0.065835     -0.0837   -0.087272    -0.13729      1.5897     0.26839     -0.0837
-0.059014   -0.081426   -0.080127    -0.15776      1.6797     0.50615   -0.079802
-0.064536   -0.082725   -0.077853    -0.18471      1.6368      0.6757   -0.093119
-0.081101   -0.086948   -0.081101    -0.21037      1.4919     0.76307    -0.11521
-0.10416   -0.087597   -0.084999    -0.21947      1.3006     0.77444    -0.13307
-0.12398    -0.07428   -0.081101    -0.20388      1.0749     0.72897    -0.13892
-0.13177   -0.043423   -0.064536    -0.16685     0.73871     0.65166     -0.1256
-0.12398 -0.00054884   -0.038551    -0.11521     0.18589     0.56689   -0.093769
-0.09994    0.042001   -0.014191   -0.060313    -0.59105     0.48796   -0.052518
-0.058365    0.067661  -0.0024977   -0.011267     -1.4125      0.4178   -0.017439
-0.0089938    0.062464  -0.0054209    0.022837     -2.0036     0.34537  -0.0037969
0.034855    0.033231   -0.019712    0.036154      -2.141     0.25995    -0.02361
0.066686  0.00010078   -0.038227    0.028684     -1.8062     0.15633   -0.072006
0.09397   -0.018738   -0.051868    0.012443     -1.2332    0.035505    -0.12527
0.12483  -0.0096434   -0.053492 -0.00022403    -0.73786   -0.093444    -0.15841
0.15601    0.024461   -0.040825  -0.0021729     -0.4975    -0.21785    -0.15613
0.17712    0.065062   -0.018738   0.0069217    -0.48386    -0.31951    -0.12333
0.17712    0.095594   0.0065969    0.024786    -0.53875    -0.37992   -0.069408
0.15373     0.11183    0.030308    0.050121    -0.52674    -0.39324  0.00010078
0.11476     0.11703     0.05207    0.079679    -0.40071    -0.36628    0.071883
0.075781     0.11313    0.071558     0.11118      -0.161    -0.31659     0.13327
0.045574     0.10664    0.084876      0.1323     0.18329    -0.26429     0.17322
0.026085    0.098517    0.088773      0.1362     0.62211    -0.22954     0.18784
0.014068     0.08585    0.083576     0.11995      1.1187    -0.22759     0.17517
-0.00054884    0.066037     0.06961    0.090072      1.6014    -0.26332     0.13295
-0.022961    0.042001    0.051096    0.053369      1.9733    -0.31983    0.065062
-0.046671    0.019264    0.031282    0.019914      2.1412    -0.35426   -0.011267
-0.056741 -0.00022403    0.013093  -0.0024977      2.0558    -0.33185   -0.077203
-0.044723   -0.015165  -0.0034721   -0.012242      1.7391     -0.2474    -0.12268
-0.012242   -0.026533   -0.017114   -0.013866      1.2824     -0.1295    -0.15029
0.030308   -0.032705    -0.02426   -0.015815      0.8027   -0.015165     -0.1623
0.071234   -0.034329   -0.027833    -0.02426     0.39052    0.066362    -0.16458
0.10177   -0.031406   -0.028482   -0.043423    0.085525     0.10144      -0.161
0.12255   -0.022636   -0.028157   -0.064211    -0.11358    0.092346    -0.15678
0.1336  -0.0089938   -0.025234   -0.078178    -0.22726    0.047847    -0.15646
0.13879   0.0072465   -0.019712   -0.079152    -0.27306   -0.013216    -0.15678
0.13425    0.021213    -0.01614    -0.06616    -0.26722   -0.071682    -0.15288
0.11313    0.028684   -0.018413   -0.040825    -0.21655    -0.11131    -0.13794
0.071883    0.031282   -0.027183  -0.0076946    -0.13242     -0.1282    -0.10936
0.017965    0.027709   -0.039526    0.025761   -0.031081     -0.1269   -0.067784
-0.035303    0.018615   -0.046996    0.054993    0.062139    -0.11456   -0.021012
-0.077853   0.0065969   -0.040825    0.078055      0.1245    -0.09929    0.016991
-0.11033  -0.0063954   -0.019712     0.10014      0.1362     -0.0837    0.036154
-0.13372   -0.018738   0.0062721     0.12353     0.10144   -0.065186    0.037454
-0.14866   -0.029132    0.029333     0.14854    0.049472   -0.033354    0.029983
-0.14639   -0.035953    0.044924      0.1716    0.010819    0.012443    0.023487
-0.12203   -0.036278    0.056292     0.18654  -0.0044465    0.071558     0.02641
-0.077203   -0.028807    0.066686     0.18914   -0.016464     0.13392    0.041027
-0.019712   -0.016464    0.072533     0.17842   -0.075255     0.18232    0.065387
0.040377 -0.00022403     0.06961     0.15438    -0.22142     0.20635    0.092671
0.094295    0.016991    0.064413     0.12223    -0.43059     0.20473     0.11378
0.13392    0.030633    0.063763    0.092021    -0.61736     0.18524     0.12353
0.15438    0.041351     0.06831     0.06831    -0.69304     0.15309     0.12125
0.15373    0.049472    0.067336    0.054668    -0.61411     0.11541     0.11086
0.1362    0.050771    0.055318     0.05272    -0.40331    0.076755    0.097543
0.11378    0.041676    0.033881    0.062139    -0.11261    0.042651      0.0852
0.088773     0.01829    0.011469    0.079029     0.20376    0.020564    0.072858
0.066362    -0.01484  -0.0031473    0.096244     0.48926    0.017965    0.059216
0.050771    -0.04862  -0.0076946     0.10566     0.68869    0.037454    0.051096
0.042975   -0.071682  -0.0057458     0.10631     0.76015    0.075131    0.050121
0.048172   -0.077528   0.0010752     0.10177     0.69032     0.11671    0.055968
0.063763   -0.065186    0.012768    0.094945     0.49186     0.15211    0.062464
0.079354    -0.04115    0.023812    0.088773     0.20603      0.1768    0.059865
0.088448   -0.017439    0.027709    0.086824    -0.12235     0.19304    0.043625
0.08585  0.00075039    0.021538    0.086824    -0.48451     0.20928    0.015367
0.070909   0.0056225   0.0046481    0.076431    -0.91618     0.23266    -0.01614
0.039078  -0.0011985   -0.017764    0.050771     -1.4242     0.25962   -0.035953
-0.0050961   -0.012892    -0.03303    0.020239     -1.9137     0.28073   -0.037577
-0.054467   -0.018413    -0.03238   0.0020496     -2.2385     0.28528   -0.026209
-0.10221   -0.010293   -0.011917   0.0059473     -2.2794     0.26612   -0.011592
-0.14801    0.012768    0.022837    0.030633     -1.9887     0.23591  -0.0011985
-0.18504    0.044924    0.058241    0.066037     -1.4096     0.22162   0.0065969
-0.20128    0.070584    0.083576    0.097543    -0.63457     0.23071    0.016666
-0.18471    0.079354    0.096244     0.11833     0.21252      0.2528    0.029009
-0.1321    0.074806    0.099167     0.12937     0.97615     0.25865    0.040052
-0.054792    0.067011    0.090722     0.13587      1.5355     0.23104    0.049147
0.025111    0.069934    0.074806     0.13912      1.8284     0.16835     0.05142
0.091372    0.090397    0.057267     0.13555       1.859      0.0865    0.049147
0.13392     0.13327    0.042326     0.11768      1.6998   0.0010752    0.046223
0.15049     0.19011    0.032582    0.086824      1.4465   -0.084024    0.042651
0.14789     0.24598    0.025111    0.049796      1.1197    -0.17562    0.034206
0.12937     0.27424    0.016016    0.014717     0.69844    -0.28995    0.020564
0.096893     0.25865   0.0017248   -0.011267     0.22357    -0.42572   0.0033489
0.058891     0.19953   -0.016464   -0.028482    -0.20908    -0.56344   -0.015165
0.024137     0.11671     -0.0405   -0.034978    -0.51537    -0.67225    -0.03303
0.003024    0.029333   -0.063237   -0.035953    -0.66316    -0.73656   -0.043099
-0.00087364   -0.046022   -0.079477   -0.037902    -0.66835    -0.76027   -0.045697
0.0049729    -0.09994   -0.084999   -0.046671    -0.58715     -0.7619    -0.04927
0.0065969    -0.13307   -0.084024   -0.062587    -0.46957    -0.75475   -0.056741
-0.007045    -0.15223   -0.078827   -0.083375    -0.33575    -0.73721    -0.06681
-0.031406    -0.16555   -0.071032   -0.098965    -0.19121    -0.70083   -0.071357
-0.052843      -0.174   -0.063886    -0.10514   -0.079477    -0.64854   -0.070707
-0.06551     -0.1753   -0.060638    -0.10449   -0.061288    -0.58715   -0.070707
-0.070707    -0.16393   -0.059339   -0.097991    -0.14249    -0.50952   -0.070382
-0.068758    -0.14054    -0.05739   -0.086298    -0.26104    -0.39389   -0.062587
-0.057065    -0.10838   -0.052518   -0.071682    -0.33932    -0.22304   -0.029782
-0.0405   -0.071032   -0.039526   -0.057065    -0.33413  -0.0011985    0.028359
-0.034004   -0.030431   -0.018088   -0.044398    -0.25422     0.24241     0.10144
-0.045372    0.013418   0.0059473   -0.034978    -0.14996     0.47237     0.17387
-0.069408    0.056617    0.023162   -0.029132   -0.097991     0.65816     0.23429
-0.086298    0.090722    0.027709   -0.024585    -0.14671     0.77769     0.27651
-0.079802     0.10794    0.021538   -0.019712    -0.27761     0.82479     0.29697
-0.047321     0.10436    0.009845   -0.012242    -0.43741     0.80692     0.30087
-0.0028225    0.080653  -0.0050961  -0.0050961    -0.57091     0.74553     0.29373
0.041351    0.044924   -0.021337 -0.00054884    -0.64529     0.66466     0.27749
0.073182    0.010819   -0.037252  0.00042559    -0.64886     0.58086      0.2528
0.091047   -0.015815   -0.044398   0.0023744     -0.5839     0.49933     0.21642
0.095594   -0.028807   -0.036927   0.0046481    -0.47542     0.42008     0.16705
0.087474   -0.026209    -0.01484   0.0088706    -0.35751      0.3392     0.10209
0.069934   -0.013216    0.017316    0.016341    -0.26202     0.25215    0.030957
0.047847   0.0036737    0.051745    0.029983    -0.20128     0.15828   -0.034004
0.025761    0.021863    0.078055    0.045899      -0.174     0.06831   -0.082076
0.0052977    0.039402    0.089423    0.057592     -0.1662  -0.0047713    -0.11131
-0.019063     0.05272    0.079679    0.054993    -0.16165   -0.051219     -0.1217
-0.051544     0.06084    0.053369    0.037129    -0.13729    -0.06681     -0.1191
-0.090196    0.063438     0.01829   0.0069217   -0.083375   -0.059989    -0.11326
-0.12527     0.05272   -0.017114   -0.027183   -0.012242   -0.044723    -0.11358
-0.14769    0.027709   -0.047971    -0.05804    0.056617   -0.036927    -0.11975
-0.15516  -0.0047713   -0.067134   -0.075255     0.11476   -0.036602    -0.12592
-0.14899   -0.038551   -0.068758   -0.076229     0.16283    -0.03238    -0.12235
-0.12527    -0.06681   -0.053492   -0.061937     0.20116   -0.013216    -0.10156
-0.085648   -0.084024   -0.026209   -0.035303     0.23689    0.022188   -0.063886
-0.039526   -0.090521   0.0036737  -0.0044465     0.27521    0.057917   -0.018738
0.0065969   -0.090845    0.027385     0.01829     0.32978    0.074482    0.017316
0.0433   -0.094093    0.037129    0.025436     0.43567    0.061489    0.033556
0.068635    -0.10514     0.02641    0.014068      0.6338    0.023162    0.029333
0.0852    -0.12495 -0.00022403   -0.012567     0.91736   -0.019388    0.008221
0.096244    -0.14216    -0.03303   -0.044723      1.2279   -0.043748   -0.014516
0.10047    -0.14152   -0.060963   -0.072656      1.4669   -0.031081   -0.026533
0.096244     -0.1178   -0.075579   -0.086298      1.5264   0.0072465   -0.023935
0.084876   -0.077853   -0.073631    -0.08305      1.3497    0.050771  -0.0076946
0.069285   -0.028157   -0.055441   -0.067134     0.96998    0.067011    0.010495
0.048172    0.025111   -0.025884     -0.0405     0.47075    0.033556    0.016016
0.022188    0.077405   0.0056225  -0.0093186   -0.050569   -0.051219   0.0059473
-0.0041217     0.12093    0.037129    0.020239    -0.50952    -0.17172   -0.014516
-0.028807     0.14886    0.066037    0.042651    -0.86486    -0.29872   -0.035303
-0.044398     0.16153    0.087149    0.054993      -1.113    -0.40948   -0.044073
-0.04862     0.15731    0.097218    0.058566     -1.2816    -0.49556   -0.042774
-0.043423      0.1349    0.096893    0.055968     -1.4047    -0.57026   -0.037577
-0.03238     0.10047    0.090722    0.050771       -1.47    -0.65049   -0.040175
-0.022636    0.066686    0.080653    0.049147     -1.4229    -0.73689   -0.054792
-0.021012    0.040702    0.066037    0.050121     -1.2221     -0.8012     -0.0824
-0.029457    0.025436    0.046548    0.044599    -0.87753    -0.80997    -0.11066
-0.047646    0.021538    0.021863    0.031607    -0.45723    -0.74858    -0.12885
-0.065835    0.023812  -0.0024977     0.01017   -0.048945    -0.62158    -0.13112
-0.073631    0.026085   -0.021986    -0.01484     0.27196    -0.44164    -0.11553
-0.064861    0.023487   -0.035303   -0.037902      0.4675    -0.23246    -0.08305
-0.041475    0.016016   -0.043099   -0.050569     0.53733   -0.029132   -0.038551
-0.010618   0.0049729   -0.046022   -0.050244      0.5107     0.13912   0.0036737
0.016991  -0.0050961   -0.043748   -0.039526     0.43957     0.25248    0.036479
0.031282  -0.0080194   -0.039851    -0.02426     0.37688     0.31419     0.05272
0.036479  -0.0037969   -0.035303   -0.007045       0.347     0.34505    0.059541
0.045249   0.0065969   -0.030756   0.0095202     0.35609     0.36421    0.065387
0.067661    0.020564   -0.026533    0.021538     0.41748     0.37265    0.076755
0.10144    0.038753   -0.022311    0.024461     0.53603     0.35122    0.090722
0.13587    0.059216   -0.015815    0.017965     0.65978     0.27034    0.099817
0.15633    0.076106  -0.0050961   0.0065969      0.6809     0.11833    0.098517
0.15601    0.085525   0.0062721  -0.0024977      0.5146   -0.073631    0.080978
0.13392      0.0852     0.01829  -0.0018481     0.15828    -0.24448    0.052395
0.10306    0.074806    0.033556     0.01764    -0.30035    -0.33543    0.023487
0.07708    0.056292    0.049147     0.05272    -0.74955    -0.32601   0.0078962
0.054344    0.034855    0.059865    0.092996     -1.1205    -0.23896    0.011144
0.028359    0.017316    0.064737     0.12678     -1.4261    -0.11391    0.024786
-0.0018481    0.011794    0.065712     0.14399     -1.7175    0.011469    0.037778
-0.030106     0.01829     0.06831     0.14756     -1.9994     0.12093      0.0433
-0.050244    0.033231    0.072858     0.14107     -2.2122     0.20765    0.039078
-0.061937    0.046223    0.078055     0.12905      -2.282     0.27229    0.026085
-0.069083    0.051096    0.081627     0.10891     -2.1508     0.31224   0.0020496
-0.07428    0.039727    0.072533    0.067661     -1.7837     0.32231    -0.03173
-0.073955   0.0039985    0.044599  -0.0054209     -1.1965     0.29762   -0.071682
-0.066485   -0.055441  -0.0031473    -0.10676    -0.43709     0.23851    -0.11131
-0.051868    -0.12787   -0.060963    -0.21849     0.44411     0.15601    -0.14184
-0.025234    -0.19024    -0.11618    -0.31301      1.3786    0.073832    -0.15776
0.014068    -0.21914    -0.15841    -0.37148        2.25    0.026085    -0.16165
0.063438    -0.20713    -0.18212    -0.39259      2.8922    0.028684    -0.16165
0.11931     -0.1623    -0.18731     -0.3848      3.1686    0.061814    -0.16847
0.17842    -0.09994    -0.18082    -0.36011      3.0471      0.0865    -0.18764
0.23039   -0.037902    -0.16945    -0.32795      2.6343    0.078704    -0.21557
0.25995    0.010819    -0.15678    -0.29125      2.1162    0.047523    -0.23896
0.26125    0.041676    -0.14574    -0.24968      1.6563    0.028684    -0.23993
0.23624    0.056617     -0.1334    -0.20031      1.3487     0.04395    -0.21102
0.19109    0.054344    -0.11651    -0.13957      1.2162    0.091047    -0.15776
0.1297    0.040702   -0.092794   -0.070382      1.2159     0.15179   -0.091495
0.054993     0.01894    -0.06681  -0.0018481       1.262     0.20278   -0.025884
-0.02426  -0.0031473   -0.045047    0.054019      1.2477     0.21837    0.029658
-0.097991   -0.021986   -0.027508    0.092996      1.0811     0.17874    0.071883
-0.15646   -0.034004   -0.011592     0.11898     0.71922    0.080653     0.10014
-0.19446   -0.038227   0.0062721     0.13782     0.19401   -0.055116     0.11281
-0.21525    -0.03303    0.022512     0.15276    -0.36531    -0.19901     0.11183
-0.22694   -0.020362    0.037129     0.16413    -0.78918    -0.33672    0.099817
-0.24253  -0.0054209    0.046548      0.1625    -0.96328    -0.48354    0.074482
-0.26104   0.0033489     0.04395     0.14367    -0.89507    -0.65049    0.035505
-0.27079 -0.00054884    0.024137     0.10859    -0.72487    -0.81971   -0.012242
-0.26104   -0.014516  -0.0050961     0.06961     -0.5891    -0.93729   -0.059989
-0.22564   -0.035303    -0.03173    0.034855    -0.51374    -0.94639   -0.098316
-0.17497   -0.054142   -0.053817   0.0059473    -0.41858    -0.81647    -0.12625
-0.12852   -0.067784   -0.072656   -0.021012    -0.20225    -0.56766    -0.14574
-0.09929   -0.076554   -0.090521   -0.050894     0.15666    -0.26657    -0.16035
-0.087597   -0.081426    -0.10254   -0.080451     0.56397   0.0049729    -0.16653
-0.086948   -0.078827    -0.10059   -0.098316     0.87188     0.18751    -0.16035
-0.092794   -0.068758   -0.079152   -0.094093      0.9375     0.26319    -0.13924
-0.10189   -0.052193   -0.039201   -0.063237     0.66303     0.25313    -0.10156
-0.11586   -0.030106   0.0075714   -0.016464     0.07708     0.19596   -0.051868
-0.13145  -0.0050961    0.046548    0.029333     -0.6349     0.12937  -0.0015233
-0.14087     0.01829    0.065387    0.063113     -1.2105    0.074157    0.042326
-0.13242    0.038103    0.065387    0.081952     -1.4528    0.039078    0.077405
-0.10676    0.057592    0.054019    0.086824     -1.3254    0.037454     0.11086
-0.075255    0.075781      0.0433    0.086175    -0.95321    0.073507     0.15179
-0.050894    0.089423    0.038103    0.085525    -0.52024       0.131     0.20311
-0.041799    0.095594    0.038428    0.089098    -0.17107     0.18654      0.2567
-0.046022    0.096244    0.041027    0.097543    0.019264     0.22422     0.30022
-0.055441    0.092996    0.041676     0.11183    0.044924     0.24825     0.32198
-0.061937    0.086175    0.042651     0.12775   -0.048296     0.28236     0.32621
-0.055441    0.075781    0.044924     0.14367    -0.18861      0.3431     0.31322
-0.037577    0.059216    0.047847     0.15244    -0.29482      0.4217     0.28463
-0.015815    0.039727    0.048497     0.15179    -0.31626     0.49901     0.24468
0.008221    0.023487      0.0433     0.14724    -0.24968      0.5539     0.20376
0.036479    0.015367    0.039727     0.14496    -0.13372     0.57274     0.17387
0.071883    0.017316    0.040052     0.14529   -0.016789      0.5539     0.15763
0.10859    0.024137    0.046223     0.15179    0.056942     0.50225     0.15373
0.13977    0.031607    0.055318      0.1625    0.074482      0.4217     0.14951
0.15861    0.037778    0.066686      0.1742     0.05272     0.31484     0.13587
0.15731    0.037778    0.073832     0.17874    0.024461     0.18751     0.10859
0.1349    0.029333    0.071234     0.17257  0.00010078    0.048172    0.070259
0.10177    0.014392    0.056617     0.15438   -0.051544   -0.097666    0.024137
0.073507  -0.0018481    0.033231     0.13067    -0.15646    -0.24123   -0.018738
0.064088   -0.014191    0.013093     0.11248     -0.2906     -0.3731   -0.046347
0.076106   -0.017764    0.008221     0.10729    -0.39811    -0.47964   -0.054467
0.10631  -0.0080194    0.021213     0.11671    -0.42897    -0.54135   -0.050569
0.14529    0.013418    0.042651     0.13132    -0.38025    -0.54687   -0.047646
0.17777    0.037454    0.056292     0.13847     -0.2958    -0.49653   -0.050569
0.19499    0.054993    0.057267     0.13002    -0.20745    -0.40071   -0.059339
0.19466    0.061489    0.045899     0.10599    -0.10156    -0.27501   -0.069083
0.18979    0.058891    0.024786    0.074157    0.028359    -0.13632   -0.079477
0.19369    0.050446  -0.0015233    0.042975     0.13555   0.0023744   -0.086298
0.20895    0.038428   -0.024585    0.020239     0.11768     0.13392   -0.084024
0.22909    0.021538   -0.041799   0.0033489   -0.078827      0.2502   -0.071032
0.24338   0.0056225   -0.052193    -0.01484    -0.38837     0.34602   -0.049595
0.24436  -0.0060706   -0.059989   -0.043423    -0.66186      0.4165   -0.027183
0.22357   -0.013541   -0.064536   -0.079152    -0.77554     0.45938  -0.0050961
0.18232   -0.014516   -0.062587    -0.11358    -0.71935     0.46815    0.009845
0.12223   -0.010943   -0.051544    -0.13469    -0.59625     0.44086    0.019589
0.051745  -0.0044465   -0.034329    -0.13924    -0.52219     0.38175    0.025111
-0.021012   0.0033489   -0.017114    -0.12885    -0.54233     0.31224    0.034855
-0.086948    0.011144  -0.0018481    -0.10806    -0.61411      0.2593    0.055643
-0.14346    0.017965   0.0085458   -0.081101    -0.64204     0.23494    0.084876
-0.18504    0.023812    0.012443   -0.057065    -0.54135     0.22552     0.10989
-0.20225     0.02641    0.010819   -0.041475    -0.28573     0.20473     0.11768
-0.19381    0.029333   0.0056225   -0.034004    0.083901     0.15536     0.10306
-0.16653     0.03583   0.0033489    -0.03173     0.47205    0.079029    0.066686
-0.13112    0.046223   0.0046481   -0.030106     0.76762  -0.0076946    0.020564
-0.098316    0.054668   0.0091954   -0.023935      0.8956    -0.08305   -0.026533
-0.07493    0.053044    0.013743   -0.015165     0.83421     -0.1295   -0.062912
-0.061937    0.042326    0.015692  -0.0060706     0.62438    -0.14281   -0.083375
-0.056416     0.02641    0.013418   0.0017248     0.33952     -0.1243   -0.089871
-0.053492   0.0088706    0.010495   0.0085458    0.056292    -0.08305   -0.085324
-0.049595   -0.007045    0.011144    0.017316     -0.1701   -0.027508   -0.069733
-0.043099   -0.020687    0.016666    0.029333    -0.31236    0.024786   -0.052518
-0.034004    -0.03173    0.026735    0.045574    -0.36823    0.062139   -0.042124
-0.019063   -0.036602    0.036154    0.062789    -0.35589    0.077405     -0.0405
-0.0018481   -0.037577    0.041351    0.075131    -0.30619    0.081303   -0.046671
0.014068   -0.040175    0.040702    0.077405    -0.25682    0.090722   -0.053168
0.027709   -0.043099     0.03518    0.071883    -0.24058     0.11118   -0.054142
0.041027     -0.0405    0.025111     0.06084    -0.27793     0.13847   -0.043748
0.054993   -0.028157    0.012443    0.047198    -0.35881     0.16315   -0.021661
0.06961  -0.0067202   0.0052977    0.036154    -0.44066     0.17939    0.008221
0.07773    0.020564   0.0069217    0.029009    -0.48061     0.18297    0.038753
0.074157    0.047847    0.014717    0.024786    -0.46372     0.16965    0.059216
0.06084     0.06896    0.025436    0.023162    -0.39487     0.14626    0.065062
0.044924    0.081303    0.034206    0.024786    -0.28151     0.11606    0.054019
0.033881    0.082927     0.03583    0.028359    -0.13989    0.077405    0.030633
0.027709    0.070584    0.029333    0.028684  -0.0096434    0.019914 -0.00054884
0.01894    0.047198    0.018615    0.017316    0.066362   -0.061937    -0.03173
0.0039985    0.015042   0.0072465  -0.0034721    0.091372    -0.16912   -0.061288
-0.01614   -0.017114  -0.0041217   -0.027508    0.096893    -0.28313   -0.090521
-0.035303   -0.044723   -0.013541   -0.048945     0.11573      -0.377    -0.12073
-0.052193   -0.068434   -0.017764   -0.064536     0.14659    -0.43287    -0.15191
-0.06681   -0.089871   -0.016464   -0.072331     0.18719    -0.44846    -0.18471
-0.081426    -0.11001   -0.010293   -0.077203     0.26774    -0.43644    -0.21492
-0.098965    -0.12982  -0.0067202   -0.076879     0.42105    -0.41435    -0.23636
-0.12235    -0.14931  -0.0093186   -0.076229     0.64712    -0.39194     -0.2461
-0.14899     -0.1688   -0.018738   -0.073306     0.90696    -0.36628     -0.2435
-0.1753    -0.18342    -0.03238   -0.064861      1.1483    -0.32958    -0.22434
-0.19089    -0.18471   -0.042449    -0.04992      1.3191    -0.27599    -0.18991
-0.18407    -0.16782   -0.044723   -0.030431      1.3919    -0.20031    -0.14054
-0.14541    -0.13502    -0.04115   -0.010943      1.3705    -0.11033   -0.082725
-0.076554   -0.098965   -0.037902   0.0056225      1.2691   -0.022311   -0.028807
0.0059473    -0.06681   -0.035953    0.015042      1.1044     0.04395   0.0078962
0.079354   -0.037577   -0.034654     0.01829     0.88942    0.076106    0.016991
0.1232  -0.0028225   -0.030756    0.016341     0.61821    0.064088   0.0023744
0.13587    0.042651    -0.02361   0.0091954     0.27261    0.012119   -0.022636
0.12775    0.094295   -0.013866  -0.0028225    -0.15093   -0.061288   -0.039851
0.10956     0.13555  -0.0018481   -0.020037    -0.61508    -0.13957   -0.039851
0.089423     0.15373   0.0078962   -0.042449     -1.0708    -0.21102   -0.020037
0.074482     0.14594   0.0069217   -0.068109     -1.4739    -0.26722    0.013093
0.070584     0.12093   0.0010752   -0.096692      -1.775    -0.29742    0.054993
0.083901    0.092346  -0.0037969    -0.12073      -1.914    -0.29482     0.10079
0.10924     0.07708  -0.0024977    -0.13112     -1.8409    -0.26104     0.14237
0.13684    0.084226   0.0065969    -0.11975     -1.5307    -0.20778     0.16998
0.15763     0.10729    0.020888   -0.086298     -1.0224    -0.14671     0.18329
0.16478      0.1323    0.036154    -0.04115    -0.42702   -0.087272     0.18784
0.15601     0.14237    0.043625  -0.0011985     0.10794   -0.040825     0.18589
0.12807     0.13197    0.039402    0.025436     0.48147  -0.0083442     0.17387
0.082277     0.10729    0.026735    0.036804     0.67343    0.010495     0.15438
0.027385    0.082277    0.014068    0.039727     0.71728    0.023812      0.1362
-0.02361    0.065712   0.0062721    0.036154     0.67148    0.038753     0.13035
-0.063237    0.055318   0.0017248    0.028684     0.58605    0.055968     0.13782
-0.086298     0.04395 -0.00022403    0.020564     0.47952    0.074806     0.14626
-0.098641    0.024786 -0.00054884    0.017316      0.3353    0.096569     0.14399
-0.11423  -0.0034721 -0.00022403    0.014068     0.14107     0.13879      0.1271
-0.14184   -0.038551 -0.00087364   0.0075714   -0.090521     0.22357     0.10112
-0.18049   -0.075904  -0.0076946  -0.0060706    -0.31886     0.35154    0.073182
-0.21622    -0.11163   -0.022961   -0.021986    -0.48126      0.5003    0.052395
-0.23961    -0.14346   -0.041799   -0.036927    -0.53681      0.6286    0.044275
-0.24091    -0.17107   -0.057065   -0.044723    -0.49003     0.69811    0.046223
-0.21687    -0.18861   -0.064211   -0.041475    -0.38382     0.69129    0.054019
-0.16847    -0.19024   -0.062912   -0.027508    -0.26981     0.61724    0.063438
-0.09994    -0.17335   -0.054792   -0.007045    -0.17075      0.5042    0.074157
-0.023285    -0.13957   -0.043423    0.016666   -0.071357      0.3889    0.086175
0.045249   -0.097017   -0.028807    0.039727    0.041351      0.3012    0.099492
0.099817   -0.050894   -0.013866    0.057592     0.15536      0.2567     0.10956
0.13814  -0.0047713      0.0014    0.070584     0.22747     0.24598     0.11833
0.16153    0.040052     0.01764     0.08585     0.21805     0.23429     0.12353
0.1716    0.084551    0.032582     0.10826     0.10242     0.18654     0.12353
0.16868     0.12353    0.046873     0.13555    -0.11553    0.091696     0.11736
0.15601     0.15276    0.061165     0.15991    -0.37375   -0.038227     0.10599
0.14172     0.16868    0.073182     0.18232    -0.56376    -0.17692    0.089098
0.12743     0.17127    0.081952     0.20505    -0.57806    -0.29158    0.066686
0.11118     0.16315     0.08585     0.22422    -0.39162    -0.36693    0.040702
0.090722     0.14529    0.084226     0.23071   -0.073955    -0.41078    0.012119
0.065062     0.11931    0.076431     0.21252     0.28008    -0.44781   -0.014516
0.038428    0.090722    0.065387       0.169     0.58086     -0.4988   -0.034978
0.020239    0.067336     0.05142     0.11086     0.77314    -0.56571    -0.04115
0.01829    0.049796    0.039402    0.054668     0.84622    -0.62905   -0.026858
0.039727    0.035505    0.028684    0.011794     0.78451    -0.67647   0.0017248
0.082277    0.018615    0.011144   -0.019712      0.5906    -0.71123    0.027709
0.13035 -0.00022403    -0.01549   -0.051868     0.39409    -0.74631    0.032582
0.16348   -0.017114   -0.048945    -0.10221      0.3785    -0.78561   0.0069217
0.1664   -0.025559   -0.085973    -0.17757     0.57404    -0.81906   -0.043423
0.1362   -0.025234    -0.12073    -0.27209     0.84655    -0.82296    -0.10936
0.079354   -0.018738    -0.15061    -0.36888     0.99109    -0.77911    -0.17822
0.008221   -0.012242    -0.17562    -0.44424     0.86994    -0.68329    -0.23798
-0.063237   -0.010618    -0.19348    -0.47769     0.50453    -0.55142    -0.27209
-0.12203   -0.012242    -0.19803    -0.46048    0.054993    -0.39974    -0.27014
-0.15873   -0.010943    -0.18439    -0.39519    -0.28151     -0.2461    -0.23051
-0.17692  -0.0044465    -0.15061    -0.29385    -0.38187    -0.11033    -0.15841
-0.18147   0.0056225    -0.10254    -0.17562    -0.24838   -0.016464   -0.074605
-0.18082    0.016341   -0.052843   -0.067784    0.041027    0.022837   -0.010293
-0.18277    0.016666   -0.020037   0.0062721     0.37525    0.010495    0.011469
-0.18439  0.00075039   -0.011917    0.038428     0.65686   -0.034329  -0.0089938
-0.17789   -0.029132   -0.020687    0.036154     0.82024   -0.078827   -0.045372
-0.16198   -0.064211   -0.035953     0.01764     0.84298   -0.093119   -0.068109
-0.14152    -0.09182   -0.047971  -0.0015233     0.72994   -0.063237   -0.062262
-0.11845    -0.10319   -0.052843   -0.013866      0.5068  -0.0021729   -0.030431
-0.092145   -0.098641   -0.046671   -0.017439     0.22032    0.065387    0.008221
-0.066485   -0.087597   -0.027833   -0.011592   -0.088247     0.11833    0.036154
-0.04992   -0.076229  -0.0031473   0.0026992    -0.38967     0.15471    0.042001
-0.047971   -0.066485     0.01894    0.023487    -0.63555     0.18069     0.02706
-0.060313   -0.055441    0.035505    0.042975    -0.78301     0.20765 -0.00022403
-0.08305   -0.042449    0.047847    0.053369    -0.82653     0.24566   -0.032705
-0.11326   -0.029132    0.053369    0.055968    -0.78301     0.29633   -0.062587
-0.14574   -0.015815    0.053044    0.058891    -0.66803     0.34764   -0.085324
-0.16912  -0.0054209    0.048172    0.067336     -0.5027      0.3811   -0.092794
-0.1753 -0.00054884    0.042651    0.084551    -0.31594      0.3876   -0.084999
-0.15905  -0.0034721    0.038103     0.10534    -0.14119     0.36681   -0.068434
-0.12138   -0.014191    0.034206     0.12223   0.0023744     0.32361   -0.052518
-0.072656   -0.026858    0.029009     0.13165     0.10599     0.26514   -0.047646
-0.020037   -0.040175    0.022512     0.13197     0.15893     0.20246   -0.054792
0.030308   -0.050894    0.013418     0.12515     0.13425     0.14334   -0.072656
0.078379   -0.060313   0.0017248     0.11086   0.0088706    0.094945   -0.090845
0.13197   -0.067784   -0.008669    0.097868    -0.20485    0.064737   -0.095717
0.19856   -0.070707   -0.016464    0.091696     -0.4647    0.061489   -0.082076
0.27521    -0.06616   -0.020037    0.090722    -0.71058    0.083576   -0.051219
0.34375    -0.04992   -0.019388    0.089748    -0.88727     0.12807   -0.012242
0.3772   -0.017764   -0.013541    0.083901    -0.96165     0.18654     0.02706
0.36194    0.032906 -0.00087364    0.066362    -0.93957     0.24988    0.058566
0.30315    0.091372    0.013418     0.03583    -0.83953     0.30639    0.075131
0.2174     0.14432    0.021213  -0.0041217    -0.67712      0.3431    0.076431
0.1271      0.1755    0.015692   -0.043423    -0.44261      0.3353    0.063763
0.047523      0.1768  -0.0037969    -0.07493    -0.10416     0.26839    0.044599
-0.018088     0.14789   -0.031406   -0.090845     0.33043     0.15406    0.020239
-0.068109     0.10047   -0.059014   -0.090521     0.77022    0.026085  -0.0076946
-0.10416    0.049472   -0.076554    -0.07428      1.0902   -0.084674   -0.036278
-0.1243     0.01017   -0.080127   -0.045047      1.2139    -0.16685   -0.061613
-0.12365  -0.0083442   -0.068758   -0.010293       1.147    -0.21557   -0.079477
-0.10221   -0.008669   -0.044398    0.025436     0.94691    -0.23474   -0.087272
-0.06681   0.0052977   -0.010293    0.059865     0.69454    -0.23051   -0.083375
-0.027508     0.02706     0.02706     0.09462     0.47399     -0.2068   -0.066485
0.0023744    0.052395     0.06019      0.1297     0.33725    -0.16685   -0.041799
0.012119    0.074482    0.079354     0.15958     0.27781    -0.12365   -0.017114
0.0046481    0.084551    0.080653     0.17452     0.24858   -0.093769  -0.0034721
-0.010943    0.082927    0.064413     0.17062     0.20213   -0.078178  -0.0028225
-0.022311    0.072858    0.042326     0.15438     0.11963    -0.06616   -0.010293
-0.019712    0.064737    0.026735     0.14139    0.015042   -0.048296   -0.015165
-0.0034721    0.063763     0.02641     0.14204   -0.077853    -0.01549  -0.0034721
0.015367     0.06961    0.040052     0.15633    -0.13859    0.040377    0.023812
0.022837     0.07708     0.06019     0.17355    -0.17594     0.12028    0.056292
0.014717    0.078379     0.07773     0.18362    -0.21655     0.21317    0.079029
-0.0047713    0.067986    0.084876     0.18232    -0.27988     0.29633    0.088124
-0.025559    0.046223    0.076106     0.16705    -0.36726     0.35836    0.083251
-0.037577    0.023487    0.058241     0.14139    -0.45723     0.40449    0.074806
-0.029457     0.01017    0.038428     0.11151    -0.50627     0.45321    0.074806
-0.0047713   0.0085458    0.019589    0.078704    -0.47444     0.51979    0.088124
0.02641     0.01764  0.00075039    0.042001    -0.36758     0.59612     0.10534
0.053694    0.027709   -0.016789   0.0026992    -0.23019     0.65816     0.11573
0.072533    0.031932    -0.03303   -0.034004   -0.098641     0.68025     0.11086
0.083901    0.028034   -0.045697   -0.067134    0.012119     0.64907     0.08585
0.090397     0.01764   -0.054467   -0.095393     0.11768     0.56462    0.050446
0.092021   0.0052977   -0.059014    -0.12008     0.25962     0.43924    0.017965
0.082602  -0.0073698    -0.05804    -0.13924     0.47692     0.29665  -0.0024977
0.051745   -0.023935   -0.053492    -0.14801     0.75788     0.16315   -0.011917
-0.0021729   -0.045047   -0.047321    -0.13892       1.032    0.059541   -0.017764
-0.069408    -0.06681   -0.038227    -0.11163       1.209 -0.00087364   -0.022311
-0.13632   -0.086948   -0.024585   -0.070382      1.2389   -0.017114   -0.023935
-0.18374    -0.10026   -0.008669   -0.029132      1.1399 -0.00022403   -0.024585
-0.19933    -0.10384   0.0049729   0.0036737     0.97257    0.025761   -0.025234
-0.18082   -0.096042    0.014068    0.023487     0.76372    0.037778   -0.020687
-0.14054   -0.077203    0.023812     0.03453     0.49283     0.01894  -0.0096434
-0.09182    -0.04927    0.033556    0.039078     0.14919   -0.031081   0.0023744
-0.046671   -0.021986    0.041027    0.038753    -0.22661   -0.098316   0.0056225
-0.011267  -0.0018481    0.042975    0.036479    -0.58845      -0.161  -0.0018481
0.012119   0.0085458    0.040702     0.03453    -0.90449     -0.2029   -0.012242
0.023812   0.0085458    0.033231    0.036804     -1.1575    -0.21947   -0.018088
0.023162  -0.0031473    0.024137    0.041027     -1.3495    -0.21492   -0.017439
0.015042   -0.021012    0.016016    0.045899     -1.5038    -0.19771  -0.0089938
0.0020496   -0.041475    0.009845    0.047198     -1.6528    -0.18634      0.0014
-0.010293   -0.060313   0.0046481    0.042651     -1.7932     -0.2016    0.008221
-0.021012   -0.076554   0.0036737    0.028359      -1.874     -0.2526   0.0069217
-0.034978   -0.089546   0.0095202    0.011469     -1.8354    -0.32243 -0.00054884
-0.054467   -0.099615    0.017316      0.0014     -1.6463     -0.3835  -0.0089938
-0.075904    -0.10514    0.024786   0.0017248      -1.329    -0.41533    -0.01614
-0.090845    -0.10806    0.028034   0.0059473    -0.94184    -0.41305   -0.020687
-0.089871    -0.11033    0.024461   0.0023744     -0.5891    -0.38967   -0.025559
-0.075579    -0.11228   0.0091954   -0.021012    -0.38285    -0.37115   -0.035953
-0.051868    -0.11618   -0.020037   -0.061937    -0.36466    -0.37083   -0.055116
-0.025234    -0.11878    -0.05739    -0.10416    -0.48094    -0.38415   -0.082076
0.0014    -0.10903   -0.086298    -0.12787    -0.63197    -0.39032    -0.11001
0.028034   -0.081101   -0.096367    -0.12625    -0.73494    -0.37278     -0.1308
0.055643     -0.0405   -0.082725    -0.10091    -0.74631    -0.33218    -0.13762
0.075131   0.0026992   -0.053168   -0.064211     -0.6742    -0.27534    -0.12852
0.079354    0.040702   -0.018413   -0.021661    -0.56961    -0.20778    -0.10416
0.067336    0.068635    0.011469    0.020564     -0.5001    -0.12852   -0.067459
0.039078    0.086824    0.031607    0.058891     -0.5014   -0.039526   -0.021012
-0.0028225    0.091696    0.038103      0.0852    -0.54103     0.04395    0.033556
-0.052518    0.083901    0.036479    0.096893    -0.53421     0.10047    0.087799
-0.10319    0.072533    0.031607    0.094295    -0.39876     0.10826     0.13555
-0.14996    0.062789    0.025436     0.07773    -0.09182    0.067986     0.17127
-0.18634    0.058891     0.01764    0.048822     0.36453  -0.0024977     0.19206
-0.2068    0.065062    0.008221    0.013743     0.86311   -0.072331     0.19271
-0.20128    0.078055  -0.0031473   -0.020687      1.2597    -0.11618      0.1716
-0.16718    0.091047   -0.014516   -0.047971      1.4383    -0.13015     0.13295
-0.11391    0.094945   -0.024585   -0.064536      1.3594    -0.12365      0.0852
-0.052518    0.087474   -0.031406   -0.072981      1.0895    -0.11488    0.039078
0.0062721    0.068635   -0.035303   -0.075904       0.766    -0.11813   0.0049729
0.059216    0.044599   -0.032705   -0.071682     0.52791    -0.13307   -0.013216
0.10242    0.019264   -0.021012   -0.059664     0.44639    -0.15451   -0.018088
0.13165   0.0020496 -0.00054884   -0.039526     0.50128     -0.1688   -0.018088
0.14691  -0.0057458    0.023162   -0.013541     0.61106    -0.16295   -0.020362
0.15049  -0.0076946    0.036154    0.014068     0.69454    -0.12885   -0.029132
0.14854   -0.010618    0.034855    0.037454     0.70688   -0.075255   -0.035303
0.15244   -0.017764    0.025111    0.050121     0.64062   -0.011267    -0.03173
0.1638   -0.026209    0.015367    0.052395     0.52012    0.044275   -0.012242
0.17842   -0.019388    0.011794    0.046873       0.385    0.074482    0.020888
0.18589    0.014068    0.017316    0.042001     0.26709    0.073182    0.050446
0.18297    0.071558    0.028684    0.042651     0.18232    0.036804    0.061165
0.1729      0.1362    0.038103    0.044599      0.1349   -0.021986    0.054993
0.15958     0.18394    0.044275    0.045249     0.11638   -0.084674    0.037129
0.14107     0.19726    0.042326    0.041351     0.11151    -0.12982    0.017316
0.12223      0.1729    0.030308     0.03453     0.10566    -0.15223   0.0033489
0.10859      0.1258    0.013418    0.030633    0.086175    -0.15613   0.0026992
0.09462    0.079029 -0.00054884    0.032582     0.05142    -0.15386    0.016016
0.070259     0.05272  -0.0011985    0.039727    0.011144    -0.15093    0.038753
0.029658    0.051096    0.011144    0.046548    -0.02361    -0.15093    0.066037
-0.022636    0.064413    0.028359     0.05207   -0.046347    -0.15743    0.091047
-0.081101    0.079354    0.037778    0.053369   -0.060963     -0.1701     0.10306
-0.13859    0.084876    0.036479    0.047847   -0.078827    -0.17789    0.099817
-0.18244    0.071558    0.025436    0.037454    -0.10968    -0.16782    0.085525
-0.20128    0.039078    0.013093    0.023812    -0.16068    -0.12657    0.072208
-0.18634   -0.008669  0.00075039    0.010495    -0.23344   -0.053168     0.06831
-0.13664   -0.059664  -0.0096434 -0.00054884    -0.30457    0.039078    0.072208
-0.059989    -0.10384   -0.016464  -0.0041217    -0.33543     0.12743    0.078704
0.022512    -0.13145   -0.013866   0.0065969    -0.28735     0.19369    0.078704
0.083576    -0.14249  -0.0024977    0.024137    -0.11748     0.23559    0.065387
0.10891    -0.13502    0.011144    0.040377     0.16835      0.2606    0.032582
0.095594    -0.11261    0.016991    0.045899     0.49836     0.28398   -0.016789
0.051096   -0.080451   0.0078962    0.042651     0.79166     0.32101   -0.072656
-0.012567   -0.044073   -0.012567     0.03583      1.0138      0.3746    -0.11943
-0.07428   -0.011917    -0.03238    0.028359      1.1918     0.43827    -0.13469
-0.11391    0.012443   -0.043099     0.02706      1.3744     0.51622    -0.10709
-0.12008    0.027385   -0.037577     0.03518      1.5702     0.61269   -0.041475
-0.095393     0.03453   -0.016789    0.051096      1.7368     0.70688    0.040702
-0.056416    0.039727    0.011144    0.064088      1.8164      0.7595     0.11216
-0.013866    0.045574    0.033556    0.061489      1.7645     0.73904     0.15244
0.032257    0.054668    0.042651    0.039727      1.5478     0.64062     0.15503
0.090722    0.065062    0.031607   0.0033489       1.196     0.47984     0.13002
0.16835    0.073182   0.0036737   -0.032705     0.81407     0.28561    0.092346
0.25832    0.075131   -0.028157   -0.056416     0.48861    0.087474    0.056942
0.34375    0.072208   -0.047646   -0.064211     0.20343   -0.088247    0.031607
0.40611    0.066037   -0.050569   -0.062912    -0.17594    -0.22824     0.01829
0.43242    0.060515   -0.042124   -0.058689    -0.80282    -0.33575    0.014717
0.41943    0.057267   -0.030756   -0.058365     -1.6658    -0.42637    0.016016
0.36973    0.057917   -0.024585   -0.064536     -2.5084    -0.51277    0.015367
0.28756    0.054993   -0.025234   -0.076229     -2.9699    -0.59462   0.0056225
0.18654      0.0433   -0.032705   -0.091495     -2.8553    -0.66738   -0.015165
0.081627    0.019589    -0.04115    -0.10741     -2.2664     -0.7213   -0.045047
-0.0076946   -0.010618   -0.047971     -0.1204     -1.4804    -0.74891   -0.077528
-0.069408   -0.035628   -0.050244     -0.1256    -0.76709    -0.74371    -0.10936
-0.099615   -0.052518   -0.046671    -0.12138    -0.31236     -0.7083    -0.13957
-0.10514    -0.05739   -0.037252    -0.10806    -0.16685    -0.65406    -0.17042
-0.10026   -0.046996   -0.024585   -0.092794    -0.25195    -0.59105    -0.20096
-0.094418   -0.027183   -0.012892   -0.077853    -0.40818    -0.51862    -0.22791
-0.092794  -0.0089938  -0.0037969   -0.061613     -0.4621    -0.42897    -0.24156
-0.09182  -0.0041217  -0.0011985   -0.045047    -0.32276    -0.32211    -0.23831
-0.090521   -0.018088  -0.0054209   -0.030756   -0.023935    -0.20323    -0.21687
-0.089546   -0.043423   -0.011917   -0.016789     0.31289   -0.081101    -0.18082
-0.088896   -0.062587   -0.011592   0.0069217     0.54708    0.032906     -0.1269
-0.084024    -0.06551   0.0036737    0.045574     0.58151      0.1323   -0.054792
-0.073306   -0.053168    0.036479    0.092996     0.39572     0.21285    0.031282
-0.056741   -0.032055    0.076431     0.13295    0.034206     0.27294     0.11801
-0.034329  -0.0083442     0.10631     0.15081    -0.39941     0.30802     0.19174
-0.008669    0.015692     0.11216     0.13587    -0.79016     0.31516     0.23786
0.012119    0.032582    0.089423    0.091372     -1.0646     0.29762     0.25085
0.023812    0.036804    0.046548    0.028034     -1.1819     0.27359     0.23364
0.025761    0.026085  -0.0034721   -0.034329     -1.1296     0.26222     0.20018
0.021213   0.0033489   -0.042774   -0.081751    -0.93177     0.27294     0.16023
0.017316   -0.023285   -0.061937    -0.11131    -0.63003     0.29827     0.12515
0.017316   -0.046022   -0.061613    -0.12495    -0.26559     0.32783    0.094295
0.019914   -0.057065   -0.051544    -0.12527      0.1362     0.35836    0.065712
0.022512   -0.056741   -0.040825    -0.11488     0.54805     0.39214    0.040377
0.01829   -0.044723    -0.03173   -0.094093     0.93717     0.43989    0.029333
0.0023744   -0.026858   -0.022961   -0.067459      1.2623     0.51687    0.037778
-0.023285   -0.010293   -0.013866   -0.042124      1.4848     0.62113     0.06084
-0.052518 -0.00087364  -0.0083442   -0.021661      1.5913     0.72605     0.08585
-0.072656  0.00075039  -0.0073698  -0.0076946       1.579     0.79068    0.098842
-0.081101  -0.0060706   -0.011267  -0.0031473      1.4481     0.77769    0.087474
-0.086623   -0.018088   -0.017764  -0.0050961      1.2198     0.66596    0.050121
-0.095393   -0.035303   -0.025234   -0.015815     0.93717     0.46458  -0.0063954
-0.11228   -0.053817    -0.03173   -0.034654     0.62763     0.21123   -0.072331
-0.13372   -0.072006   -0.036602   -0.053492     0.30185   -0.042449     -0.1334
-0.15223   -0.086298   -0.038227   -0.059014    -0.02426    -0.24286    -0.18017
-0.15646   -0.098965   -0.038227   -0.047321    -0.32211    -0.35296     -0.2094
-0.14639    -0.10968   -0.038551   -0.025234    -0.56214    -0.36661    -0.22109
-0.12787    -0.11456   -0.036602  -0.0018481    -0.72097    -0.31789    -0.22077
-0.10806    -0.10806   -0.029457    0.021213    -0.79373    -0.26397    -0.21102
-0.097017    -0.09182   -0.017439    0.046548    -0.80315     -0.2526    -0.19024
-0.10384   -0.069733  -0.0050961    0.067986    -0.83336    -0.29093    -0.16003
-0.12885   -0.051868   0.0043233    0.082927    -0.97822    -0.36401    -0.12917
-0.15938   -0.038551   0.0095202    0.089098     -1.2377    -0.45041    -0.10189
-0.18374   -0.026209    0.012768    0.088448     -1.4599    -0.53908   -0.077528
-0.19608   -0.011592    0.016016      0.0865     -1.4476    -0.62548   -0.053168
-0.19089   0.0056225    0.025436    0.088448     -1.0964    -0.70116   -0.029457
-0.16718    0.020564    0.037129    0.093321    -0.45495    -0.74988   -0.007045
-0.12982    0.028684    0.042651    0.090722     0.31159    -0.75443    0.010819
-0.089221    0.026735    0.035505    0.072858      1.0132    -0.70993    0.016666
-0.051868     0.01764    0.014717    0.030957      1.5228    -0.62288   0.0085458
-0.026209   0.0062721   -0.018738   -0.026533      1.7982     -0.5027  -0.0063954
-0.018413  -0.0060706   -0.058689   -0.086948      1.8353    -0.36921   -0.026209
-0.034978   -0.013541   -0.089871    -0.14022      1.6631    -0.25552   -0.046671
-0.072981   -0.012242    -0.10449    -0.17302      1.3614    -0.18569   -0.062587
-0.12073 -0.00087364    -0.10514    -0.17789      1.0294    -0.16003   -0.065186
-0.15841    0.019264   -0.097991    -0.15646     0.72767    -0.15548   -0.048296
-0.16977    0.042651   -0.089221    -0.11683     0.45646    -0.14964   -0.022636
-0.16165    0.062139   -0.078827   -0.071032     0.19401     -0.1334   0.0017248
-0.14769    0.071234   -0.067134   -0.029782   -0.047971    -0.10319    0.017316
-0.13664    0.066037   -0.055441   0.0033489    -0.22694   -0.059339     0.01894
-0.13145    0.047847   -0.046022    0.029009    -0.30977  -0.0028225   0.0088706
-0.12073    0.025111     -0.0405    0.050771    -0.29158    0.066037  -0.0050961
-0.092145   0.0085458   -0.035953    0.072208    -0.20225     0.14042   -0.018088
-0.039526   0.0056225   -0.028157    0.092671   -0.081751     0.21967   -0.021337
0.02706    0.015692   -0.018088     0.11086    0.017965      0.3025   -0.012567
0.092671    0.033556  -0.0060706     0.12255    0.052395     0.38467   0.0052977
0.14756    0.048822   0.0043233      0.1245  -0.0021729     0.45516     0.02641
0.18946    0.055968    0.014717     0.11768    -0.14152     0.50453    0.042975
0.22227    0.053369    0.022512     0.10469    -0.32601     0.52564    0.053044
0.24955    0.049472    0.029333    0.092346    -0.51082     0.52174    0.054019
0.27002    0.046873     0.03583    0.088124    -0.64789     0.49901    0.048172
0.27976    0.047847    0.038103    0.093321    -0.70538     0.46717    0.039727
0.27326    0.048172    0.036804     0.10599     -0.6729     0.42722    0.031932
0.25215    0.046223    0.037454     0.12125    -0.56831     0.37818    0.028684
0.22097    0.044599    0.044599      0.1323    -0.42767     0.32036    0.034206
0.18751    0.041351    0.057592     0.13879    -0.28476     0.25507    0.041676
0.15503    0.036804    0.070584     0.14172    -0.16003     0.18719    0.040377
0.1232    0.033231    0.080978     0.14399   -0.063237     0.12028    0.024461
0.090397    0.032257    0.081303     0.14464  -0.0015233    0.055318  -0.0028225
0.056942    0.031932    0.072533     0.14204    0.025436  -0.0083442   -0.031406
0.028684    0.029983    0.058241     0.13457    0.029658   -0.068434   -0.059014
0.008221    0.028359    0.041676     0.11541    0.028684    -0.12235    -0.08305
-0.0096434    0.028359    0.024786    0.090072    0.035505    -0.16588    -0.10676
-0.025884    0.032906   0.0095202    0.066037    0.047198    -0.19901    -0.12235
-0.039526    0.039727   0.0026992    0.050771    0.051096    -0.21882    -0.11975
-0.046022    0.047847   0.0023744    0.045249    0.042975    -0.22174   -0.093444
-0.04115    0.055318   0.0052977    0.047523    0.016016    -0.20875   -0.046022
-0.025559    0.058891   0.0075714    0.049147   -0.031406    -0.18894   0.0088706
-0.0024977    0.055643   0.0046481    0.044599   -0.088572    -0.17724    0.056617
0.019264    0.043625  -0.0031473    0.031932    -0.13599    -0.18471    0.087149
0.032257    0.026085  -0.0067202     0.01894    -0.16198     -0.2055     0.10404
0.038428     0.01017   0.0043233    0.015692    -0.16847     -0.2042     0.11898
0.043625   0.0069217    0.028684    0.027385    -0.17789    -0.13664     0.14886
0.045249    0.017316    0.054668    0.044275    -0.22077    0.008221     0.19499
0.039078    0.029009    0.069934    0.048822    -0.32633     0.19888     0.24533
0.022837    0.033231    0.072208     0.03518    -0.48938     0.38402     0.28463
-0.0024977    0.030633    0.063438   0.0078962    -0.65796     0.52759      0.2999
-0.034004    0.024786    0.049472   -0.020362    -0.78074     0.63153     0.28658
-0.064536     0.01764    0.029983   -0.044398    -0.82426     0.71793      0.2476
-0.086298   0.0069217   0.0072465   -0.061288    -0.79535     0.79783     0.18622
-0.089871  -0.0073698   -0.018413   -0.069733     -0.7161     0.85207     0.11606
-0.069083   -0.018088     -0.0405   -0.070707    -0.61216     0.85759    0.052395
-0.029457   -0.019388   -0.053492   -0.067784    -0.49296      0.7988   0.0069217
0.016666   -0.012567   -0.056416   -0.062912    -0.34907      0.6757   -0.018738
0.058241   -0.011267   -0.053817   -0.057715    -0.16815      0.5003    -0.03303
0.0865   -0.031081   -0.051544   -0.052518    0.048497     0.30152     -0.0405
0.096893   -0.071682   -0.053168    -0.04992     0.29113     0.10826   -0.045372
0.084226    -0.11131    -0.05739   -0.048296     0.54545   -0.052518   -0.042774
0.050771     -0.1269   -0.057715   -0.043423     0.77509    -0.16847   -0.026533
0.01017    -0.11001   -0.051219   -0.030106     0.92255    -0.23668   0.0085458
-0.022961   -0.070058    -0.04115  -0.0099683     0.94204    -0.26559    0.050121
-0.039526    -0.02361   -0.026209    0.010819     0.83096    -0.26981    0.082602
-0.040175    0.016016   -0.011267    0.025436     0.62471    -0.27274     0.09462
-0.022961    0.046873   0.0026992    0.035505     0.39507    -0.28768    0.082602
0.0088706    0.072533    0.013743    0.040377     0.23624    -0.31951    0.053694
0.039727    0.095919    0.020564    0.041351     0.23721    -0.35589    0.021538
0.054668      0.1258    0.022188     0.03518      0.4295    -0.37992  -0.0050961
0.048822      0.1664    0.024461    0.023812     0.73774    -0.38545   -0.021337
0.030633     0.21772    0.030308    0.014068      1.0187    -0.37927   -0.028157
0.016016     0.27294      0.0433    0.017965      1.1291    -0.36466   -0.026533
0.016016     0.31646    0.065062    0.033556      1.0008    -0.34127   -0.017439
0.029009      0.3314    0.089423    0.059865     0.65426    -0.30814  -0.0018481
0.0433     0.30834     0.11054    0.091696     0.18134    -0.27111    0.016016
0.050771     0.25085      0.1245     0.11833    -0.32795    -0.24513    0.030957
0.04395      0.1729     0.12483     0.12548    -0.80737     -0.2461     0.03453
0.013743    0.090397     0.10599     0.10436     -1.2286    -0.28281     0.01764
-0.040825    0.011469    0.065062     0.05272     -1.5729    -0.34647   -0.017114
-0.11488   -0.056416    0.010819   -0.022311     -1.7818    -0.41695   -0.058689
-0.18764    -0.10709   -0.040175   -0.098641     -1.8023    -0.47152   -0.090196
-0.23506    -0.13404   -0.069733    -0.15743     -1.6265    -0.49848    -0.10481
-0.23474    -0.13892   -0.076554    -0.18699     -1.3001    -0.49458    -0.10871
-0.19154    -0.12852   -0.069408    -0.19283    -0.90481    -0.45528    -0.10676
-0.12073    -0.11293   -0.054467    -0.18277    -0.51374    -0.38025   -0.097666
-0.038551   -0.097991   -0.040175    -0.16653    -0.14931    -0.27826   -0.077203
0.039727   -0.087922   -0.033679    -0.15256     0.21123    -0.16295   -0.044723
0.10469   -0.084024    -0.04115    -0.14379      0.5958   -0.043099  -0.0080194
0.14789   -0.084024    -0.05804    -0.14281      1.0044    0.068635    0.016016
0.16056   -0.085973   -0.081101    -0.15516      1.3841     0.14691     0.01764
0.13782   -0.085324    -0.10091    -0.18439      1.6365     0.17452  -0.0080194
0.085525   -0.079477    -0.11066    -0.21947      1.7044     0.15341   -0.056741
0.023487   -0.071357    -0.10806    -0.24415      1.6176     0.10924    -0.11131
-0.024585   -0.062912   -0.093444    -0.24123      1.4549    0.076106    -0.14509
-0.044073   -0.059014   -0.069733    -0.20453       1.275    0.082277    -0.14379
-0.03173   -0.056741   -0.042774    -0.14281      1.0963     0.12905    -0.11261
0.0023744   -0.055441   -0.015815   -0.072331     0.91021     0.19434   -0.067784
0.042651   -0.060313   0.0052977   -0.007045     0.69974     0.24858   -0.025234
0.074157   -0.073631    0.013418    0.042651     0.45613     0.27456   0.0023744
0.090072   -0.089221    0.008221    0.074806     0.18784     0.27391    0.013418
0.087799   -0.091495  -0.0050961    0.090722   -0.087272     0.25572    0.014392
0.075781   -0.072981    -0.01614    0.096893    -0.37408     0.22259    0.009845
0.056617   -0.039201   -0.017439     0.10209    -0.69012     0.17127      0.0014
0.032906  -0.0018481  -0.0073698     0.11151     -1.0088    0.084551   -0.012242
0.008221    0.030308    0.015692      0.1271     -1.2676    -0.04862   -0.030756
-0.017764    0.047523     0.04395     0.14529     -1.4034    -0.21005   -0.048945
-0.046671    0.050446    0.066037     0.15503     -1.3953    -0.35361   -0.063561
-0.077528    0.042001    0.071558     0.14886     -1.2595    -0.44099   -0.075579
-0.10644    0.022837     0.06084      0.1258     -1.0354    -0.45171   -0.090196
-0.13469  -0.0096434    0.041676    0.096569    -0.77034    -0.39649    -0.10611
-0.16393   -0.055116    0.020564    0.074157      -0.504    -0.30717    -0.11845
-0.18926    -0.10903 -0.00087364    0.063113    -0.24578    -0.20972     -0.1243
-0.2016    -0.15841   -0.017114    0.059216    0.015042    -0.11845     -0.1217
-0.19868    -0.18569   -0.022961    0.058891     0.26904   -0.043423    -0.11488
-0.17724    -0.18049    -0.01614    0.059541     0.47692    0.016016    -0.10351
-0.13697    -0.14346 -0.00054884    0.062464     0.61009    0.061489   -0.089871
-0.079802   -0.084024    0.016341    0.065062     0.65491    0.098842   -0.069408
-0.018738   -0.022961    0.029983    0.067661     0.62341      0.1271   -0.037577
0.033881    0.019264    0.038428    0.064737     0.54578     0.14139      0.0014
0.06896    0.027385    0.036479    0.056942     0.44834     0.13879    0.038428
0.080978   0.0052977    0.025111    0.043625     0.31939     0.11866    0.065712
0.073507   -0.029457   0.0069217    0.025761    0.097218      0.0852    0.084876
0.052395   -0.059014  -0.0096434   0.0039985    -0.26039      0.0433    0.093321
0.028359   -0.073955   -0.019712   -0.015815    -0.67517  0.00042559    0.089748
0.012119   -0.076229    -0.02361   -0.026209    -0.97497   -0.045047     0.07773
0.009845   -0.069083   -0.022961   -0.021337    -0.99641   -0.097666    0.062464
0.020239   -0.062587    -0.01549  -0.0015233    -0.70798    -0.15256    0.050121
0.039078   -0.058689  -0.0044465    0.029333    -0.23051    -0.19121    0.046223
0.059865    -0.05804   0.0056225    0.063438     0.22129    -0.19738    0.050446
0.072858   -0.056741   0.0091954    0.092671     0.42917     -0.1714    0.059216
0.070259   -0.051544   0.0046481     0.10761     0.30639    -0.13242     0.06896
0.05207   -0.042774  -0.0024977     0.10664   -0.064536   -0.097666    0.076431
0.025761   -0.031081  -0.0063954    0.094295    -0.48646   -0.075904    0.077405
0.00042559   -0.018088  0.00042559    0.080978    -0.78431    -0.06681    0.071558
-0.01484  -0.0034721    0.015042    0.073507    -0.89312   -0.074605    0.062464
-0.017114    0.011469    0.030957    0.078055    -0.85154    -0.10351     0.05207
-0.0080194    0.025111    0.041676    0.093645    -0.74891    -0.15516     0.04395
0.0065969     0.03453    0.045574     0.10989    -0.67907    -0.22889    0.034206
0.014717    0.037129     0.04395     0.11703    -0.64724    -0.31431    0.020239
0.0088706    0.033556    0.036154     0.11054    -0.58845    -0.38512   0.0049729
-0.0083442    0.022188    0.030308    0.096244    -0.44066    -0.40948   -0.007045
-0.026858     0.01017    0.026085    0.079029    -0.19511    -0.37018   -0.014516
-0.034654   0.0026992    0.027385    0.064737     0.10177    -0.26884   -0.017114
-0.029782   0.0033489    0.032257    0.056617     0.36453    -0.11586   -0.015815
-0.012567    0.012768    0.034206     0.05272      0.5146    0.065062   -0.011592
0.013418    0.030633    0.029983    0.046223     0.50777     0.24533  -0.0063954
0.045574    0.061489    0.020888    0.031282     0.33758     0.40124  -0.0024977
0.083251     0.10534    0.010495   0.0039985    0.035505     0.51427  -0.0024977
0.12548     0.15503  -0.0011985   -0.036278    -0.32666     0.57598  -0.0076946
0.1677     0.19434   -0.015165   -0.087272    -0.65504       0.588   -0.016789
0.20895     0.20798    -0.03238    -0.14119    -0.86778     0.55682   -0.029132
0.24143     0.18524    -0.04927    -0.18601     -0.9282     0.48926   -0.042124
0.2567     0.13392   -0.060313    -0.20778    -0.86096     0.39994   -0.053492
0.24371    0.069934   -0.064861    -0.19933    -0.70863      0.3038   -0.060313
0.20505     0.01017   -0.066485     -0.1688    -0.48906     0.20993   -0.059339
0.14821    -0.03238   -0.064861    -0.12787    -0.19673     0.11606   -0.047971
0.075131   -0.051868   -0.060313   -0.084999     0.17322    0.025111   -0.022961
-0.010293   -0.049595   -0.052518   -0.046996     0.60879   -0.056091    0.011469
-0.096692   -0.035303   -0.041799   -0.011917      1.0518    -0.11326    0.045249
-0.16588   -0.017439   -0.026858    0.022512      1.4169    -0.12787    0.071558
-0.20063  -0.0047713  -0.0099683    0.052395      1.6134   -0.085648    0.090397
-0.19803  -0.0031473    0.003024    0.077405      1.6008   0.0095202    0.099492
-0.16263   -0.008669   0.0072465    0.091696      1.4124     0.14269     0.10047
-0.10546   -0.014516      0.0014    0.091372      1.1369     0.28626    0.098193
-0.03238   -0.013541  -0.0073698    0.083576     0.87481     0.41391     0.10242
0.049796      0.0014  -0.0096434    0.080003     0.69324     0.50453     0.11801
0.1297    0.029009 -0.00087364      0.0852     0.61334     0.55552     0.14237
0.19044    0.069285     0.01764    0.098193      0.5984     0.57988      0.1755
0.22389     0.11931    0.037778     0.11606     0.56721       0.588     0.20928
0.23169     0.16965     0.05207     0.12937       0.461     0.57469     0.23948
0.22194     0.20538    0.056292     0.12807     0.29925     0.51882     0.25248
0.19888     0.21447    0.050121     0.11411     0.15568     0.40481     0.24078
0.16803     0.19174    0.036154    0.092346    0.090722     0.23624     0.20473
0.13457     0.14691    0.017316     0.06961    0.094295    0.031607     0.14984
0.099167    0.094945 -0.00054884    0.048497     0.11021    -0.17367     0.08585
0.064737    0.046873   -0.013866    0.022512     0.10209    -0.34712    0.021213
0.026735   0.0078962   -0.026533    -0.01614     0.06961    -0.47249   -0.037252
-0.022311   -0.023285   -0.040825   -0.067459    0.038753    -0.55532   -0.088896
-0.081751   -0.048296   -0.053817    -0.12073    0.054344    -0.60696     -0.1321
-0.14671   -0.065186   -0.057715    -0.15841     0.13457    -0.63522     -0.1623
-0.20648   -0.070707   -0.055766    -0.17562     0.24728    -0.63912    -0.17594
-0.2552   -0.066485   -0.053817    -0.17919      0.3405    -0.61996    -0.17659
-0.29547   -0.060963   -0.053817    -0.17789     0.35382     -0.5891      -0.174
-0.33478   -0.058365   -0.059339    -0.18082     0.26839    -0.55889    -0.17887
-0.37213   -0.064211   -0.070058    -0.18926     0.12775    -0.52901    -0.19219
-0.39974   -0.073306     -0.0837    -0.19771 -0.00022403    -0.48419    -0.20648
-0.40558   -0.080451   -0.097341    -0.20323   -0.061288    -0.40981    -0.21362
-0.38642   -0.080776    -0.10709    -0.20193    -0.04992    -0.30262    -0.21232
-0.34972   -0.076554    -0.11033    -0.19641  0.00042559     -0.1714    -0.20193
-0.30359   -0.070382    -0.10189    -0.18569    0.041027   -0.030756    -0.18374
-0.25845   -0.065186   -0.080451    -0.16523    0.037129    0.098517    -0.15938
-0.22044   -0.060963   -0.054467    -0.12982   -0.010943     0.20051    -0.13047
-0.19348   -0.058365   -0.030106   -0.080776   -0.075579     0.26774    -0.10221
-0.17302   -0.056416  -0.0083442   -0.024585     -0.1282     0.30737   -0.073955
-0.14184   -0.050894    0.010495    0.026085    -0.14216     0.32328   -0.045372
-0.085648   -0.036927    0.023487    0.061814    -0.11326     0.31809   -0.017439
-0.0080194   -0.012242    0.029333    0.080653   -0.060963      0.2908   0.0056225
0.073182     0.01894    0.029009    0.084876    -0.01484     0.23331    0.019914
0.13782    0.055318    0.025761    0.082602  -0.0034721     0.14821    0.024786
0.17615    0.092021    0.024137    0.080328   -0.046022    0.042326    0.019589
0.18751     0.12645    0.028034    0.076755    -0.14801     -0.0824   0.0095202
0.18037     0.15211    0.036154    0.072208    -0.30392    -0.21395  -0.0044465
0.1638     0.15991    0.045899    0.062789    -0.49393    -0.32893   -0.015165
0.14821     0.14886    0.056942     0.05207    -0.68297    -0.39909    -0.01549
0.14042     0.12223    0.067336    0.044924      -0.834     -0.4137  -0.0073698
0.13944    0.087799    0.073182     0.04395    -0.91521    -0.37635   0.0033489
0.14139    0.050446    0.070909    0.050121    -0.91423    -0.30392   0.0088706
0.14074    0.012119    0.056617    0.053694    -0.83238    -0.21557   0.0075714
0.12548   -0.022961    0.032906    0.048172    -0.68037    -0.13307   0.0065969
0.085525    -0.04862   0.0056225    0.029983    -0.48679   -0.072656    0.012119
0.019264   -0.061288   -0.017439   0.0026992    -0.27436    -0.04992     0.02706
-0.061613   -0.055116   -0.025884   -0.020687    -0.04115   -0.061613    0.048172
-0.13502   -0.030756   -0.015165   -0.027833     0.24858   -0.087922    0.069934
-0.17984   0.0052977   0.0049729   -0.013866     0.60132    -0.10254    0.088124
-0.19186    0.037778    0.021863    0.012119      0.9297   -0.085973    0.099817
-0.1714    0.056292    0.032906    0.038753      1.1087   -0.038876     0.10371
-0.12203    0.059865    0.031607    0.055318      1.0661    0.022837     0.10306
-0.054792    0.059865    0.021863    0.061489      0.8446    0.088448    0.098193
0.017316    0.066037    0.012768    0.063438     0.55292     0.15244    0.097218
0.082927    0.079354    0.014068    0.064413     0.28691     0.21675     0.10566
0.13749    0.095594    0.028034    0.064088    0.080653     0.27489      0.1206
0.18167     0.10631    0.046873    0.067011   -0.092794     0.31516      0.1323
0.21675     0.10404    0.058891    0.073832    -0.26332     0.32783     0.12937
0.24143    0.085525    0.054019    0.081952    -0.42767      0.3051     0.10631
0.25443    0.053694    0.031932     0.08585    -0.54655      0.2567    0.067336
0.25118    0.016666   0.0023744    0.081952    -0.57448     0.20213    0.022188
0.23039   -0.017439   -0.023285    0.069934    -0.50238     0.15893   -0.019712
0.19921   -0.042124   -0.038551     0.05272    -0.35686     0.14237    -0.04927
0.17225   -0.054792   -0.043423    0.038428    -0.17367     0.15763   -0.059339
0.16218   -0.052843   -0.043423    0.030633    0.019264     0.20083   -0.051868
0.1638   -0.036602   -0.040175    0.032906     0.18914     0.25897   -0.033679
0.16738   -0.010943   -0.034654    0.042975     0.26287     0.30737   -0.015165
0.16121    0.015042   -0.024585    0.053369     0.13295     0.31614   0.0017248
0.14107     0.03583   -0.012567    0.053694    -0.22986     0.27359    0.018615
0.11118    0.046548  -0.0034721    0.036154    -0.70441     0.18979    0.039402
0.078704    0.049147  -0.0011985   0.0059473     -1.0981    0.088773    0.067661
0.049472    0.046223  -0.0063954   -0.023935     -1.2615   -0.011267    0.098517
0.023812    0.040052    -0.01484   -0.043748     -1.1604   -0.095068     0.12353
0.003024    0.032582   -0.021337   -0.056091    -0.85901    -0.15223     0.13392
-0.010293    0.025111   -0.023935   -0.064536    -0.47379     -0.1727     0.12353
-0.020362    0.016341   -0.022636   -0.072006    -0.10579    -0.15418    0.094295
-0.028157   0.0049729   -0.019712   -0.078503     0.17322    -0.10514    0.053369
-0.03303  -0.0099683   -0.017114   -0.082076     0.32491   -0.043099    0.011469
-0.035303   -0.028157    -0.01484   -0.078503     0.34212    0.015692   -0.025884
-0.030106   -0.047971   -0.012242   -0.061613      0.2515    0.060515   -0.052193
-0.012892   -0.067134   -0.010943   -0.033354    0.097543     0.08585   -0.068109
0.009845   -0.085973   -0.010293  -0.0047713   -0.076554    0.089098   -0.077203
0.025436    -0.10709  -0.0093186     0.01829    -0.24708    0.069285   -0.081426
0.028359     -0.1269  -0.0054209    0.037129    -0.39487    0.030308   -0.082725
0.015692    -0.13632 -0.00054884    0.054668    -0.51602   -0.022311   -0.084024
-0.0057458    -0.12463   0.0049729    0.070584    -0.59852   -0.080776   -0.088247
-0.023285   -0.089871    0.012119    0.086175    -0.62028    -0.13924   -0.094093
-0.030431   -0.046347     0.01764     0.10371     -0.5433    -0.19186    -0.10156
-0.021661   -0.014191     0.01894     0.12613    -0.33445    -0.22174   -0.098641
-0.0015233  -0.0047713    0.015367     0.14919   -0.015815    -0.20843   -0.072981
0.025111   -0.015815    0.012768     0.16575     0.31614    -0.15126   -0.020362
0.052395   -0.030431    0.015042      0.1729     0.53798    -0.06681    0.048822
0.064413   -0.027508    0.027709     0.16835     0.58768    0.021538     0.11768
0.048822   0.0075714    0.050121     0.15373     0.48439     0.10339     0.17225
0.0026992    0.064413     0.07708       0.131     0.27359     0.17874      0.2096
-0.060313     0.11768    0.099817     0.10274   -0.026858     0.24241     0.22552
-0.11683     0.14302     0.10859    0.067986    -0.39292     0.27911      0.2174
-0.14931     0.13684    0.095919    0.028359    -0.73007     0.27749     0.18816
-0.15321     0.10859    0.064088   -0.015165    -0.89377     0.23039     0.14399
-0.13404    0.071234    0.023162   -0.061288    -0.79243     0.13555    0.086824
-0.10579    0.036804   -0.016464    -0.11163    -0.44424  -0.0034721     0.01894
-0.082076   0.0065969   -0.047971     -0.1636    0.039078     -0.1675   -0.050569
-0.073631   -0.021661   -0.069408     -0.2094     0.49901    -0.32731    -0.11163
-0.084349   -0.051544   -0.082725    -0.23896     0.81602     -0.4569    -0.15483
-0.10968   -0.078827   -0.085324    -0.24578     0.95406    -0.53388    -0.18017
-0.14119   -0.098316   -0.080127    -0.22791     0.94367    -0.54655    -0.19316
-0.17075    -0.10806   -0.071357    -0.19186     0.86311    -0.49718    -0.19901
-0.19154    -0.10774   -0.063886    -0.15029     0.82154    -0.40201    -0.19803
-0.19771   -0.096367   -0.060963    -0.11228     0.91541    -0.27988    -0.18959
-0.18309   -0.076554   -0.062587   -0.081751      1.1805    -0.14964    -0.17107
-0.14704   -0.045372   -0.064211   -0.062587      1.5537   -0.030756    -0.14249
-0.091495  -0.0037969   -0.060313   -0.052518      1.8876    0.062139    -0.10774
-0.027833     0.04395   -0.046022   -0.041475      2.0211     0.12645   -0.069408
0.029983    0.081952   -0.027508   -0.021661      1.8473     0.15731   -0.035628
0.076755    0.098517   -0.010618   0.0033489      1.3734     0.15276   -0.015165
0.10859    0.096569    0.003024    0.029983     0.72475     0.11768  -0.0080194
0.12548      0.0852    0.015367    0.048172    0.074806    0.071234  -0.0083442
0.13555    0.074157    0.025436    0.059216    -0.44781    0.033881  -0.0073698
0.14496    0.066362    0.031282    0.064737    -0.82653    0.015367  0.00010078
0.15211    0.056292     0.03583    0.067011      -1.099     0.01894    0.011469
0.15244     0.03453    0.039078    0.069285     -1.2787    0.042975    0.017965
0.14139  -0.0028225    0.040377     0.06961     -1.3508    0.082927    0.013418
0.12223    -0.04992    0.036154    0.065062     -1.3124     0.12515  -0.0015233
0.095919   -0.097017    0.026085    0.054344     -1.1799     0.15406   -0.019388
0.062464    -0.13177    0.012768    0.041027    -0.97367     0.15828   -0.029132
0.022188    -0.14931  -0.0024977    0.033231    -0.71318     0.13684   -0.027833
-0.021986    -0.14736   -0.012567    0.039402    -0.42994    0.095594   -0.020037
-0.062912     -0.1295    -0.01549    0.057917    -0.16035    0.049147   -0.011267
-0.093769    -0.10384   -0.012567     0.08585     0.06019   0.0095202  -0.0031473
-0.10514   -0.077528  -0.0015233     0.11118     0.21285   -0.019063   0.0052977
-0.087922   -0.054792    0.013743     0.12937     0.30574   -0.042124    0.016666
-0.041475   -0.034004    0.027709     0.13912     0.35901   -0.068109    0.035505
0.018615   -0.015815    0.034206     0.14139      0.3772    -0.10059    0.065387
0.073832  -0.0057458    0.032582     0.14074     0.34732     -0.1308     0.10469
0.10859  -0.0063954    0.024786      0.1362      0.2554    -0.15743     0.14237
0.12093   -0.012567    0.018615      0.1297    0.071234    -0.18439     0.16965
0.11508   -0.019388    0.016991     0.11995    -0.24318     -0.2146     0.18167
0.10079   -0.020362    0.019589     0.10664     -0.6742    -0.24286     0.17972
0.076755   -0.010293    0.023812    0.088124     -1.1504    -0.26072      0.1742
0.034855    0.013093     0.02706    0.066362     -1.5385    -0.25585     0.17127
-0.023285    0.048497    0.030308    0.044599     -1.6908    -0.21622     0.17322
-0.086948    0.091047    0.037129    0.027385     -1.5382    -0.14736     0.17712
-0.13469     0.13295    0.045899    0.014717     -1.1354   -0.071032      0.1716
-0.15678      0.1625    0.050121   0.0065969    -0.62613  -0.0099683     0.15049
-0.15678     0.17322    0.045899   0.0033489    -0.15256    0.023487     0.11768
-0.14509     0.16608    0.032906   0.0026992     0.22682    0.031607    0.074157
-0.12917     0.14464    0.015042   0.0059473     0.52402    0.023487    0.025111
-0.10676     0.12028 -0.00022403    0.017965     0.78776    0.019264   -0.017764
-0.07428    0.099492  -0.0037969    0.042326      1.0284    0.056617   -0.039526
-0.034654    0.081627   0.0072465    0.075456      1.1808     0.17062   -0.034654
0.0017248    0.062789    0.026735     0.11086      1.1434     0.35869   -0.011267
0.02706    0.038428    0.043625     0.14204     0.86669     0.57533    0.014717
0.037778   0.0075714     0.05142     0.16218      0.4256       0.753    0.031282
0.037129   -0.028482    0.048822     0.16803    0.019589      0.8472     0.03518
0.036479   -0.063237     0.03453     0.15633     -0.1623     0.84622     0.03583
0.042001   -0.089546    0.010495     0.12255    -0.10124      0.7673    0.033231
0.053369    -0.10189   -0.019063    0.066686    0.055318      0.6364    0.029333
0.064737   -0.093119   -0.051219  -0.0037969    0.099492     0.46977    0.021863
0.066362   -0.060638   -0.081101   -0.073631    -0.10254     0.28496    0.012768
0.057917   -0.010293   -0.097017    -0.12722    -0.53031    0.098842   0.0036737
0.043625    0.042001   -0.097017    -0.15581     -1.0497   -0.084674  -0.0018481
0.031282    0.078379   -0.078827     -0.1597     -1.4774    -0.27761  -0.0050961
0.029333    0.089098    -0.04862    -0.14834     -1.6642    -0.49166  -0.0054209
0.037454     0.07773   -0.017114    -0.13242     -1.5716    -0.72779  -0.0083442
0.050121    0.053694   0.0062721    -0.11845     -1.2715     -0.9727    -0.02426
0.063438    0.029658    0.017965    -0.10774    -0.88078     -1.1981   -0.055441
0.072208    0.011469    0.011794    -0.10319    -0.49393     -1.3706   -0.092469
0.074806    0.003024  -0.0054209    -0.11033     -0.1623     -1.4658    -0.12625
0.066686  -0.0047713   -0.025884    -0.12722    0.073507     -1.4576    -0.14899
0.050121   -0.014516   -0.047646    -0.14931     0.18979     -1.3349     -0.1597
0.033881   -0.027508   -0.071357    -0.17237     0.20181     -1.1143    -0.15938
0.026085   -0.040175   -0.096042    -0.18569     0.16348    -0.83465    -0.15353
0.022188   -0.052193    -0.11521    -0.18439      0.1349     -0.5472    -0.14769
0.010495   -0.065835     -0.1256    -0.16523     0.18134    -0.29742    -0.14314
-0.022636   -0.080776    -0.12495    -0.13502     0.35154    -0.11001    -0.13827
-0.075904   -0.094418    -0.11163    -0.10579     0.62958    0.021538    -0.13112
-0.14281   -0.098641   -0.089221   -0.084349      0.9219     0.12418    -0.12008
-0.20908   -0.092469   -0.059989    -0.07428      1.1314     0.22617    -0.10611
-0.26104   -0.077853    -0.03303   -0.073955       1.223       0.347   -0.093444
-0.28703   -0.054792    -0.01484   -0.078827      1.2279     0.49543    -0.08305
-0.28021   -0.022961  -0.0060706   -0.084349      1.1934     0.66791   -0.075904
-0.24415     0.01017  -0.0037969   -0.087597      1.1145     0.83745   -0.071032
-0.19348    0.030633  -0.0073698   -0.088896     0.97192     0.95926   -0.068109
-0.14444    0.029333    -0.01549   -0.085973     0.78419      1.0041   -0.065835
-0.10741    0.011144   -0.025884   -0.074605     0.59807     0.96998   -0.063886
-0.081426   -0.013866   -0.030756   -0.055116       0.461     0.87643   -0.064536
-0.054792    -0.03303   -0.024585   -0.025884      0.3733     0.75593   -0.061288
-0.021661   -0.035628   -0.007045    0.010495     0.29633     0.64419    -0.04862
0.017965    -0.02361    0.014392    0.045899     0.18459     0.56299   -0.027833
0.059541  -0.0089938    0.029009    0.066037    0.014068     0.50323  -0.0099683
0.095919  -0.0034721     0.02706    0.066362    -0.21362     0.43274  -0.0021729
0.12288   -0.008669   0.0052977    0.049147    -0.46762     0.31939  -0.0024977
0.14204   -0.019388   -0.022636    0.022837    -0.69271     0.15081 -0.00087364
0.15796   -0.019388     -0.0405   0.0023744    -0.82913    -0.05804    0.008221
0.17582   0.0033489     -0.0405  -0.0044465    -0.83758    -0.28313     0.01829
0.18946    0.048497   -0.027508   0.0020496    -0.71675    -0.50433    0.022512
0.18589    0.099167   -0.012892    0.013093    -0.50465    -0.70083    0.015367
0.15276     0.13132  -0.0024977    0.022837    -0.24123    -0.84862   0.0036737
0.0852     0.12515   0.0026992    0.029658    0.064737    -0.92917  -0.0067202
-0.0080194    0.078704   0.0052977    0.030633     0.41845    -0.94314   -0.014516
-0.11001   0.0056225   0.0043233    0.022512     0.79588    -0.89864   -0.019063
-0.19836    -0.06551   0.0010752    0.011794      1.1265    -0.80152   -0.020037
-0.2591    -0.11326  -0.0041217   0.0059473      1.3289    -0.65179   -0.018738
-0.28346     -0.1282   -0.010943    0.011794      1.3604    -0.45593   -0.011917
-0.27209    -0.11196    -0.01484     0.02641      1.2363    -0.23376   0.0033489
-0.23636   -0.079477   -0.012892    0.046873      1.0132   -0.015165    0.025111
-0.18991   -0.047321  -0.0041217     0.06831     0.75495     0.16933    0.044275
-0.14216    -0.02361   0.0078962    0.083901      0.5133     0.30152    0.053694
-0.10026  -0.0073698    0.022512    0.090722     0.32036     0.37558     0.05207
-0.067784   0.0052977    0.041351    0.091372     0.17907     0.39994    0.039078
-0.049595    0.015367    0.062139    0.090397    0.080653     0.38922    0.017965
-0.044723    0.026085    0.080328    0.091372    0.011469     0.36259  -0.0054209
-0.042124    0.038428    0.097543    0.095594   -0.038876     0.33303   -0.025559
-0.028482    0.046223     0.11248     0.10339    -0.08305      0.3051   -0.042124
-0.00022403     0.05142     0.11931     0.10891    -0.12917     0.27424   -0.059989
0.036804    0.054668     0.11281     0.10534    -0.18601     0.24371   -0.081426
0.075131    0.055318    0.084876    0.088124    -0.25422     0.21545    -0.10124
0.11281    0.049147    0.038428    0.063113    -0.32406     0.19531    -0.10611
0.14756    0.036479   -0.016789    0.040052    -0.38285     0.18719     -0.0837
0.17387    0.017316    -0.06551     0.02706    -0.41858     0.19434   -0.032705
0.18687 -0.00087364   -0.093769    0.030308     -0.4228     0.21675    0.034206
0.18914   -0.011917   -0.092145    0.045574    -0.39876     0.25053    0.098193
0.18557  -0.0083442   -0.064536    0.064737    -0.35232     0.28268     0.14269
0.17874   0.0088706   -0.022636    0.083251     -0.2919     0.29957     0.15471
0.16933    0.033881     0.01894    0.097218    -0.22337     0.29795     0.14009
0.15666    0.056942    0.055643     0.10436    -0.14574     0.28918     0.11281
0.13684    0.073832    0.081952     0.10826   -0.059339     0.29015    0.096893
0.11411    0.086175    0.097868     0.11476    0.026735     0.30834     0.10599
0.091047    0.096893     0.10306     0.12483    0.097868     0.33758     0.13717
0.070584     0.10566    0.096569     0.13847     0.12483     0.37103     0.17712
0.056942     0.10826    0.079679     0.15016    0.067336     0.39896     0.21058
0.05142     0.10177    0.055643     0.15146   -0.087272     0.40806     0.22519
0.053044    0.080978    0.033231     0.14107    -0.30424     0.39117     0.21577
0.059865    0.050121     0.01764     0.12028    -0.53486     0.35057     0.19011
0.066686    0.014392   0.0062721    0.092346    -0.75638      0.2921     0.15991
0.070584   -0.014516   0.0033489    0.061814     -0.9688     0.22324     0.12743
0.066362   -0.024585    0.010819    0.042326     -1.1708     0.15146    0.093321
0.05272  -0.0093186    0.028684    0.034855     -1.3436    0.076431    0.058241
0.035505     0.02641    0.048172    0.040377     -1.4667  -0.0073698    0.020888
0.020564    0.070584    0.062464     0.05272     -1.5317    -0.11001    -0.01614
0.014717     0.10729    0.066686    0.067661     -1.5392    -0.23441   -0.046996
0.01764     0.12548     0.06019    0.074157     -1.4882    -0.36466   -0.070382
0.026085     0.12288    0.047523    0.065062     -1.3703    -0.47444   -0.085973
0.03518     0.10371    0.036154    0.045899     -1.1777    -0.53843   -0.094093
0.038428     0.07708    0.028359    0.026085    -0.91423    -0.54817   -0.094093
0.03453    0.049796    0.023812    0.009845    -0.58683    -0.51732   -0.084999
0.030633    0.022837    0.020564   0.0020496    -0.20323    -0.46372   -0.072656
0.028034  -0.0024977    0.012768  -0.0015233     0.20408    -0.40104   -0.060963
0.031282   -0.027183  0.00075039 -0.00054884     0.57826    -0.32731   -0.046347
0.041027   -0.048296   -0.011267   0.0026992     0.85564    -0.23798   -0.022636
0.056942   -0.057715    -0.01614   0.0033489     0.99856    -0.13534   0.0095202
0.070909   -0.047971   -0.015165  -0.0024977      1.0151   -0.030431    0.039078
0.077405   -0.020687   -0.014191   -0.019063     0.94756    0.056292    0.057592
0.078704    0.015367   -0.016789   -0.044723     0.83031     0.11411    0.059865
0.079029    0.050121   -0.021661   -0.070058     0.69649      0.1336    0.049472
0.081952    0.075781   -0.025884   -0.088247     0.56592     0.12158    0.040702
0.081627    0.092021   -0.026858   -0.093444     0.45873     0.09462    0.039078
0.072858    0.099167   -0.025559   -0.087272     0.38792    0.067661      0.0433
0.054344     0.09462   -0.023935   -0.081426     0.35187    0.049147    0.048497
0.027709    0.080003   -0.019063   -0.088247     0.33205    0.035505    0.045249
-0.0037969    0.056292   -0.014191    -0.11098     0.29957    0.025111    0.028684
-0.034978    0.028034    -0.01484    -0.14119     0.23591    0.009845  -0.0018481
-0.062262  -0.0021729   -0.018738    -0.16555     0.14659    -0.01614   -0.035953
-0.086948   -0.029457   -0.021337    -0.17497     0.06084   -0.052518   -0.058365
-0.11261   -0.053492   -0.020362    -0.16165    0.020888   -0.090196   -0.059989
-0.13697    -0.07428   -0.018413     -0.1256    0.068635    -0.12657   -0.041799
-0.15581   -0.093119   -0.019712   -0.076879     0.21252    -0.17107   -0.012892
-0.1623    -0.10514   -0.027183   -0.035953     0.40481    -0.23311     0.01764
-0.15353    -0.10871   -0.041475   -0.017764     0.56527    -0.31139    0.034855
-0.12722   -0.098965   -0.056741   -0.019063     0.63348    -0.38804    0.031607
-0.088572   -0.070058    -0.06616   -0.023935     0.59515    -0.43741   0.0078962
-0.039526   -0.024585   -0.069083   -0.024585     0.49056    -0.43871   -0.028157
0.015692    0.025761    -0.06616   -0.015815     0.37818    -0.38057    -0.06551
0.065712    0.065062   -0.058365  0.00075039     0.30607    -0.26754   -0.092469
0.10306    0.081627   -0.048945    0.019914     0.30185    -0.11715    -0.10156
0.12255    0.072858   -0.039526    0.040052     0.35836    0.040702   -0.096692
0.12418    0.043625   -0.035303    0.055968      0.4295     0.16868   -0.084024
0.11378   0.0046481   -0.035628    0.058566     0.43339     0.23818   -0.064536
0.10696   -0.036278   -0.036927    0.044275     0.28106     0.24403   -0.038227
0.11313   -0.070058   -0.038227    0.015042   -0.082725     0.20895  -0.0047713
0.12483   -0.091495   -0.038227    -0.02426    -0.62548     0.16153    0.021863
0.12645    -0.10156     -0.0405   -0.064861     -1.2127     0.12125    0.026735
0.10826    -0.10189   -0.046022   -0.098316     -1.6502    0.092021   0.0062721
0.067986   -0.094093   -0.056091    -0.11878     -1.7932    0.064088   -0.032055
0.0069217   -0.084999   -0.064211    -0.12592     -1.6152    0.032257   -0.073955
-0.05739   -0.082076   -0.065835     -0.1217     -1.1897   0.0059473    -0.10449
-0.10221   -0.086623   -0.059014    -0.10871    -0.64237 -0.00087364    -0.11163
-0.11683    -0.09117    -0.04862   -0.092469   -0.093769    0.016341   -0.094743
-0.10806   -0.088572   -0.042774   -0.076879     0.38078    0.042651   -0.062587
-0.097666   -0.079477   -0.042449   -0.064536     0.75918    0.057592   -0.029132
-0.099615   -0.068758   -0.046996   -0.056416      1.0395    0.050121  -0.0063954
-0.11521   -0.060638   -0.052193   -0.048945      1.2194    0.015692   0.0023744
-0.13989   -0.054792   -0.051544   -0.038551      1.2834   -0.037577  -0.0028225
-0.16718   -0.051219   -0.042124   -0.029132      1.2175    -0.10026   -0.016464
-0.19348    -0.04862   -0.027833   -0.023285      1.0271    -0.15029   -0.034329
-0.21362   -0.046671    -0.01549   -0.019063     0.73969     -0.1636    -0.04862
-0.22791   -0.046671   -0.010943    -0.01484     0.37525     -0.1308   -0.053492
-0.23668   -0.051219   -0.017764  -0.0083442    -0.05739   -0.063561   -0.043423
-0.23538   -0.060963   -0.030756  -0.0015233    -0.52414    0.020239   -0.018088
-0.21882   -0.070707   -0.039851   0.0033489    -0.98179    0.098517    0.021213
-0.18342   -0.072006   -0.039201   0.0065969     -1.3664     0.15114    0.063438
-0.13437   -0.061288   -0.025559   0.0091954     -1.5976      0.1664    0.099167
-0.085324   -0.037902  -0.0067202    0.013743     -1.6483     0.15309     0.11995
-0.050244  -0.0093186    0.012443    0.017965     -1.5827     0.12645      0.1245
-0.033679    0.013093    0.030308     0.01829      -1.481    0.090722     0.11216
-0.024585    0.023162    0.046873    0.014392     -1.3794    0.041351      0.0852
-0.013216    0.023162    0.057917   0.0059473     -1.2673    -0.02426    0.051745
0.00010078    0.016991    0.056617  -0.0099683     -1.0893   -0.096042    0.020888
0.011144   0.0085458    0.043625   -0.029782     -0.8012    -0.15841  -0.0028225
0.016016  -0.0011985    0.023812   -0.047646     -0.4124    -0.19316   -0.020362
0.013093   -0.012892   0.0046481   -0.054467   0.0085458    -0.20128   -0.030756
0.0026992   -0.023935   -0.010618   -0.048296     0.37103    -0.18796   -0.029782
-0.012242   -0.033354   -0.023285    -0.03173     0.61399    -0.16165   -0.021012
-0.030106   -0.035628   -0.033679   -0.007045     0.71857    -0.12885   -0.012242
-0.046671   -0.029782   -0.040175    0.019264      0.7189   -0.097017  -0.0093186
-0.055116    -0.01484    -0.04115    0.040702     0.67375   -0.067459   -0.011592
-0.056416   0.0065969   -0.039851    0.053694      0.6351   -0.035953   -0.011917
-0.049595    0.029333   -0.037577    0.054668     0.62665   0.0049729  -0.0034721
-0.037577    0.047198    -0.03173    0.046223     0.63672    0.062789     0.01017
-0.023285    0.059216   -0.023935    0.033231     0.63607     0.12872    0.021213
-0.0047713    0.066686   -0.013216    0.021538     0.60035     0.18557    0.024137
0.022188    0.074157   0.0033489    0.017965     0.53246      0.2161    0.017316
0.054019    0.079029     0.02641    0.026085     0.44931      0.2109   0.0052977
0.086175    0.080328    0.051745    0.043625       0.347     0.17322  -0.0021729
0.11313    0.078379    0.071883    0.066037     0.17712     0.11313  -0.0028225
0.1271    0.072533    0.082927    0.091047    -0.11066    0.036154   0.0020496
0.12807    0.062139    0.081952     0.11443    -0.48451   -0.060313   0.0056225
0.11898    0.043625    0.071234      0.1323    -0.81029    -0.17919    0.003024
0.10729    0.016016    0.054993     0.14334    -0.93145    -0.30977  -0.0067202
0.097218   -0.022311    0.037129     0.14789    -0.77651    -0.42182   -0.019388
0.089748   -0.062912    0.024461     0.14886    -0.41013    -0.48679   -0.029782
0.090722   -0.093444    0.017965     0.14821    0.020239    -0.48256    -0.03238
0.10177    -0.10221    0.014068     0.14594     0.37623    -0.41305   -0.031081
0.12743   -0.085324   0.0075714     0.14432      0.5932    -0.30522    -0.03173
0.16705   -0.050244  -0.0034721     0.13912     0.68642    -0.18796   -0.035628
0.20993   -0.010943   -0.017114      0.1284     0.71955   -0.082076   -0.044398
0.23624    0.017965   -0.026533     0.11476     0.76177   0.0043233   -0.054792
0.23104    0.033231   -0.025234     0.10242     0.84752    0.082277   -0.063561
0.18751    0.039727  -0.0089938    0.091696     0.95633       0.169   -0.061288
0.11541    0.047847    0.017316    0.081627       1.047     0.27067   -0.045372
0.031932    0.070259     0.04395    0.069285      1.0729     0.36908   -0.013866
-0.044398     0.11248    0.062789    0.053044     0.99011     0.43664    0.029009
-0.09929     0.16965    0.072533    0.038103     0.75885     0.45418    0.070584
-0.12852     0.22324    0.071558    0.029983     0.36616     0.41748    0.097868
-0.13275     0.24955    0.062789    0.036154    -0.20193     0.34505     0.10664
-0.1178     0.23396    0.053044    0.057267    -0.88955     0.27294     0.10501
-0.089546     0.18264    0.048822    0.087474     -1.5752     0.23364     0.10274
-0.048296     0.11736    0.053369     0.11638     -2.1167     0.23234     0.10631
-0.00054884    0.065062    0.064737     0.13587     -2.4181     0.24468     0.11606
0.039727    0.044275    0.076106     0.13652     -2.4197     0.23234      0.1297
0.057917    0.053044    0.080328     0.11768     -2.0598      0.1677     0.14756
0.050121    0.079029    0.075131    0.082602     -1.3238    0.053369     0.16543
0.025111     0.10501     0.06084    0.037454    -0.29255   -0.084349     0.17485
-0.0018481     0.11736    0.038428   -0.014516     0.81374    -0.20713      0.1677
-0.014191     0.11573    0.012443   -0.069733      1.6969    -0.28995     0.14496
-0.0073698     0.10274   -0.012567    -0.12105      2.1448    -0.33218     0.11378
0.016016    0.082277   -0.035628    -0.15548      2.1182    -0.35232    0.083251
0.045249    0.056292   -0.050569    -0.16425      1.7674    -0.37375    0.055968
0.069934    0.028034   -0.050569    -0.14866      1.3201    -0.40331    0.033881
0.082602   0.0039985   -0.036927    -0.11845     0.93327    -0.41923     0.01829
0.082602  -0.0073698    -0.01484    -0.08305     0.64777    -0.40071   0.0085458
0.080653  -0.0024977   0.0059473   -0.047321     0.45386    -0.33413   0.0036737
0.08585    0.011794    0.019914   -0.019063     0.34082    -0.21655   0.0059473
0.10112    0.024461    0.026085  0.00042559     0.29568   -0.060313    0.019264
0.1206    0.028684     0.02641    0.015692     0.28691     0.11086    0.036479
0.13457    0.020564    0.024786    0.032582     0.27944     0.26417    0.047523
0.13457   0.0039985    0.021863    0.048172      0.2567     0.36843    0.045899
0.11736   -0.010293    0.018615    0.061814     0.22974     0.40091    0.033231
0.087799   -0.015815    0.015042    0.067336     0.22227     0.35252    0.013418
0.051096    -0.01484   0.0095202     0.06019     0.24468     0.22974  -0.0080194
0.013743   -0.010943   0.0033489    0.042326     0.27846    0.061489   -0.029457
-0.025234   -0.008669 -0.00054884    0.021538     0.26937    -0.11748   -0.046671
-0.065835  -0.0076946  -0.0024977   0.0056225      0.1781    -0.27274   -0.055766
-0.10514   -0.008669  -0.0041217 -0.00087364    0.032582     -0.3822   -0.059664
-0.13664   -0.015165  -0.0050961  -0.0099683   -0.084024    -0.44683   -0.061613
-0.15646   -0.027833  -0.0050961   -0.030431   -0.092469    -0.47379   -0.064861
-0.1623   -0.047646  -0.0093186   -0.063561    0.021538    -0.46178   -0.072981
-0.15646   -0.073306   -0.016464   -0.099615     0.20051    -0.40916    -0.08305
-0.13989   -0.098965   -0.024585    -0.12885     0.36486    -0.32178    -0.09182
-0.11715    -0.11651   -0.032705    -0.14054     0.44996    -0.21265   -0.096692
-0.095068    -0.12105    -0.04115    -0.12917     0.44184   -0.097991   -0.099615
-0.078503    -0.11163   -0.050244    -0.10091      0.3759   0.0059473    -0.10676
-0.070707   -0.097341   -0.057715   -0.067459     0.29795    0.088124    -0.12138
-0.069408   -0.090845   -0.065835   -0.040175     0.23494     0.14302    -0.14184
-0.069733   -0.093769   -0.075904   -0.029132     0.19271     0.16998    -0.16328
-0.065186    -0.10156   -0.084674   -0.030106      0.1664      0.1781    -0.17627
-0.062587    -0.10903   -0.087922   -0.032055     0.14756     0.18037    -0.17367
-0.071682    -0.11098     -0.0824   -0.026209     0.10956     0.18394    -0.15191
-0.095717    -0.10709   -0.068758   -0.011592    0.021863     0.18816    -0.11261
-0.12755    -0.09994   -0.046347     0.01017    -0.13697     0.18654   -0.062262
-0.16328   -0.092794   -0.017764    0.031607    -0.36921     0.17387  -0.0067202
-0.19706   -0.088572   0.0059473    0.045249    -0.62613     0.15309     0.04395
-0.22402   -0.092794    0.016991    0.044924    -0.82036      0.1297    0.075781
-0.24091    -0.10709   0.0078962     0.02641     -0.8876    0.097543    0.076106
-0.2461     -0.1256   -0.021337  -0.0076946     -0.8444    0.046223    0.037129
-0.23214    -0.13404   -0.062912   -0.050569    -0.74371   -0.028157   -0.030756
-0.18536    -0.11521    -0.10449   -0.086948    -0.64042    -0.11813    -0.10091
-0.098641   -0.054792    -0.12527    -0.10156    -0.56734    -0.20745    -0.13924
0.015692    0.039078    -0.11715   -0.088247    -0.52284    -0.27241    -0.12755
0.13035     0.14204   -0.084674   -0.053168    -0.46632    -0.28703   -0.070058
0.21772     0.22162   -0.041799   -0.013216    -0.34809    -0.25033    0.010819
0.26612     0.25345  -0.0044465    0.018615     -0.1662    -0.18179    0.090072
0.27456     0.23559    0.016991    0.033231    0.025111    -0.11163     0.14756
0.25378     0.17615    0.018615    0.033556     0.14594   -0.060313     0.17517
0.21447    0.095919   0.0069217    0.026085     0.14561    -0.02361     0.18069
0.1664     0.01829  -0.0096434    0.021863    0.025761    0.011794     0.17582
0.11833   -0.029782   -0.021012    0.028359    -0.16685    0.058566     0.17062
0.077405   -0.034329   -0.022961      0.0433    -0.36791     0.11606     0.16575
0.046548  -0.0031473   -0.011592    0.059216    -0.51732     0.17647     0.16121
0.025111    0.040702   0.0088706    0.071234    -0.56766     0.22422     0.15309
0.012443    0.074157    0.032582    0.075131    -0.51212      0.2528      0.1336
0.0085458    0.088773    0.050446    0.064413     -0.3822     0.26287    0.095594
0.0095202     0.08585    0.057917    0.034206    -0.22207     0.25475    0.038428
0.0049729    0.072858    0.054019   -0.011592   -0.068758     0.23299   -0.030106
-0.0093186    0.055968    0.039727   -0.060313    0.053694     0.20538   -0.094093
-0.028807    0.036479    0.016991   -0.097017     0.13002     0.18037    -0.14184
-0.038551    0.016016  -0.0073698    -0.11098     0.15861     0.16738    -0.16523
-0.021986  0.00010078   -0.026533    -0.09929     0.15016     0.17777    -0.16003
0.022837  -0.0080194   -0.038551    -0.06681      0.1206     0.20993    -0.13015
0.087799  -0.0083442   -0.042124   -0.028157    0.088124     0.24728   -0.087597
0.15438  -0.0063954   -0.036278    0.008221    0.065387     0.27651   -0.040825
0.2122  -0.0076946   -0.018738    0.042975    0.054019      0.2895  -0.0028225
0.25053   -0.010618   0.0095202    0.072533    0.045574     0.28268    0.021213
0.27261  -0.0083442    0.039078    0.096893    0.029333     0.25378    0.023162
0.28171   0.0023744     0.06084     0.11573  -0.0063954      0.2044   0.0065969
0.28333    0.020239     0.06961     0.12872   -0.062587     0.14172   -0.020037
0.28268    0.040052    0.072858     0.13555     -0.1321    0.075456   -0.042449
0.27749    0.057592    0.074157     0.13847    -0.20615    0.013418   -0.050569
0.26482    0.069934    0.079679     0.13749    -0.28378   -0.046671   -0.045047
0.23786    0.072858    0.088773     0.12807    -0.36693    -0.11163   -0.031406
0.19791    0.067986     0.10144     0.10956    -0.45138    -0.18439   -0.021661
