0.021863  0.00075039  -0.0021729    0.011144    0.003024   0.0078962   -0.030756
0.018615  -0.0015233   0.0017248   0.0088706  -0.0021729    0.013418   -0.025559
0.017965 -0.00087364   0.0046481   0.0049729   -0.010943    0.020888   -0.010618
0.018615   0.0023744   0.0065969    0.003024   -0.017439    0.029658    0.011794
0.017965   0.0059473   0.0085458   0.0046481   -0.020037     0.03518    0.031607
0.010495   0.0095202    0.011144   0.0095202   -0.016789    0.034855    0.038753
-0.0015233    0.014068    0.015692    0.012768   -0.010943    0.029983    0.032582
-0.013866    0.017316    0.025111    0.014717  -0.0054209    0.023487    0.015692
-0.022636    0.017316    0.036804    0.012443  -0.0021729    0.021538 -0.00054884
-0.026858    0.013093    0.046223   0.0085458  -0.0034721    0.022512  -0.0093186
-0.027183   0.0091954    0.048497   0.0062721   -0.008669    0.020888  -0.0083442
-0.027183    0.010819    0.045574   0.0069217   -0.018088    0.014392 -0.00054884
-0.028482    0.016666    0.038428   0.0088706   -0.025884   0.0078962   0.0088706
-0.028807    0.021538    0.028034   0.0085458   -0.026209   0.0046481    0.018615
-0.024585    0.022512     0.01764   0.0056225   -0.018413   0.0033489     0.02641
-0.017114    0.020888    0.009845   0.0026992  -0.0044465   0.0059473    0.031932
-0.0083442    0.021213   0.0059473 -0.00022403    0.009845    0.010819    0.036804
-0.0024977    0.021213   0.0049729  -0.0015233    0.015367    0.016016    0.041027
0.00042559    0.021213   0.0091954   0.0020496   0.0072465     0.01764    0.044924
0.00075039    0.019914    0.015692   0.0078962   -0.010618    0.015042     0.04395
-0.00022403    0.017965     0.01894    0.015367    -0.03238    0.012119    0.038103
-0.0028225    0.013093    0.017965    0.020239   -0.051544    0.012119    0.030957
-0.0044465   0.0059473    0.014068    0.025111    -0.06551    0.013093    0.027385
-0.0044465  -0.0041217   0.0036737    0.028034   -0.071357    0.016341    0.029009
-0.0063954    -0.01484  -0.0073698    0.027385   -0.068434    0.023162    0.031932
-0.011917    -0.02426   -0.011917    0.021538   -0.059339    0.032582    0.033881
-0.019063    -0.03173   -0.011267    0.013093    -0.04927    0.038428    0.030633
-0.028482   -0.039526   -0.010293    0.003024   -0.043099    0.038428    0.021213
-0.03238   -0.046671  -0.0099683  -0.0093186    -0.04992    0.034855    0.009845
-0.028157   -0.050244   -0.011917   -0.019712   -0.070058    0.029333   0.0020496
-0.015815   -0.041799   -0.018088   -0.025559   -0.093769    0.022512 -0.00022403
-0.00022403   -0.022636   -0.025559   -0.027833    -0.10644    0.015042   0.0017248
0.016016  0.00075039   -0.032705   -0.022311    -0.10189     0.01017   0.0049729
0.029658    0.020564   -0.035953   -0.011267   -0.084349   0.0059473   0.0085458
0.036479    0.030633    -0.03173  -0.0018481   -0.062912  0.00010078    0.010819
0.037129    0.029983    -0.02361   0.0023744   -0.046347  -0.0089938    0.008221
0.031607    0.022512    -0.01484    0.003024   -0.039526   -0.018413 -0.00022403
0.023162    0.013418  -0.0080194   0.0043233   -0.039526   -0.025884   -0.010943
0.015042   0.0056225  0.00010078   0.0095202   -0.041799   -0.027833   -0.018738
0.011469  0.00010078   0.0059473    0.016341   -0.043099   -0.022961   -0.020362
0.012443  -0.0037969   0.0062721    0.024786   -0.045047   -0.014516   -0.016464
0.016016  -0.0037969   0.0010752    0.029009   -0.047971  -0.0060706   -0.011592
0.019264  0.00042559  -0.0076946    0.028034   -0.049595   0.0036737  -0.0093186
0.021863   0.0052977   -0.019063    0.022512    -0.04115    0.015367   -0.013866
0.023162   0.0085458   -0.027833    0.018615   -0.020687    0.027385   -0.025234
0.019589     0.01017   -0.033354    0.020564   0.0085458     0.03518   -0.035953
0.010819   0.0043233   -0.033354    0.027709      0.0433    0.032906   -0.041799
-0.0031473  -0.0060706   -0.029457    0.036154    0.072858    0.021863     -0.0405
-0.017114   -0.016464   -0.025559    0.042975    0.092346   0.0088706   -0.034329
-0.020037   -0.020362   -0.025559    0.047523     0.10566 -0.00054884   -0.026209
-0.012567   -0.015165    -0.03238    0.048172     0.11346  -0.0067202   -0.020362
-0.0024977  -0.0044465   -0.044723    0.048822     0.11541   -0.013866   -0.019063
0.0036737   0.0072465   -0.057715     0.05207     0.10534   -0.026209   -0.021337
0.0043233    0.014717   -0.063561    0.058241    0.082927   -0.039526   -0.028807
0.0026992    0.018615   -0.058365    0.064737    0.054668   -0.047646   -0.037577
0.00042559    0.020564   -0.047321    0.066686    0.024461   -0.047321   -0.044073
0.00042559    0.022188   -0.034329    0.059865  -0.0054209   -0.038876   -0.045372
0.0056225    0.023162   -0.022311    0.042975   -0.031406   -0.028157   -0.043099
0.010819    0.022188   -0.014516    0.018615    -0.04992   -0.020362     -0.0405
0.013093    0.020239   -0.013216  -0.0089938   -0.060963   -0.017764   -0.035303
0.009845    0.016341   -0.017439   -0.030756   -0.062912   -0.021337   -0.025884
0.0020496    0.014717   -0.020362   -0.037577   -0.056741   -0.030106   -0.013866
-0.007045    0.016341   -0.019388   -0.031081   -0.046996   -0.039851  -0.0031473
-0.015165    0.019914   -0.014516   -0.017439   -0.038227   -0.045697   0.0049729
-0.018413    0.024461  -0.0076946   -0.007045   -0.034004   -0.047646   0.0065969
-0.014191    0.029009  -0.0028225  -0.0050961   -0.034004   -0.043423   0.0059473
-0.0034721    0.030633  -0.0015233   -0.011592   -0.038227   -0.034978  0.00042559
0.0056225    0.029333  -0.0044465   -0.022961    -0.04115   -0.029132  -0.0080194
0.009845    0.025436  -0.0096434   -0.033679   -0.039526   -0.030106   -0.014191
0.0075714    0.023812   -0.011917   -0.035628   -0.033679   -0.034004   -0.011592
0.0026992    0.024786   -0.011592   -0.028157   -0.026209   -0.038227 -0.00054884
0.00010078    0.025761   -0.011267   -0.018413   -0.019063     -0.0405    0.010819
0.0020496    0.025111   -0.011592  -0.0080194    -0.01549   -0.042124    0.014717
0.0075714    0.021538   -0.012892  0.00010078   -0.017114   -0.044723   0.0091954
0.011144    0.015692    -0.01549   0.0026992   -0.020362    -0.04992  0.00075039
0.010819    0.008221   -0.020687 -0.00087364   -0.025559   -0.054792  -0.0037969
0.009845  -0.0031473   -0.027183  -0.0093186    -0.03303   -0.058689 -0.00022403
0.0069217   -0.015165   -0.029457   -0.018413   -0.038227   -0.062587   0.0069217
0.0017248    -0.02426   -0.025234   -0.027183   -0.038551   -0.068109    0.015367
-0.0031473   -0.026533    -0.01549   -0.034654   -0.034654   -0.070707    0.024137
-0.0067202   -0.019063  -0.0031473   -0.038551   -0.027833   -0.068434    0.028684
-0.008669  -0.0037969    0.009845   -0.038227    -0.02361   -0.060313    0.027385
-0.010618    0.011144    0.015692   -0.035303   -0.025234   -0.050244    0.022188
-0.015165    0.016991    0.011469   -0.030756   -0.030756   -0.043748    0.019264
-0.02426    0.015042   0.0039985    -0.02426   -0.034978   -0.043748    0.022837
-0.037252    0.011144  -0.0024977   -0.017114   -0.035953   -0.049595    0.028034
-0.051868     0.01017  -0.0047713   -0.010943   -0.033679   -0.056416    0.030957
-0.059664    0.014392  -0.0018481  -0.0044465   -0.029132   -0.060313    0.029983
-0.053168    0.023487    0.003024   0.0023744   -0.027183   -0.059664    0.030633
-0.031406    0.038753   0.0088706    0.012443   -0.024909   -0.054142    0.036479
-0.0063954    0.055643    0.017965    0.026085   -0.019388   -0.046022    0.046873
0.011794    0.068635    0.032257    0.038428  -0.0063954   -0.036278    0.055318
0.01829    0.074157    0.047523    0.040702   0.0095202   -0.028157    0.056617
0.013418    0.071883    0.057267    0.035505    0.021538   -0.022961    0.048172
0.00042559    0.063113    0.055968    0.028359    0.025761   -0.023935    0.036154
-0.014516    0.048497    0.045249     0.01894    0.023812   -0.027508    0.027385
-0.021986    0.030633    0.031932    0.008221    0.017316    -0.03303    0.020888
-0.023285    0.011794    0.022837  -0.0037969   0.0049729   -0.035953    0.017316
-0.02426  -0.0057458     0.01894    -0.01484  -0.0083442   -0.035953    0.011794
-0.027833   -0.018413    0.016666   -0.021661   -0.017114   -0.033679   0.0078962
-0.03303   -0.025234    0.012768   -0.022961   -0.018738   -0.028807   0.0056225
-0.034654   -0.024585     0.01017   -0.015815   -0.013866    -0.02361   0.0052977
-0.029132   -0.019388    0.012443  -0.0057458  -0.0080194   -0.019388   0.0088706
-0.019388   -0.010618     0.01829   0.0039985  -0.0031473   -0.015165    0.011794
-0.0083442  -0.0011985    0.025111    0.011469  0.00010078   -0.010618    0.014717
-0.00022403   0.0056225    0.030633    0.015042   0.0020496  -0.0063954    0.014717
0.0088706    0.010495    0.033881    0.015367  -0.0024977  -0.0063954    0.011469
0.018615    0.015367    0.035505    0.016016   -0.014191   -0.011917   0.0062721
0.02641    0.020888     0.03518    0.020888   -0.018413   -0.018088 -0.00022403
0.030633    0.027709    0.031282    0.029658  -0.0057458   -0.025234  -0.0044465
0.027385    0.031607    0.024137    0.039078    0.021863   -0.034004  -0.0063954
0.016341    0.029983    0.013743    0.042651    0.054668   -0.043748  -0.0044465
0.0017248    0.022188   0.0052977    0.037778    0.078379   -0.051544  -0.0028225
-0.010293   0.0095202  -0.0011985    0.033231    0.082277   -0.051868  -0.0060706
-0.014516  -0.0057458  -0.0034721    0.034855    0.062139   -0.044723   -0.014516
-0.012892   -0.018088  -0.0047713    0.045249    0.030633   -0.035953   -0.025559
-0.011267   -0.026533  -0.0060706    0.058241   0.0052977   -0.030431   -0.033679
-0.008669   -0.028157  -0.0083442    0.069285  -0.0041217   -0.027183   -0.035303
-0.0037969   -0.022961  -0.0099683    0.076755   0.0017248   -0.019388   -0.030106
0.0026992   -0.015815   -0.013216    0.081952    0.013093  -0.0096434    -0.02426
0.0095202   -0.012242   -0.020362    0.086824    0.021863  -0.0037969   -0.019388
0.013093   -0.012242   -0.029132    0.091372    0.023162  -0.0037969   -0.018738
0.01017   -0.013866    -0.03303    0.095269    0.019914  -0.0044465   -0.022636
0.0023744   -0.012892   -0.030756    0.097868    0.013418  -0.0047713   -0.027833
-0.0028225   -0.012567    -0.02361    0.096244   0.0056225  -0.0028225    -0.03173
-0.0031473    -0.01484   -0.014191      0.0852   0.0033489  -0.0031473   -0.033679
0.00010078   -0.020037  -0.0047713     0.06084   0.0065969  -0.0057458   -0.029132
0.0017248   -0.023285      0.0014    0.028034   0.0091954  -0.0099683   -0.017439
0.00042559   -0.021012   0.0059473   -0.011917   0.0049729   -0.015165 -0.00054884
-0.00054884    -0.01549     0.01017   -0.054467  -0.0080194   -0.019063    0.014392
-0.0015233  -0.0057458    0.012443   -0.096042   -0.027833   -0.018413    0.020564
-0.0047713   0.0075714   0.0075714    -0.13827   -0.047321  -0.0089938     0.01764
-0.0099683    0.023812 -0.00022403    -0.17075   -0.058365   0.0088706    0.010819
-0.012567     0.03518  -0.0057458    -0.18471   -0.061613    0.028684   0.0085458
-0.011267    0.034855  -0.0089938    -0.17432    -0.06551    0.045249    0.011144
-0.0099683    0.024137   -0.013541    -0.14314   -0.074605    0.057267    0.020239
-0.0099683   0.0072465   -0.018088    -0.10156   -0.085648    0.062789    0.025761
-0.012567  -0.0054209   -0.021661   -0.061288   -0.094093    0.061165    0.023487
-0.016464  -0.0063954   -0.026209   -0.030431   -0.093444    0.053044    0.017316
-0.021986   0.0010752   -0.028157   -0.010618   -0.081751    0.041027    0.012119
-0.024585    0.011469   -0.025234   0.0017248   -0.061937    0.029333   0.0091954
-0.021986    0.020564   -0.018413   0.0091954    -0.04115    0.021213   0.0062721
-0.013541    0.026085   -0.010293    0.013093   -0.029132    0.021213   0.0036737
0.00042559    0.028684  -0.0028225    0.015692   -0.024585    0.028034   0.0033489
0.016341    0.028359   0.0039985    0.015367   -0.020687    0.037778   0.0049729
0.028359    0.028034   0.0039985    0.014068   -0.008669    0.048497   0.0072465
0.033231     0.02706  -0.0047713    0.011144    0.011469    0.056617   0.0065969
0.029658    0.028359    -0.01549   0.0072465    0.032257    0.062139   0.0043233
0.018615    0.031282   -0.020687   0.0095202    0.044924    0.068635   0.0020496
0.0036737    0.036154   -0.019712    0.015042    0.044599    0.076755  0.00042559
-0.0057458    0.043625   -0.017114    0.025111    0.037129    0.081952   0.0017248
-0.0060706     0.05272   -0.008669    0.037778    0.030308    0.080328    0.009845
0.0026992    0.062464   0.0046481     0.05207    0.029983    0.072533    0.023162
0.016016    0.069285    0.020564    0.060515    0.031932    0.062464    0.036479
0.030308     0.06896    0.036154     0.06084    0.034206    0.054993    0.044924
0.039727     0.06084    0.046223    0.057917     0.03518     0.05207    0.045574
0.041351    0.051096    0.048822    0.056292    0.033556    0.049472    0.042651
0.034855    0.043625      0.0433    0.055643    0.027385    0.045249    0.038428
0.025761    0.036804    0.032257    0.054993    0.019589    0.042001    0.033556
0.016341    0.030308    0.021863    0.055318    0.016991    0.042975    0.025111
0.008221    0.023812    0.016991    0.055968     0.01764    0.050121    0.016991
0.003024     0.01764    0.014717    0.056617    0.017965    0.058566    0.011469
-0.00087364    0.014068    0.013093    0.058241    0.017965     0.06019    0.009845
0.00010078    0.010819    0.009845    0.056617     0.01764    0.054993    0.010495
0.0043233   0.0052977   0.0069217    0.054668    0.015692    0.047847   0.0095202
0.012119  -0.0031473   0.0069217     0.05142    0.012119     0.04395   0.0072465
0.021213  -0.0096434   0.0085458    0.049796     0.01017    0.045574   0.0085458
0.035505   -0.012892    0.010495    0.046223    0.011469    0.051745    0.014392
0.050121   -0.011592    0.012443    0.041027    0.014068    0.059541     0.01829
0.060515   -0.010293    0.016016    0.034206    0.016341    0.065387     0.01829
0.062789   -0.010943     0.01764    0.027385    0.016991    0.069285    0.013743
0.059865   -0.015815    0.015042    0.020239     0.01764    0.066362   0.0046481
0.054668    -0.02426     0.01017    0.014392    0.018615    0.055643  -0.0018481
0.047847   -0.034329    0.003024    0.010819     0.01829    0.039402  -0.0028225
0.041027   -0.043748  -0.0063954   0.0095202    0.016016    0.021863      0.0014
0.037778    -0.04927   -0.012567    0.011144    0.010819   0.0023744   0.0062721
0.036804    -0.04927   -0.015165    0.016016 -0.00022403   -0.015815   0.0046481
0.029983   -0.046347    -0.01614    0.020239   -0.013216   -0.030106  -0.0037969
0.011469   -0.041799   -0.019712    0.018615   -0.021337   -0.035303   -0.017114
-0.011267   -0.038876   -0.025884    0.013093   -0.024585   -0.034329   -0.029782
-0.028482   -0.035303   -0.029457   0.0056225   -0.021986   -0.024909   -0.038876
-0.034004   -0.034004    -0.03238  -0.0047713    -0.01614   -0.014516   -0.044723
-0.029132   -0.034004   -0.034329   -0.014191  -0.0099683  -0.0099683   -0.048296
-0.021661   -0.035628   -0.032705   -0.020037   -0.007045   -0.010293   -0.049595
-0.017439   -0.036278   -0.027508   -0.020362  -0.0096434   -0.015815    -0.04927
-0.018738   -0.035953   -0.019388   -0.014516   -0.017114   -0.022636   -0.047321
-0.022311   -0.033354   -0.011267  -0.0067202   -0.026209   -0.026858   -0.046022
-0.024585    -0.03173  -0.0034721  0.00042559   -0.032055   -0.027833   -0.047646
-0.021661   -0.032055   0.0039985   0.0065969    -0.03173   -0.030106   -0.054467
-0.014516   -0.033679     0.01017    0.013743   -0.026533   -0.037252   -0.059664
-0.010293   -0.034004    0.015367     0.01894   -0.020687   -0.050569   -0.057715
-0.014516   -0.034004    0.017965    0.025111   -0.018088   -0.063561   -0.044073
-0.022311   -0.033679    0.013743    0.031282   -0.018738   -0.069733   -0.023285
-0.027508   -0.033354  0.00075039    0.033881   -0.024585   -0.072006  -0.0024977
-0.027183    -0.03238    -0.01614    0.033881   -0.033354   -0.071357    0.013743
-0.024585   -0.031081   -0.030756    0.031607   -0.041799   -0.069408    0.023487
-0.018088   -0.031081   -0.037252    0.030633   -0.047646   -0.069083    0.027709
-0.0050961   -0.033679   -0.033679    0.030308   -0.048945   -0.068434    0.027385
0.011144   -0.035303   -0.022961    0.029009   -0.046671    -0.06616    0.025436
0.025111   -0.033354   -0.012567    0.024461   -0.036927   -0.063561    0.023812
0.033556   -0.027833  -0.0096434    0.017965   -0.020687   -0.064211    0.026735
0.036479   -0.018738   -0.014516    0.014392  -0.0021729   -0.072656    0.032582
0.033881  -0.0083442    -0.02361    0.013743   0.0085458   -0.082076     0.03453
0.032906  0.00075039    -0.03173    0.011794   0.0085458   -0.087597    0.030308
0.038428    0.008221   -0.038227   0.0065969  0.00075039   -0.084999    0.022512
0.051096    0.013093   -0.045697   0.0010752  -0.0015233    -0.07428    0.014392
0.066037     0.01764    -0.04927  -0.0015233   0.0052977   -0.059014   0.0069217
0.074482    0.021538   -0.044723  -0.0050961    0.020888   -0.044723   0.0036737
0.071558    0.023162   -0.038227   -0.012242    0.034206   -0.033679   0.0078962
0.058566    0.021213   -0.035303   -0.031081    0.039402   -0.026858    0.021538
0.042651    0.014717   -0.033679    -0.05804    0.035505   -0.026209    0.036479
0.029983    0.011144   -0.029132   -0.084024    0.027709   -0.027833    0.044924
0.022837   0.0091954   -0.020362    -0.10221     0.01894   -0.026858    0.045249
0.019264   0.0085458   -0.011917    -0.11196     0.01017   -0.026858    0.038428
0.012768     0.01017  -0.0054209    -0.11228    0.003024   -0.028157    0.029009
0.003024    0.013743  -0.0028225    -0.10286  -0.0015233   -0.027833    0.023487
-0.010293    0.018615  -0.0021729   -0.084024  -0.0011985   -0.025884    0.024137
-0.018738    0.022837  0.00010078   -0.060313   0.0049729   -0.024909    0.031607
-0.024909    0.022188   0.0020496   -0.038876    0.014068   -0.026858    0.035505
-0.026209    0.017965   0.0026992   -0.025559    0.021213   -0.033679     0.02706
-0.023285    0.012443   0.0020496    -0.02426    0.020239   -0.041799   0.0069217
-0.016464   0.0065969    0.003024   -0.027833    0.013093   -0.046022   -0.016464
-0.0054209  -0.0011985   0.0023744   -0.033679   0.0075714   -0.042124   -0.034978
0.0069217  -0.0050961   0.0039985   -0.038551   0.0046481    -0.03303   -0.045372
0.014068  -0.0063954   0.0078962   -0.036602   0.0020496   -0.027183   -0.046022
0.012119  -0.0028225    0.013743   -0.026533  -0.0031473   -0.029457   -0.039851
-0.00054884  -0.0018481    0.017316   -0.012242   -0.010618   -0.038551   -0.031081
-0.018738 -0.00054884    0.015692   0.0026992   -0.020362   -0.050244   -0.024909
-0.038227 -0.00054884    0.009845    0.012768   -0.033354   -0.057715   -0.028482
-0.053492 -0.00022403  0.00075039    0.016341   -0.044723   -0.059014   -0.039851
-0.062912   0.0010752   -0.008669    0.012443   -0.054142   -0.061288   -0.054467
-0.06681    0.003024   -0.012242    0.003024   -0.058365   -0.068434    -0.06616
-0.065835    0.003024  -0.0073698  -0.0089938   -0.057715   -0.077203   -0.069408
-0.062912      0.0014   0.0036737   -0.014516   -0.054467   -0.084024    -0.06551
-0.057715  -0.0011985    0.012443   -0.014191   -0.056741   -0.087597   -0.058365
-0.049595  -0.0047713    0.016991   -0.007045   -0.064861   -0.086623   -0.048945
-0.040825  -0.0089938     0.01764  0.00075039   -0.077853   -0.077853   -0.038551
-0.035953   -0.011917    0.015367   0.0072465   -0.089221   -0.063886   -0.030431
-0.039526   -0.012567    0.012768    0.013093   -0.090845    -0.04927   -0.025884
-0.04927  -0.0096434    0.011469    0.022188   -0.078827   -0.038227   -0.022311
-0.056741  -0.0050961    0.010495     0.03453   -0.055766   -0.032705   -0.015815
-0.060638  -0.0011985    0.011144    0.047523   -0.029457   -0.030431   -0.008669
-0.058365   0.0036737    0.012119    0.058566  -0.0024977   -0.024585  -0.0021729
-0.047321    0.009845    0.011794    0.063113    0.022512   -0.014516   0.0020496
-0.033354     0.01829    0.008221    0.062789    0.042001  -0.0015233   0.0056225
-0.019712    0.029983   0.0065969    0.062464    0.053694   0.0069217    0.011794
-0.0060706    0.044924   0.0091954    0.065387    0.055968   0.0085458    0.020888
0.0065969    0.059216    0.016991    0.068635    0.054019   0.0046481     0.03583
0.019914     0.06896    0.027385    0.071234    0.050446  -0.0011985    0.051096
0.031282    0.075781    0.033231    0.073182    0.052395   -0.007045    0.058891
0.036804    0.078379    0.031282    0.075781    0.067986   -0.007045    0.058241
0.03518     0.07708    0.028684     0.07773    0.095919 -0.00054884    0.051745
0.032582    0.074157    0.029658     0.07708     0.12872   0.0091954    0.047198
0.03453    0.067986    0.035505    0.071558     0.16088    0.018615    0.048822
0.042651    0.059216    0.038428    0.064413     0.18622    0.028034    0.057592
0.057267    0.050121    0.033556    0.059216     0.20083    0.039402    0.067336
0.071234      0.0433    0.024461     0.05272     0.20083    0.047523    0.073507
0.080328    0.039727    0.018615     0.04395     0.18524     0.05272    0.075131
0.084226    0.037454    0.015692    0.032906     0.15244    0.058241    0.072533
0.083576    0.035505    0.015042    0.024137     0.10047    0.064088     0.06831
0.078379    0.030957    0.016341    0.021538    0.023812    0.070259     0.06084
0.070259    0.026735    0.013418    0.025111   -0.080776    0.074157    0.052395
0.060515    0.019589   0.0069217    0.030633    -0.22337     0.06961    0.043625
0.053044   0.0085458  -0.0015233    0.030308    -0.40526    0.054668     0.03453
0.044924  -0.0028225  -0.0089938    0.022837    -0.59917    0.036804    0.025111
0.031932   -0.012242   -0.012892    0.012443    -0.75378    0.022837    0.017316
0.014717   -0.018088    -0.01484   0.0059473    -0.82491     0.01829    0.014068
0.00042559   -0.018088   -0.017114   0.0039985    -0.79763     0.01829    0.013418
-0.0076946   -0.015165   -0.018738   0.0043233    -0.69304    0.019589    0.013418
-0.010618   -0.010943    -0.01549   0.0043233    -0.54428    0.022837    0.014392
-0.012242   -0.011267   -0.008669   0.0010752    -0.38025    0.026085    0.015692
-0.013541   -0.015815  -0.0031473  -0.0028225    -0.22694    0.025111    0.016666
-0.018413   -0.023285  -0.0047713   -0.007045    -0.10254    0.020888    0.014392
-0.025234   -0.027833  -0.0096434  -0.0096434  -0.0080194    0.015367     0.01017
-0.029782   -0.029457   -0.016464   -0.011267    0.058891    0.008221   0.0072465
-0.035628   -0.027183   -0.024585   -0.011267     0.10664   0.0017248    0.008221
-0.041475   -0.021661   -0.030106   -0.010943     0.14009  -0.0047713   0.0091954
-0.043748   -0.013866   -0.031081   -0.008669     0.15633  -0.0073698   0.0023744
-0.037902  -0.0060706   -0.026858  -0.0054209     0.15341   0.0017248   -0.012892
-0.025884  0.00075039   -0.020362 -0.00054884     0.14042     0.01894   -0.034654
-0.011592   0.0036737   -0.013216   0.0039985     0.13262     0.03583   -0.052843
0.00010078   0.0049729  -0.0083442    0.008221     0.13717    0.046873   -0.060963
0.0059473   0.0062721  -0.0050961    0.011469     0.14951    0.050446   -0.059014
0.0085458   0.0075714  -0.0041217    0.012443     0.16218    0.048822   -0.048945
0.010819   0.0091954  -0.0041217    0.013743     0.16283    0.042001    -0.03303
0.012119    0.011144  -0.0054209    0.015367     0.14789     0.03453   -0.016789
0.009845    0.014068  -0.0067202    0.011144     0.12093    0.029333  -0.0018481
0.0039985    0.016341   -0.007045  -0.0015233    0.089423    0.025111   0.0088706
-0.0057458    0.019264  -0.0057458    -0.01484    0.067011     0.01829    0.013418
-0.01549    0.021863  -0.0057458    -0.02361    0.058566    0.010819    0.014068
-0.024909    0.022512  -0.0073698   -0.020687    0.061489   0.0065969    0.013743
-0.03238    0.021863   -0.007045  -0.0093186    0.071883   0.0062721    0.014068
-0.032055    0.020888  -0.0054209   0.0059473    0.084226    0.009845    0.012443
-0.028482    0.015692  -0.0076946     0.01764    0.091372   0.0085458   0.0088706
-0.022311   0.0075714   -0.018088    0.021538    0.095269  0.00075039  0.00042559
-0.017764  -0.0015233   -0.034004    0.016666     0.10014   -0.008669   -0.010943
-0.01484  -0.0080194   -0.047646   0.0065969     0.10534   -0.016789   -0.020362
-0.012242   -0.010618   -0.050569  -0.0080194     0.11443   -0.020362   -0.027508
-0.0076946   -0.012242   -0.045372   -0.025884      0.1232   -0.020687   -0.031081
-0.0047713   -0.008669   -0.034978   -0.047321      0.1271    -0.02361   -0.034654
-0.0060706  -0.0024977   -0.026533   -0.071682     0.12483   -0.032055   -0.039526
-0.011267   0.0010752   -0.020687   -0.097666     0.11931   -0.043748   -0.046022
-0.021012 -0.00054884   -0.019712    -0.12203     0.11833   -0.056416   -0.050244
-0.036278  -0.0054209   -0.025559    -0.13989     0.12483   -0.062912   -0.054467
-0.051219  -0.0080194   -0.030431    -0.14184     0.13912   -0.060963   -0.058365
-0.061937  -0.0060706   -0.030431    -0.12365     0.15633   -0.051219   -0.059664
-0.065186  0.00010078   -0.021012   -0.087597      0.1742   -0.034978   -0.059014
-0.061937   0.0095202  -0.0096434   -0.043748     0.18427   -0.017764    -0.05804
-0.057065    0.020239  -0.0024977  -0.0034721     0.17907   -0.007045   -0.057715
-0.055441    0.026085  0.00042559    0.029983     0.15731  -0.0050961   -0.053168
-0.059339    0.026085 -0.00022403    0.054993     0.12483   -0.008669   -0.042774
-0.064211    0.019264  -0.0028225    0.074157    0.090397   -0.014191   -0.027833
-0.065186   0.0095202  -0.0083442    0.087149    0.061814   -0.016464   -0.012242
-0.059989 -0.00022403   -0.013866    0.095594    0.042975   -0.013541  -0.0024977
-0.046347  -0.0050961   -0.014516     0.10112    0.033231  -0.0093186  -0.0031473
-0.027183  -0.0054209  -0.0099683     0.10696    0.025111  -0.0050961  -0.0089938
-0.012567  -0.0028225  -0.0041217     0.10664    0.012119  0.00042559   -0.016789
-0.007045   0.0026992 -0.00022403    0.093321   -0.007045   0.0059473   -0.021661
-0.0089938   0.0072465  -0.0021729    0.063763   -0.027508   0.0072465   -0.020687
-0.012567    0.008221  -0.0063954    0.023162   -0.043099   0.0020496    -0.01549
-0.01484   0.0046481   -0.010293   -0.011592   -0.050894  -0.0044465  -0.0067202
-0.015815 -0.00054884   -0.012567   -0.029457   -0.048296   -0.008669   0.0020496
-0.012892  -0.0050961   -0.012892   -0.031081   -0.034654   -0.007045   0.0091954
-0.0089938  -0.0047713   -0.010618   -0.029457  -0.0083442  -0.0021729    0.015692
-0.0044465 -0.00087364  -0.0024977    -0.03303    0.023812 -0.00087364    0.019914
-0.0018481   0.0039985    0.011469   -0.041799    0.049147  -0.0054209    0.020564
-0.0044465   0.0052977    0.026085   -0.050244    0.056292  -0.0099683    0.017965
-0.013541   0.0010752    0.033881   -0.055766    0.042326   -0.010293    0.014068
-0.022311  -0.0063954    0.029983   -0.056741   0.0085458  -0.0083442    0.010495
-0.02361   -0.012242    0.019589   -0.051219   -0.038876  -0.0047713    0.010495
-0.018088  -0.0096434    0.014068   -0.041475   -0.092145   0.0010752    0.012768
-0.0096434    0.003024    0.015042   -0.030106    -0.14411   0.0069217    0.015692
0.0020496    0.021863    0.021213   -0.019712    -0.18569   0.0095202    0.018615
0.013418    0.039402    0.026735  -0.0099683    -0.20972    0.008221    0.019264
0.024461    0.047198    0.029658   0.0017248     -0.2159   0.0052977     0.01894
0.037778     0.04395    0.029009    0.014717    -0.20518   0.0046481    0.016991
0.049796     0.03453    0.026735    0.028034    -0.18017   0.0095202    0.018615
0.056942    0.024461    0.025111    0.041027    -0.14639     0.01894    0.022837
0.059541    0.014392    0.022188    0.051745    -0.11098    0.026085    0.023162
0.059216   0.0039985    0.016991    0.058241   -0.080127     0.02641    0.016341
0.056617  -0.0037969    0.011794    0.062789   -0.055766     0.01764   0.0049729
0.049796  -0.0060706   0.0049729    0.065712   -0.037902   0.0059473  -0.0057458
0.037454  -0.0044465  -0.0050961    0.066686   -0.026858  -0.0034721  -0.0089938
0.025111 -0.00054884    -0.01614    0.064413    -0.02426  -0.0080194  -0.0018481
0.015692  0.00075039    -0.02426    0.057917   -0.027508   -0.011917    0.011144
0.012443  -0.0028225   -0.022961    0.047198    -0.03303   -0.013866    0.022512
0.015367   -0.012567   -0.017764    0.039078   -0.036927   -0.008669    0.030957
0.025111   -0.021012   -0.015815     0.03583   -0.040825   0.0023744     0.03453
0.037454    -0.02361    -0.01549     0.03453   -0.045372    0.016341    0.033881
0.048822   -0.020037   -0.012242    0.030957   -0.047321    0.028359    0.032582
0.055968   -0.013866  -0.0076946    0.024461   -0.047971    0.030633    0.032906
0.059541  -0.0054209 -0.00054884    0.015692   -0.043099    0.021863    0.032906
0.059865    0.003024     0.01017   0.0072465   -0.034004   0.0062721    0.036154
0.056617    0.011794    0.026085   0.0020496   -0.023285  -0.0089938    0.040377
0.053694    0.022837    0.047523   0.0010752   -0.013541   -0.016789    0.044275
0.050771    0.036479    0.073507   0.0049729 -0.00087364   -0.020687    0.050771
0.048172    0.047847    0.096244    0.015692    0.015042   -0.018413    0.062139
0.047198    0.051096     0.10729    0.033231    0.030308   -0.008669    0.076106
0.048172    0.046223     0.10144    0.047847    0.042001   0.0046481    0.088773
0.048497     0.03583     0.07708    0.051096    0.047198    0.014717    0.093645
0.048497    0.024137    0.045899    0.042975      0.0433    0.016991    0.090397
0.050446    0.015692    0.019589    0.031607    0.034206    0.014068    0.083251
0.055643    0.011794    0.003024    0.021538    0.028034    0.011794    0.076755
0.059541    0.013743  -0.0044465    0.018615    0.031932    0.011144    0.073832
0.059865    0.020564  -0.0057458    0.022837    0.039402   0.0091954    0.078704
0.058566    0.029658  -0.0011985    0.031607    0.039402   0.0020496      0.0865
0.056617     0.03518   0.0065969    0.039078    0.028034   -0.007045    0.084876
0.054668     0.03518    0.016341    0.047198    0.010495   -0.012567    0.071883
0.05272    0.031932    0.026735    0.054668  -0.0089938   -0.012892    0.051096
0.049472    0.032582     0.03453    0.060515   -0.023285  -0.0073698    0.028359
0.0433    0.038753    0.038428    0.063438   -0.035628 -0.00054884   0.0059473
0.031932    0.046873    0.038103    0.067011   -0.053168    0.003024   -0.013866
0.012768    0.052395    0.036479    0.067986    -0.07493   0.0010752    -0.03238
-0.007045    0.050121    0.032582    0.063113   -0.094093  -0.0080194   -0.047971
-0.021012    0.040702    0.025761    0.055318    -0.10351   -0.020687   -0.057065
-0.024909     0.02706    0.010819    0.047198    -0.10091   -0.027833   -0.060963
-0.022636    0.015692   -0.010618    0.039402   -0.085973   -0.019388    -0.06616
-0.020037   0.0088706    -0.03303     0.03518   -0.065835  -0.0034721   -0.070707
-0.020687   0.0023744   -0.047646    0.031607   -0.048296   0.0085458   -0.071357
-0.021661  -0.0063954   -0.051868    0.029009   -0.040175   0.0088706   -0.063561
-0.022961   -0.016464   -0.047646    0.028034   -0.046671 -0.00087364   -0.048296
-0.022961    -0.02426   -0.039526    0.033231   -0.058689   -0.014191   -0.035303
-0.019063   -0.027833   -0.030756    0.041676   -0.061613   -0.025234   -0.027183
-0.013216   -0.026533   -0.021986    0.047523    -0.04992   -0.028157    -0.02426
-0.0083442   -0.022961    -0.01549     0.05207   -0.035953   -0.024909   -0.021012
-0.0041217   -0.018738   -0.012242    0.055968   -0.030756   -0.021986   -0.015165
-0.0044465   -0.012892   -0.012567    0.060515   -0.036278   -0.022311   -0.011917
-0.0076946   -0.008669   -0.015815    0.056617   -0.046022   -0.024585   -0.013541
-0.010293  -0.0054209   -0.019063    0.039402    -0.04927   -0.026533   -0.021012
-0.0096434  -0.0050961    -0.02426    0.016991   -0.042774   -0.024585   -0.029132
-0.008669  -0.0073698   -0.031406  -0.0067202   -0.030106   -0.015815   -0.030106
-0.011592   -0.010943   -0.039851   -0.030756   -0.011917  -0.0047713    -0.02361
-0.018738   -0.013541   -0.043748    -0.05739   0.0078962 -0.00054884   -0.013216
-0.026858   -0.012892   -0.045697   -0.092469    0.021863 -0.00054884  -0.0080194
-0.028807  -0.0041217   -0.051544    -0.13275    0.022837  -0.0011985    -0.01484
-0.027183   0.0085458   -0.059664    -0.16685    0.011469   0.0059473    -0.03173
-0.025234     0.01829   -0.061288    -0.18212  -0.0067202    0.014392    -0.04862
-0.023935    0.017965   -0.055116    -0.17432    -0.02426    0.016341   -0.055116
-0.022311    0.008221   -0.046671    -0.14606   -0.035303   0.0075714   -0.050894
-0.015815  -0.0041217   -0.042774    -0.10514   -0.038551  -0.0073698   -0.037902
-0.0096434   -0.013866   -0.040825   -0.065186   -0.034004   -0.020687   -0.021661
-0.0054209   -0.017439   -0.036927    -0.03303   -0.023285   -0.026533  -0.0076946
-0.0011985   -0.014191   -0.030756  -0.0076946   -0.010293    -0.02426 -0.00022403
0.0026992  -0.0063954   -0.022961   0.0075714   0.0020496   -0.021986   0.0043233
0.0039985  0.00010078   -0.017764    0.015042   0.0091954    -0.02361   0.0095202
0.0017248   0.0020496    -0.01549    0.016666    0.011469   -0.030431    0.016991
-0.0015233 -0.00087364   -0.018413    0.015367    0.009845   -0.034654    0.026735
-0.0034721  -0.0063954   -0.022311     0.01017   0.0065969    -0.03238    0.037454
-0.0063954   -0.010293   -0.025559  0.00010078   0.0049729   -0.025234    0.044599
-0.010943   -0.013541   -0.027833   -0.013216   0.0046481   -0.017114    0.047523
-0.015815   -0.015165   -0.030106   -0.025559   0.0088706   -0.011917    0.046548
-0.018413   -0.011267   -0.030431   -0.032055    0.011469   -0.010943    0.044924
-0.017439   0.0036737   -0.028482   -0.029132    0.014717  -0.0080194    0.042651
-0.014191    0.031282   -0.024909   -0.019388     0.01894    0.003024    0.037129
-0.011592    0.058241   -0.021337  -0.0093186    0.025436    0.020564    0.029983
-0.0076946    0.071558    -0.01549  -0.0024977    0.033231    0.036154    0.025111
-0.0050961    0.066362  -0.0096434 -0.00087364    0.040702     0.04395    0.024461
-0.0028225    0.049472  -0.0047713  -0.0024977    0.046873    0.040052     0.02641
-0.0050961    0.027385   0.0033489  -0.0050961    0.052395    0.029333    0.029333
-0.011592   0.0075714    0.012768  -0.0034721    0.054668    0.016341    0.031282
-0.019712  -0.0057458    0.023812   0.0017248    0.054668   0.0069217    0.028359
-0.026533  -0.0099683    0.033881    0.013093     0.05207   0.0010752    0.021863
-0.030431  -0.0044465    0.041676    0.025761    0.049147      0.0014    0.011794
-0.028807   0.0095202    0.044275    0.035505    0.044924   0.0039985   0.0033489
-0.022961    0.023812    0.040377    0.041027    0.040377   0.0023744 -0.00087364
-0.017764    0.032582    0.032257    0.045574    0.037778  -0.0041217  -0.0015233
-0.01484     0.03518    0.022188    0.049796    0.037129   -0.012567  -0.0011985
-0.010943     0.03583    0.016991    0.053044    0.037129   -0.020687  -0.0011985
-0.0044465    0.034206    0.013743    0.050446    0.042326   -0.027833    0.003024
-0.00054884     0.03453    0.010819    0.041027    0.050446   -0.034004   0.0091954
0.0020496     0.03518     0.01017    0.026085    0.053694   -0.034004    0.012119
0.0069217    0.037778    0.011144   0.0088706    0.050771   -0.022311   0.0062721
0.018615    0.041027    0.012768  -0.0031473      0.0433  -0.0037969  -0.0041217
0.030957    0.039727    0.015692  -0.0099683    0.033881   0.0095202    -0.01484
0.036154    0.032257    0.017316   -0.010293    0.024137   0.0069217   -0.022636
0.032582    0.022837    0.016991  -0.0031473     0.01829  -0.0054209   -0.027183
0.020239    0.016991    0.016341   0.0072465    0.014717   -0.019388   -0.029132
0.0023744    0.016341    0.016341     0.01764    0.013093   -0.026533   -0.025884
-0.015815    0.017965     0.01894     0.02641   0.0095202   -0.025234   -0.018738
-0.028157    0.018615    0.025761    0.033231   0.0039985   -0.019388   -0.011267
-0.029457    0.017965    0.033881    0.032582  -0.0031473   -0.010618  -0.0050961
-0.021012     0.01829    0.040702    0.027385  -0.0057458  -0.0054209   0.0046481
-0.008669    0.016341    0.045574    0.022837  -0.0015233  -0.0031473    0.013418
0.003024    0.011469    0.046873    0.022837   0.0088706  -0.0044465    0.019264
0.0085458   0.0072465    0.042651    0.025761    0.020888  -0.0060706    0.020888
0.008221    0.010495    0.034855    0.025761    0.031607  -0.0031473     0.01894
0.0017248    0.020239    0.028034    0.020239    0.036154   0.0043233     0.01829
-0.0073698    0.032582     0.02641   0.0078962    0.031282   0.0069217    0.017965
-0.011592    0.041027    0.029658  -0.0057458    0.019589   0.0049729    0.016341
-0.0050961    0.042326    0.038428   -0.014191     0.01017 -0.00022403    0.013093
0.01017    0.034855      0.0433   -0.016789   0.0056225  -0.0031473    0.011144
0.022837    0.023812    0.039402   -0.011592   0.0043233  0.00042559    0.010819
0.023812    0.012443    0.031932 -0.00087364   0.0020496    0.008221    0.010495
0.014392   0.0059473    0.025436   0.0088706 -0.00022403    0.014717   0.0069217
0.0020496   0.0017248    0.022188    0.015692  -0.0011985    0.020888  0.00075039
-0.0096434  -0.0044465    0.021538    0.020888  -0.0018481    0.023812  -0.0031473
-0.01614   -0.014516     0.01829    0.025111  -0.0057458    0.019914  -0.0047713
-0.01614   -0.024909    0.010819    0.029983   -0.014516    0.012443  0.00042559
-0.012567    -0.03238  0.00010078     0.03453   -0.026533  0.00075039    0.010495
-0.008669   -0.036278   -0.011917    0.036154   -0.037902   -0.010293    0.023162
-0.0050961   -0.036278   -0.021661    0.033556   -0.043423   -0.016789    0.032582
0.0017248    -0.03303   -0.027508    0.028034   -0.040825   -0.013216    0.037454
0.0085458   -0.028157   -0.026209    0.022837   -0.034329  -0.0028225    0.038103
0.013093   -0.021337   -0.020362    0.017965    -0.03173    0.011794    0.036479
0.015367   -0.011267   -0.014191    0.016341   -0.032055    0.028034    0.035505
0.019589   0.0010752   -0.008669    0.017316   -0.025234    0.039078    0.032906
0.027709    0.014068   -0.010618    0.021213  -0.0050961    0.041027    0.028034
0.037454    0.024137   -0.020687    0.022837    0.027709    0.033556    0.024461
0.047847    0.030633    -0.03173    0.019264    0.058241    0.022512    0.025436
0.055968     0.03453   -0.033354   0.0095202    0.075456    0.015692    0.034206
0.059541    0.037454   -0.023935  -0.0015233    0.072208    0.012443    0.046548
0.057592    0.039078  -0.0096434  -0.0093186    0.054668   0.0091954    0.062464
0.050446    0.037454    0.003024  -0.0076946    0.032906   0.0046481    0.074157
0.038103     0.03453   0.0095202  -0.0028225    0.015367 -0.00087364    0.071558
0.025761    0.031607   0.0078962 -0.00054884   0.0010752  -0.0037969    0.053044
0.019914    0.028034  -0.0011985  -0.0031473   -0.011267   -0.007045    0.026085
0.021213    0.024137   -0.013216   -0.011267   -0.013541   -0.012567  -0.0034721
0.024137    0.019914   -0.022636   -0.023285  -0.0021729   -0.023285   -0.028157
0.022837    0.015367   -0.027508    -0.03238    0.016666   -0.036927   -0.046022
0.012768    0.009845   -0.030431   -0.031081    0.039078    -0.04862   -0.056741
-0.0044465   0.0026992    -0.03173   -0.022961    0.064413   -0.053168   -0.063237
-0.019712  -0.0057458   -0.029782  -0.0076946    0.090397   -0.049595   -0.068434
-0.028807   -0.012242   -0.023285    0.009845     0.11411   -0.042774   -0.073955
-0.029782   -0.015815   -0.017439    0.025111     0.13555   -0.038876   -0.076229
-0.028482   -0.016464   -0.013866    0.030633     0.15406    -0.04115   -0.072981
-0.027508   -0.015165   -0.010618    0.026735     0.17192    -0.04862    -0.06551
-0.028157   -0.015165   -0.010618    0.016666     0.17874   -0.053817   -0.056091
-0.028807   -0.019063   -0.016789   0.0023744     0.16121   -0.053168   -0.047646
-0.031406   -0.026533   -0.028157   -0.012892     0.11118   -0.048945   -0.044723
-0.037577   -0.036278   -0.040825   -0.024585    0.026085   -0.044398   -0.043748
-0.042449   -0.044073   -0.053492   -0.026533   -0.096367   -0.038876   -0.042449
-0.041799   -0.048296   -0.061288   -0.017764    -0.25357   -0.036927   -0.035953
-0.037902    -0.04927   -0.063561  -0.0044465    -0.43189   -0.039201   -0.025884
-0.037252   -0.045372   -0.062912   0.0095202    -0.60144   -0.044398   -0.012242
-0.039851    -0.04115   -0.061937     0.01829    -0.72617    -0.04927   0.0017248
-0.039526   -0.035303    -0.05739    0.021538    -0.77619   -0.053492   0.0088706
-0.034004   -0.025884   -0.046347    0.019264    -0.74241   -0.052518   0.0072465
-0.025234    -0.01614   -0.030106    0.014392    -0.64042   -0.047321  0.00075039
-0.018413  -0.0067202   -0.014191     0.01017    -0.50075   -0.038227  -0.0067202
-0.01549   0.0017248  -0.0031473   0.0088706    -0.35491   -0.029457   -0.012892
-0.01484     0.01017  -0.0034721    0.014068    -0.23084   -0.026209   -0.015165
-0.015165    0.015692   -0.010943    0.022837    -0.13664   -0.023285   -0.010293
-0.013866    0.019264    -0.01484     0.03453   -0.070707   -0.015165  0.00042559
-0.010943    0.021538   -0.010943    0.047847   -0.022311  -0.0037969    0.013743
-0.0083442    0.023487   0.0020496     0.06019    0.017316   0.0075714    0.023487
-0.0011985    0.023487     0.01829     0.06896    0.049147    0.017965    0.028359
0.010819    0.022188    0.035505    0.070584    0.070584    0.024137    0.031282
0.024786    0.019589    0.044275    0.061489    0.079029    0.023487    0.032257
0.031282    0.016991    0.039727    0.047523    0.075456    0.013093    0.029333
0.027385    0.014717    0.027385    0.034206    0.063438  -0.0060706    0.022512
0.01829    0.013093    0.013743    0.027385    0.047198   -0.026533    0.013093
0.011144    0.011469   0.0020496     0.02706    0.032257    -0.04115   0.0059473
0.009845   0.0043233  -0.0034721    0.029009    0.026085   -0.045697   0.0033489
0.012443  -0.0050961  -0.0050961     0.02641    0.029333   -0.040175   0.0062721
0.019589   -0.012242  -0.0044465    0.016991    0.039727   -0.033679    0.011469
0.025436   -0.013216  -0.0060706   0.0039985    0.054019   -0.029132    0.016016
0.029333  -0.0083442  -0.0089938  -0.0099683    0.066686   -0.028807    0.017316
0.028034  -0.0018481   -0.011917   -0.021661    0.075456   -0.029457    0.013093
0.023162   0.0023744   -0.012242   -0.027508    0.081627   -0.030756   0.0039985
0.022512   0.0010752  -0.0089938   -0.031406    0.087149   -0.033354  -0.0050961
0.028034  -0.0060706  -0.0028225   -0.035303    0.092346   -0.039526   -0.008669
0.033556    -0.01549   0.0033489   -0.038876     0.10014   -0.044723  -0.0067202
0.034206    -0.02361   0.0059473   -0.038227     0.10826   -0.038876  -0.0024977
0.032582   -0.030756   0.0095202   -0.032055     0.11118   -0.022636 -0.00054884
0.028359   -0.034654    0.013743   -0.022311     0.10826  -0.0028225  -0.0034721
0.01894   -0.035303    0.016666   -0.010943     0.10306    0.014717   -0.010618
0.0062721    -0.03238    0.016991   0.0010752    0.098517    0.027709   -0.020037
-0.008669   -0.027183    0.015692    0.010819    0.096893    0.032582   -0.031081
-0.019063   -0.022311    0.013418    0.014392    0.095594     0.02641   -0.037252
-0.021661   -0.020362    0.011144    0.011794    0.092996    0.013093   -0.034978
-0.019063   -0.021986    0.011469    0.009845    0.087474  -0.0018481   -0.025559
-0.014191   -0.025234    0.015692   0.0095202    0.079679   -0.012242   -0.012567
-0.011917   -0.028807    0.020239   0.0088706    0.073507    -0.01549  0.00042559
-0.012242   -0.029132    0.019264    0.012119    0.070584   -0.014191    0.009845
-0.014516   -0.023935     0.01017    0.019589    0.073182   -0.011917    0.013743
-0.018088   -0.017114  -0.0031473    0.029983    0.083251   -0.010293   0.0085458
-0.021337   -0.013216   -0.012567    0.038753    0.097218   -0.012567  -0.0047713
-0.022636   -0.013866   -0.017439    0.045899     0.10534   -0.017439   -0.018738
-0.020037   -0.021012   -0.021012    0.048822     0.10599   -0.022311   -0.027833
-0.010943   -0.030756   -0.019388    0.044924     0.10534    -0.02361   -0.026209
0.0046481   -0.042449   -0.011267    0.039078     0.10664   -0.026209   -0.015815
0.01829   -0.049595  -0.0037969    0.036479     0.11313   -0.033679  -0.0015233
0.027385    -0.04927  -0.0047713    0.038428     0.11346   -0.043099    0.012119
0.033556   -0.041799   -0.013216    0.044924     0.10404   -0.048296    0.022837
0.036154   -0.030431    -0.02426    0.050771    0.083901   -0.044073    0.032582
0.033556   -0.020687   -0.033354     0.05207    0.058241   -0.029782    0.038103
0.026735   -0.012567   -0.034004    0.051745    0.033881   -0.012567    0.038428
0.018615  -0.0076946   -0.026533    0.054344    0.015367  -0.0011985    0.031607
0.011794  -0.0067202   -0.016789    0.060515   0.0026992  -0.0028225    0.020239
0.008221  -0.0089938  -0.0089938    0.067661   -0.011592   -0.016789   0.0049729
0.0056225   -0.011917  -0.0060706    0.071234   -0.035303   -0.032705   -0.011267
0.0017248   -0.012567  -0.0067202    0.064088   -0.067134   -0.046996   -0.023935
-0.00054884  -0.0099683  -0.0073698     0.04395   -0.097991    -0.05804   -0.035628
-0.0021729  -0.0063954   -0.007045    0.015042     -0.1178   -0.064861   -0.047321
-0.0076946  -0.0044465  -0.0060706   -0.017114    -0.11748   -0.067459   -0.058365
-0.017439  -0.0044465  -0.0054209    -0.04862    -0.10059   -0.072331   -0.067784
-0.027183  -0.0054209  -0.0037969   -0.077528   -0.084349     -0.0824   -0.073631
-0.03238   -0.007045  -0.0037969    -0.09994   -0.084999   -0.096692    -0.07493
-0.029132  -0.0083442  -0.0089938    -0.11261    -0.10903    -0.10903   -0.071682
-0.020687   -0.010293   -0.017439    -0.11488    -0.14476    -0.11488   -0.062262
-0.010293   -0.014191   -0.025884    -0.10676    -0.16977    -0.11228   -0.048296
-0.0041217   -0.018088   -0.029132   -0.091495    -0.17075    -0.09929   -0.032055
-0.0060706    -0.02361   -0.021986   -0.073955    -0.14769   -0.082725   -0.018088
-0.014191   -0.028157   -0.008669   -0.060313    -0.11228   -0.064211  -0.0050961
-0.024585    -0.03173   0.0026992   -0.057715   -0.077528   -0.047321   0.0046481
-0.030106    -0.03173   0.0075714   -0.062587   -0.050244   -0.034004   0.0069217
-0.025559   -0.027833   0.0062721    -0.06616   -0.021986   -0.024909   0.0017248
-0.011267   -0.021337  0.00010078   -0.063237    0.012443   -0.019388  -0.0031473
0.0052977   -0.013541  -0.0080194   -0.057065    0.054019   -0.016789  -0.0037969
0.013093  -0.0067202   -0.011917   -0.049595     0.09397   -0.018088      0.0014
0.013418   0.0017248  -0.0096434   -0.037902      0.1206   -0.021661    0.010819
0.011794    0.012443 -0.00054884   -0.022636     0.12125   -0.021986    0.022188
0.0088706    0.025111    0.012443   -0.010943     0.10112   -0.016464    0.031932
0.0033489    0.036154    0.022188   -0.007045    0.067661  -0.0034721    0.036804
-0.0044465    0.042975    0.024137   -0.008669    0.028359    0.015367    0.036479
-0.0083442    0.044275    0.016991   -0.012242   -0.013866    0.033556    0.033881
-0.0073698    0.041351   0.0075714    -0.01549   -0.050244    0.042651    0.029333
-0.0015233    0.038428   0.0017248   -0.013541   -0.073955    0.039078    0.021538
0.0036737    0.037454   0.0036737  -0.0083442     -0.0837    0.028684    0.012768
0.0059473    0.034855    0.009845  -0.0024977     -0.0837    0.022512   0.0065969
0.0072465    0.032582    0.013743   0.0033489   -0.080776    0.024786   0.0049729
0.0091954    0.033556    0.011144   0.0088706   -0.076879     0.03583    0.008221
0.015692    0.038428   0.0036737    0.014717   -0.075579    0.049796    0.014068
0.026085    0.042651  -0.0054209    0.019914   -0.075255     0.06019    0.021538
0.034206    0.043625   -0.010293     0.02706   -0.073955    0.062139    0.032257
0.038428    0.039727   -0.007045    0.036154   -0.071357    0.053369    0.040377
0.035505     0.03583   0.0056225    0.043625   -0.070382    0.038428    0.042651
0.027385     0.03518    0.022188    0.044924   -0.073955    0.023812    0.042326
0.017316    0.038103    0.033881    0.042001   -0.081101    0.011794    0.040702
0.0059473    0.039727     0.03518    0.039402   -0.087922    0.003024    0.040052
-0.0047713    0.036154    0.024786    0.043625   -0.092145 -0.00087364    0.039727
-0.013866     0.02706   0.0091954    0.054344   -0.096692  -0.0018481    0.037129
-0.019388    0.017965 -0.00087364    0.066362    -0.09994  -0.0021729    0.033881
-0.020687    0.014392  -0.0018481    0.074157    -0.10286  -0.0018481    0.028034
-0.017439    0.014068   0.0026992    0.074157    -0.10156  -0.0024977    0.022512
-0.011267    0.011144   0.0069217    0.067986   -0.095393  0.00010078    0.021863
-0.0034721   0.0056225   0.0072465    0.060515     -0.0837   0.0039985    0.026735
-0.0028225  0.00010078   0.0062721    0.056292   -0.068758   0.0091954    0.033881
-0.008669  -0.0050961   0.0069217     0.05272   -0.046996    0.013418    0.038103
-0.015165  -0.0096434   0.0059473    0.048497   -0.016464    0.019589    0.039402
-0.019712   -0.011592   0.0062721    0.040702    0.024137    0.024786    0.034855
-0.020362   -0.008669    0.013743    0.032257    0.063763    0.030308    0.029009
-0.020687  -0.0050961    0.026085    0.025761    0.086824     0.03453    0.025761
-0.018413  -0.0015233    0.040052    0.026085      0.0865    0.040377    0.024786
-0.014516  -0.0015233    0.048172    0.033231    0.067011    0.044599     0.02706
-0.0080194  0.00042559    0.046548    0.040702    0.039078    0.042975    0.027709
-0.0031473   0.0095202    0.036479    0.042975    0.015042    0.033881    0.022512
-0.0021729    0.024786    0.024461    0.038428 -0.00022403    0.019264    0.012443
-0.0054209    0.039727    0.017965    0.027709  -0.0028225   0.0046481  -0.0011985
-0.011592    0.053369    0.019914    0.014392   0.0072465  -0.0080194   -0.013216
-0.019712    0.063113    0.028359    0.003024    0.028359   -0.016464   -0.022311
-0.026209    0.069934     0.03583  -0.0044465    0.054019   -0.021337   -0.025884
-0.028157    0.078704    0.038428  -0.0050961    0.083576    -0.02426    -0.02361
-0.022311    0.090722    0.037454  -0.0015233     0.11313   -0.026858   -0.018413
-0.0067202     0.10696    0.036804    0.008221     0.13587   -0.028482   -0.013866
0.015692     0.12353    0.037778    0.022512     0.14756   -0.028807   -0.013216
0.036479     0.13392    0.040377    0.038103     0.14789   -0.027833    -0.01484
0.045574     0.13262     0.04395    0.050121     0.14172   -0.027508   -0.014516
0.040377     0.11736    0.046223    0.055318     0.13067   -0.027833   -0.010943
0.024137     0.09462     0.04395    0.054019     0.11118   -0.025559  -0.0021729
0.0052977    0.067986    0.036804    0.047523     0.08585   -0.019388     0.01017
-0.011267    0.042975    0.025761    0.034206    0.059216   -0.011917    0.023487
-0.021986    0.022837    0.011144    0.014717    0.032257  -0.0057458    0.030633
-0.025559   0.0078962  -0.0037969  -0.0018481   0.0065969  -0.0037969    0.033881
-0.019388  -0.0041217   -0.015815  -0.0073698   -0.016464   -0.010618    0.036479
-0.007045   -0.012567   -0.028482  -0.0037969   -0.035953   -0.021012    0.041027
0.0062721   -0.019063   -0.040175   0.0056225   -0.052843   -0.030431    0.045899
0.012768   -0.025559   -0.048945    0.014068   -0.065835   -0.034004    0.048172
0.016341    -0.03303   -0.051868    0.016016   -0.071032   -0.029782    0.048822
0.020239   -0.042774   -0.050894    0.011144   -0.068758   -0.017114    0.052395
0.025761   -0.050894   -0.046671    0.003024   -0.060963  -0.0018481    0.056617
0.02706   -0.052843   -0.039851  -0.0054209   -0.052843     0.01017    0.057917
0.022837   -0.044398   -0.028482   -0.013541    -0.04992    0.018615    0.053694
0.015042   -0.025559    -0.01549   -0.021661   -0.052193    0.019589    0.045574
0.0014  -0.0031473  -0.0024977   -0.027183   -0.057715    0.011144    0.038428
-0.011917    0.015042   0.0085458   -0.028807   -0.060313  -0.0050961     0.03453
-0.013216    0.028684    0.013418   -0.027183    -0.05739   -0.018738     0.03453
-0.0044465     0.03518    0.011144    -0.02426   -0.050569   -0.021337     0.03453
0.0062721     0.03453   0.0026992   -0.021661   -0.047321   -0.013866     0.03453
0.012443    0.028034  -0.0060706   -0.020037   -0.050244  -0.0050961    0.030308
0.015042    0.016991   -0.011592   -0.019712   -0.055441  -0.0018481    0.021863
0.012768   0.0039985   -0.011917   -0.017764   -0.058365  -0.0041217    0.012119
0.0078962  -0.0063954   -0.012892   -0.014191   -0.053817  -0.0093186    0.008221
0.0056225   -0.013541   -0.017114   -0.011267   -0.043748   -0.010293   0.0085458
0.0095202    -0.01484   -0.023935  -0.0083442   -0.030431  -0.0067202   0.0078962
0.016666   -0.011592   -0.026209   -0.007045   -0.016789  -0.0021729   0.0052977
0.018615  -0.0067202   -0.019388  -0.0067202  -0.0099683  0.00075039  0.00042559
0.0095202  -0.0015233  -0.0080194  -0.0044465   -0.011592   0.0010752  -0.0050961
-0.0057458   0.0023744   0.0023744   0.0010752   -0.017114 -0.00022403   -0.010618
-0.019712   0.0049729   0.0046481    0.011469   -0.024585  -0.0021729   -0.013866
-0.033354   0.0043233  -0.0041217    0.021538   -0.029782  -0.0021729   -0.016789
-0.042124   0.0010752    -0.01549    0.025761   -0.034329  -0.0037969   -0.018088
-0.043748  -0.0044465   -0.025884    0.025436   -0.038227  -0.0089938   -0.018738
-0.033679   -0.011592   -0.033354    0.021863   -0.042124   -0.015165   -0.016789
-0.018413   -0.021661   -0.035628    0.017965   -0.048945   -0.017764    -0.01614
-0.0011985   -0.028482   -0.034654    0.013418   -0.055116   -0.017439   -0.016789
0.011144   -0.031081   -0.032055   0.0078962   -0.056741   -0.015165   -0.021337
0.016991   -0.028807   -0.028807   0.0036737   -0.052843  -0.0096434   -0.029457
0.015042   -0.022311   -0.025884      0.0014   -0.044398  -0.0015233   -0.036278
0.0072465    -0.01549   -0.025884  -0.0041217   -0.035303  0.00075039   -0.037902
-0.0044465   -0.010293   -0.028807  -0.0096434   -0.026858  -0.0054209   -0.038876
-0.014516  -0.0089938    -0.03173   -0.016464   -0.017764   -0.017114   -0.041799
-0.017764  -0.0096434    -0.03238   -0.024585   -0.014516   -0.030431   -0.046022
-0.01484   -0.010618   -0.029132   -0.033679   -0.017764   -0.038551   -0.046022
-0.0089938   -0.011917   -0.026209   -0.039851   -0.023935   -0.039851   -0.037577
-0.0063954   -0.010943    -0.02361   -0.042774   -0.025559   -0.036278   -0.025884
-0.0054209  -0.0080194   -0.019388   -0.042124   -0.022636   -0.034654   -0.020362
-0.0060706  -0.0047713   -0.012892     -0.0405   -0.015815   -0.038551   -0.024909
-0.0080194  -0.0018481  -0.0037969   -0.041799  -0.0089938   -0.050244   -0.036278
-0.0089938   0.0023744   0.0069217   -0.041799  -0.0041217   -0.061613   -0.047321
-0.0050961   0.0072465    0.014068   -0.038551  -0.0021729   -0.066485   -0.049595
-0.00022403    0.014392    0.014717   -0.027508  -0.0034721   -0.062262    -0.04115
0.0036737    0.022837   0.0069217   -0.010618  -0.0057458   -0.050894   -0.028482
0.0043233    0.029658  -0.0041217   0.0052977   -0.007045   -0.037252   -0.018738
0.00075039    0.029333   -0.011592   0.0091954  -0.0063954   -0.022636    -0.01614
-0.0076946    0.020564    -0.01484   0.0052977  -0.0080194   -0.012892   -0.019388
-0.016789   0.0095202   -0.017114  -0.0028225   -0.013541   -0.012242   -0.029132
-0.024585   0.0023744   -0.018088  -0.0099683   -0.018738   -0.019063   -0.042774
-0.027833  -0.0028225   -0.017439   -0.017764   -0.018088   -0.030431   -0.056091
-0.025234  -0.0083442   -0.014191   -0.026858   -0.011592    -0.04115   -0.063237
-0.020687   -0.013216  -0.0067202    -0.03238  -0.0057458   -0.046996   -0.064211
-0.017764    -0.01484   0.0020496   -0.029782  -0.0031473   -0.043748   -0.056091
-0.01549  -0.0099683    0.008221    -0.01549  -0.0011985    -0.03238   -0.041799
-0.013216 -0.00054884   0.0072465   0.0072465   0.0017248   -0.017114   -0.024585
-0.0099683   0.0075714  0.00075039    0.031932   0.0085458  -0.0018481   -0.011917
-0.007045    0.011469  -0.0080194    0.049147    0.016016    0.011794  -0.0080194
-0.0060706   0.0085458   -0.016464    0.056292    0.020888    0.023812  -0.0089938
-0.0054209    0.003024   -0.020362    0.055968    0.026085    0.033231   -0.010618
-0.0060706  -0.0028225   -0.021337    0.053044    0.033556    0.038753   -0.010293
-0.008669  -0.0067202   -0.021012    0.049147    0.043625    0.042651  -0.0067202
-0.0093186   -0.010618   -0.022636    0.043625    0.054019    0.048172 -0.00054884
-0.0080194   -0.013216   -0.025234    0.037129     0.06019    0.052395   0.0052977
-0.008669   -0.011917   -0.026209    0.030957     0.06084    0.056292   0.0072465
-0.0093186  -0.0063954   -0.022961    0.025436    0.062464    0.057592   0.0062721
-0.0080194   0.0026992   -0.019712     0.01894    0.070584    0.054344   0.0072465
-0.0060706    0.014068   -0.020687    0.012443    0.085525    0.048172    0.012443
-0.0021729    0.022837   -0.026533   0.0065969    0.098193    0.041027    0.021213
0.0039985    0.027385   -0.034654   0.0046481    0.093321    0.031932    0.028034
0.012443     0.02706   -0.039201   0.0078962    0.062789    0.022188    0.031932
0.018615    0.021538   -0.038227    0.012443    0.008221    0.015042    0.030308
0.020564    0.010819   -0.031081    0.015692   -0.054142    0.015042    0.025436
0.017965 -0.00022403   -0.020362    0.015692    -0.10903    0.018615    0.021538
0.015692  -0.0096434  -0.0099683    0.009845    -0.14249    0.022837    0.021538
0.014717   -0.014191  -0.0024977 -0.00022403    -0.15223     0.02706    0.021213
0.014717   -0.012242 -0.00054884  -0.0044465    -0.13924    0.031282    0.018615
0.017316   -0.008669  -0.0031473 -0.00087364    -0.11098    0.034206    0.013743
0.021538  -0.0050961  -0.0018481   0.0069217    -0.07428    0.034206   0.0095202
0.027709  -0.0054209   0.0036737    0.011144   -0.039851    0.030308    0.010495
0.034206   -0.007045    0.014068    0.015692    -0.01549    0.022188    0.017965
0.038428  -0.0067202    0.026085    0.022512  -0.0047713    0.016016    0.029009
0.039727  -0.0037969     0.03583    0.029009  -0.0031473    0.013093    0.038753
0.037778  -0.0028225    0.042001    0.032257  -0.0047713    0.011144    0.038103
0.031932  -0.0031473    0.044275    0.033231  -0.0054209     0.01017    0.030633
0.021863   -0.007045    0.040702    0.030633  -0.0015233     0.01017    0.022837
0.012443   -0.013541    0.032906    0.023812   0.0085458   0.0088706     0.01829
0.01017   -0.019063    0.022837    0.017316    0.020564   0.0072465    0.017316
0.01894   -0.020362    0.013093    0.012443    0.034855   0.0046481    0.019264
0.036804   -0.014191   0.0056225    0.010495    0.049147   0.0017248    0.025761
0.054668 -0.00022403   0.0020496   0.0091954    0.060515  -0.0021729    0.032906
0.066037     0.01829   0.0043233    0.012443    0.066686  -0.0028225    0.038428
0.067661    0.031932    0.011469    0.022188    0.067661  -0.0047713    0.044924
0.061165    0.036479    0.021863    0.037454    0.063113  -0.0041217    0.049796
0.050446    0.030633    0.030308    0.050446    0.057592   0.0043233    0.051096
0.037778    0.020239     0.03453    0.058566    0.054668    0.020564    0.049472
0.02641   0.0075714     0.03518    0.062139    0.050121    0.036479    0.046548
0.017316  -0.0028225    0.034855    0.060515      0.0433    0.044275    0.042326
0.010819  -0.0080194    0.032582    0.051745    0.032906    0.044275    0.036479
0.0020496  -0.0063954    0.023162    0.041351    0.022512    0.038428     0.02706
-0.0054209 -0.00054884   0.0085458    0.029009    0.015692    0.027709    0.021213
-0.012242    0.008221   -0.007045     0.01829    0.016341    0.014392    0.017965
-0.016464    0.015692   -0.017764    0.012119    0.022188    0.003024    0.013093
-0.01484    0.016991   -0.022311     0.01017    0.029009   -0.007045   0.0052977
-0.011592    0.016341   -0.018738   0.0095202    0.030957   -0.013541  -0.0031473
-0.0089938    0.017965  -0.0063954   0.0091954    0.030633    -0.01549  -0.0099683
-0.0050961    0.022512   0.0085458   0.0091954    0.026735   -0.015165   -0.010618
0.0017248    0.027709     0.01894   0.0088706     0.01829    -0.01549  -0.0050961
0.0088706    0.033556    0.021538   0.0069217   0.0059473   -0.020362   0.0056225
0.010819    0.037454     0.01764   0.0020496  -0.0073698   -0.028482    0.017316
0.008221    0.034206   0.0091954  -0.0011985    -0.01484   -0.037252    0.020564
0.0046481    0.026085    0.003024  -0.0011985  -0.0093186   -0.043423    0.017965
0.0052977     0.01829   0.0017248   0.0017248   0.0072465   -0.045047    0.011794
0.0088706    0.013743      0.0014   0.0075714    0.026735     -0.0405   0.0052977
0.0078962    0.014068  -0.0021729    0.015042    0.040702   -0.032705      0.0014
0.00042559    0.016666  -0.0083442    0.020564     0.04395   -0.023935  -0.0024977
-0.0093186    0.019264   -0.010293    0.022512    0.032582   -0.020037  -0.0063954
-0.012892    0.019914  -0.0063954    0.017965    0.013743   -0.016789   -0.010943
-0.0067202     0.01829  -0.0018481   0.0078962  -0.0063954   -0.012567   -0.012242
0.003024    0.013093 -0.00087364  -0.0031473   -0.020687  -0.0063954  -0.0083442
0.0078962   0.0065969  -0.0021729  -0.0093186   -0.026533  -0.0037969  -0.0015233
0.0062721 -0.00022403  -0.0021729  -0.0067202   -0.026533   -0.010618   0.0062721
-0.00054884 -0.00087364 -0.00022403   0.0052977   -0.026858   -0.027183     0.01017
-0.011267   0.0046481 -0.00054884    0.019264    -0.03173   -0.052518   0.0069217
-0.029782    0.009845  -0.0044465    0.028359   -0.040175   -0.079477 -0.00087364
-0.053817    0.012443   -0.011267    0.030308   -0.050569   -0.097341  -0.0067202
-0.072656     0.01017   -0.018088    0.028684   -0.065835   -0.097017  -0.0067202
-0.078178   0.0049729    -0.02361    0.024137   -0.084349   -0.077853  -0.0050961
-0.070058  -0.0037969   -0.025884    0.018615   -0.097991   -0.048945  -0.0060706
-0.052843   -0.008669   -0.029132    0.013093    -0.10124   -0.025234  -0.0083442
-0.034004   -0.010618   -0.031081   0.0039985   -0.096042   -0.010943   -0.012242
-0.018738   -0.013216    -0.03238  -0.0063954   -0.086948  -0.0060706    -0.01614
-0.010293   -0.018738   -0.031081   -0.015815   -0.079152   -0.010618   -0.019712
-0.0073698   -0.025559   -0.028482    -0.01614   -0.073955   -0.018738   -0.017439
-0.0093186   -0.030431   -0.027183  -0.0076946   -0.072981    -0.02361   -0.011592
-0.01614   -0.029457   -0.024585    0.003024   -0.072006   -0.021337  -0.0044465
-0.022636   -0.022636   -0.023285    0.014392   -0.067459   -0.014191   0.0023744
-0.021661   -0.013216   -0.022961    0.019914   -0.062912   -0.007045   0.0049729
-0.014516  -0.0050961   -0.025559     0.01894   -0.060963  -0.0034721   0.0095202
-0.0044465  0.00010078   -0.027833    0.015692   -0.064211  -0.0057458    0.015042
0.0043233      0.0014   -0.027833    0.012443   -0.070058   -0.012242    0.021213
0.0075714  0.00075039   -0.022961    0.013093   -0.077203   -0.020362    0.027385
0.0052977  -0.0018481   -0.013866     0.01764     -0.0824   -0.028807    0.032257
0.003024  -0.0050961  -0.0018481    0.020239   -0.078178   -0.034978    0.035505
0.0020496   -0.007045   0.0069217    0.017965   -0.064861   -0.034978    0.037778
0.0075714  -0.0067202   0.0088706   0.0095202   -0.046996   -0.027183    0.036479
0.016991  -0.0057458   0.0036737  -0.0028225   -0.029457   -0.017764    0.032906
0.024786  -0.0034721  -0.0037969    -0.01484    -0.01484    -0.01549    0.028684
0.029983  -0.0021729   -0.010618   -0.021661  -0.0021729   -0.022636    0.024137
0.028684  -0.0021729   -0.015165   -0.020362    0.012119   -0.034978    0.018615
0.022512  -0.0024977   -0.016789   -0.013866    0.033881   -0.040175    0.013093
0.015367  -0.0021729   -0.017439  -0.0028225    0.065387   -0.035303   0.0078962
0.0091954  -0.0018481   -0.014516   0.0043233    0.098842   -0.025234   0.0036737
0.0052977  -0.0031473  -0.0076946   0.0065969     0.12093   -0.015165      0.0014
0.0026992  -0.0031473 -0.00054884   0.0026992     0.12223  -0.0089938 -0.00054884
0.003024  -0.0047713   0.0023744  -0.0044465     0.10371   -0.008669  -0.0024977
0.0043233  -0.0050961   0.0026992   -0.012892    0.075131   -0.014516  -0.0067202
0.0049729  -0.0031473   0.0043233   -0.021012    0.046548   -0.022311    -0.01484
0.0020496 -0.00022403   0.0072465   -0.025559    0.021863   -0.028807   -0.027508
-0.0054209      0.0014     0.01017   -0.025884   0.0010752   -0.027833   -0.038551
-0.017114  0.00075039    0.013418   -0.021986   -0.010943   -0.019388   -0.041475
-0.026209  -0.0011985     0.01829   -0.014516   -0.013541   -0.008669   -0.037902
-0.031081  -0.0034721     0.01894  -0.0060706   -0.011917   0.0017248   -0.028157
-0.03303  -0.0037969    0.013093  -0.0011985  -0.0073698   0.0091954   -0.018088
-0.03303  -0.0044465   0.0039985  -0.0011985 -0.00087364    0.014717   -0.015165
-0.026209  -0.0037969  0.00042559  -0.0047713   0.0052977    0.017316   -0.018738
-0.015165  -0.0028225   0.0078962  -0.0096434    0.010819    0.017965    -0.02426
-0.0050961  -0.0015233    0.024137   -0.014516    0.017316    0.017316   -0.027508
-0.0024977  0.00042559    0.039402   -0.017764    0.025761    0.016666   -0.026858
-0.007045  -0.0021729     0.04395   -0.014191     0.03583    0.016991    -0.02361
-0.012892   -0.008669     0.03583  -0.0050961     0.04395    0.016341   -0.018413
-0.018413    -0.01614    0.023812   0.0056225    0.051096    0.011144   -0.013866
-0.020362   -0.021986    0.016016    0.013418    0.059541    0.003024   -0.011917
-0.018738   -0.024909    0.015367     0.01764    0.069285  -0.0096434    -0.01614
-0.01549   -0.023285    0.019589    0.016341    0.084876   -0.022636   -0.025234
-0.0096434   -0.017114    0.020888   0.0095202     0.10826   -0.031406   -0.034004
-0.0041217   -0.008669     0.01894  -0.0011985     0.13587   -0.035953   -0.039201
-0.0054209  -0.0015233    0.011794    -0.01484     0.15958   -0.039851   -0.039851
-0.014191   0.0072465   0.0010752   -0.024585     0.17062   -0.040825   -0.035303
-0.028482    0.019264   -0.008669   -0.029132     0.16575   -0.037252   -0.027508
-0.037577    0.029009   -0.011592   -0.027508     0.14009   -0.027183   -0.016464
-0.037902    0.034855  -0.0044465   -0.025884    0.092996   -0.015815  -0.0050961
-0.028807     0.03518    0.010819   -0.026533    0.027385  -0.0089938   0.0023744
-0.013866    0.037129    0.023812   -0.029457   -0.056091   -0.007045   0.0039985
-0.00022403    0.041676    0.027385   -0.031081    -0.16393   -0.007045 -0.00087364
0.0078962    0.049147    0.025436   -0.027508    -0.30392  -0.0080194   -0.010293
0.01017    0.052395    0.022837   -0.019388     -0.4699  -0.0099683   -0.023935
0.010819    0.047523    0.018615  -0.0093186    -0.63327   -0.010943   -0.039851
0.01017    0.031607    0.014717  -0.0015233    -0.75313   -0.011267   -0.050244
0.009845    0.013743    0.013093  -0.0011985    -0.79698   -0.010618    -0.04992
0.011144   0.0010752    0.011144  -0.0060706    -0.75735   -0.010943    -0.04115
0.015367  -0.0067202   0.0059473   -0.012567    -0.65374   -0.013216   -0.028157
0.019264   -0.010618  -0.0024977   -0.018088    -0.51342   -0.014516   -0.018088
0.019589   -0.013216   -0.010943   -0.023935    -0.36109   -0.017764   -0.012567
0.016991   -0.014191   -0.015815   -0.024909    -0.21817   -0.021661  -0.0096434
0.011144   -0.015165   -0.013866   -0.021661   -0.098641   -0.022636  -0.0044465
0.0043233   -0.016464  -0.0054209    -0.01484  -0.0044465   -0.019712   0.0017248
0.00075039   -0.015815   0.0062721  -0.0067202    0.067986    -0.01484   0.0062721
0.0039985   -0.013216    0.016666  0.00010078     0.12613   -0.011917   0.0069217
0.014392   -0.010293    0.022188   0.0033489     0.17517  -0.0093186   0.0088706
0.028034   -0.007045    0.020564   0.0036737     0.21805  -0.0054209     0.01764
0.037454 -0.00054884    0.013418   0.0010752     0.25085  0.00042559    0.029983
0.03583   0.0075714    0.008221  0.00010078     0.26644   0.0069217    0.038753
0.02641    0.013743    0.009845   0.0069217     0.26222    0.011469    0.041027
0.016666    0.014068     0.01764    0.021538     0.23721    0.011144    0.040052
0.012768    0.011144    0.023487    0.040377     0.19791   0.0095202    0.038103
0.010495     0.01017    0.023162    0.058891     0.15503   0.0069217    0.037778
0.009845   0.0095202    0.012443    0.070259     0.11866   0.0049729    0.039727
0.01017   0.0062721  -0.0037969    0.072208    0.097543 -0.00022403    0.041676
0.014392  0.00075039   -0.019388    0.064413     0.09462   -0.010618    0.045574
0.019914  -0.0037969   -0.026209    0.054019     0.10144   -0.022636    0.050446
0.022512  -0.0037969   -0.020687    0.045249     0.10956   -0.034004    0.055968
0.019589  0.00010078  -0.0083442    0.042001     0.11476   -0.040825    0.064413
0.015367   0.0062721  0.00075039    0.042651     0.11768   -0.040175    0.074806
0.013418    0.012443      0.0014    0.045899     0.11833   -0.029457    0.079679
0.014068    0.016341  -0.0067202    0.050771     0.11248   -0.011917    0.074157
0.01764    0.016341   -0.014516    0.051745     0.10014   0.0062721    0.057592
0.027385    0.012443   -0.016464    0.051745    0.083251     0.01764    0.037454
0.039402   0.0062721   -0.013216    0.049796     0.06831    0.024461    0.022188
0.048497   0.0052977  -0.0076946    0.045899     0.06084    0.027385    0.012768
0.052395    0.008221  -0.0054209    0.037129    0.063763    0.025436   0.0072465
0.049796    0.013743  -0.0076946     0.02706    0.072208    0.020564   0.0036737
0.042001    0.019914   -0.013866    0.020564    0.079679    0.013418   0.0033489
0.031282    0.023812   -0.021012    0.020239    0.080003   0.0095202   0.0078962
0.023162    0.026085   -0.023935    0.023812    0.072208   0.0088706    0.011794
0.01764     0.02641   -0.024585    0.025111    0.056617    0.010819    0.012443
0.015042    0.024786   -0.022961    0.020888    0.038103    0.015367    0.012443
0.016016    0.022512   -0.023285    0.011469    0.024786    0.015692    0.014717
0.01894    0.020888   -0.025234  0.00042559    0.017316    0.012119     0.01764
0.019589    0.019589   -0.027833  -0.0073698    0.016991   0.0059473    0.020564
0.017965    0.017965   -0.026209   -0.012892    0.019264  0.00042559    0.022837
0.015367    0.014717   -0.023935   -0.017764    0.021213  -0.0041217     0.01894
0.013418   0.0085458    -0.02426   -0.023935    0.021863  -0.0067202   0.0088706
0.013418 -0.00022403   -0.027508   -0.028157    0.018615  -0.0054209  -0.0083442
0.014392  -0.0076946   -0.032055    -0.02361   0.0069217  -0.0018481   -0.026858
0.012119   -0.013216   -0.035303   -0.011917   -0.011267  0.00042559   -0.043099
0.0078962   -0.015815   -0.037252    0.003024   -0.026209  -0.0024977   -0.049595
0.0033489   -0.017439   -0.037577    0.014068   -0.034978   -0.007045   -0.045372
0.0026992   -0.018088   -0.034654     0.01829   -0.040175   -0.010943   -0.032055
0.0069217   -0.016789   -0.029457    0.016666   -0.038227   -0.011917   -0.014191
0.016666   -0.010943   -0.020037    0.012768   -0.022636   -0.012567  0.00075039
0.02641 -0.00022403  -0.0063954   0.0095202    0.009845   -0.020687   0.0059473
0.027709    0.014392   0.0046481    0.008221    0.055318    -0.03303  0.00010078
0.021863    0.027385    0.010495   0.0088706    0.097543   -0.044723   -0.012242
0.012443     0.03583    0.010819    0.013418     0.12515   -0.055766   -0.020687
0.00075039    0.039078    0.008221    0.020888     0.13555   -0.060963   -0.023935
-0.0080194    0.036479   0.0052977    0.029983     0.12678   -0.061288   -0.017764
-0.01549    0.031282   0.0020496     0.03453     0.10501   -0.056741  -0.0067202
-0.023285     0.02706 -0.00087364    0.031607    0.074482    -0.04862  0.00010078
-0.028807    0.023812  -0.0037969    0.022188    0.044924     -0.0405  0.00010078
-0.030756    0.022188  -0.0060706    0.010495    0.021213    -0.03303  -0.0015233
-0.030431     0.01829  -0.0031473   0.0043233   0.0065969   -0.026858  -0.0011985
-0.032705    0.012443   0.0020496   0.0069217 -0.00087364   -0.021337 -0.00022403
-0.034654   0.0075714   0.0062721    0.015042  -0.0011985   -0.017114 -0.00087364
-0.034329    0.008221   0.0095202    0.022512 -0.00022403   -0.010943  -0.0037969
-0.029457    0.014068   0.0095202    0.024461  -0.0028225  -0.0021729  -0.0063954
-0.020687    0.023487   0.0056225    0.022188  -0.0076946   0.0062721  -0.0054209
-0.010618    0.033556  0.00010078    0.019264   -0.013541    0.013418  -0.0047713
-0.0021729    0.038428  -0.0037969    0.016991   -0.019712     0.01894  -0.0044465
0.0033489    0.037129   -0.007045    0.016016   -0.025884    0.026735  -0.0044465
0.0046481    0.032906  -0.0067202    0.016016   -0.030756     0.03518  -0.0037969
0.0026992    0.030633  -0.0024977     0.01764   -0.034978    0.042975  -0.0015233
-0.00022403    0.029658   0.0046481    0.020564   -0.036602    0.043625   0.0020496
-0.0047713    0.028359   0.0091954    0.025111   -0.037577     0.03453   0.0065969
-0.008669    0.024137   0.0091954     0.02706   -0.039851    0.022512    0.011469
-0.010618     0.01894   0.0059473    0.025761   -0.046347    0.013743    0.015692
-0.01549    0.016016   0.0039985    0.022188   -0.055766   0.0085458    0.016991
-0.021337     0.01894   0.0046481    0.016016   -0.060963   0.0036737    0.014717
-0.028157    0.026735   0.0088706   0.0095202   -0.057065 -0.00022403   0.0078962
-0.032055    0.036479    0.011144   0.0065969   -0.047321  -0.0024977   0.0026992
-0.034004     0.04395   0.0085458   0.0088706    -0.04115  -0.0018481   0.0043233
-0.035303    0.049472 -0.00054884    0.013093   -0.043099  0.00075039    0.013743
-0.036278    0.048822  -0.0076946    0.012119   -0.049595      0.0014    0.025761
-0.037252    0.041676   -0.007045   0.0065969   -0.056091 -0.00022403    0.033556
-0.0405    0.030633   0.0017248   0.0017248   -0.061613  -0.0037969    0.033231
-0.046996    0.020564    0.011469  0.00010078   -0.070058  -0.0067202    0.026735
-0.053168    0.015042     0.01894 -0.00054884   -0.082076   -0.007045    0.014717
-0.058365    0.012443     0.01764  0.00010078   -0.092794  -0.0067202   0.0023744
-0.059014    0.010819    0.010819   0.0036737    -0.10124  -0.0073698  -0.0057458
-0.056416     0.01017  0.00010078   0.0056225    -0.10838  -0.0073698  -0.0057458
-0.049595   0.0095202  -0.0099683   0.0033489    -0.11748  -0.0076946  0.00075039
-0.0405   0.0059473   -0.015815  -0.0050961    -0.12592  -0.0093186   0.0085458
-0.03303  0.00010078   -0.018088   -0.018738     -0.1321   -0.008669    0.012119
-0.027833  -0.0050961   -0.018413   -0.030431    -0.13177  -0.0083442    0.014068
-0.022311  -0.0080194   -0.018738   -0.035303    -0.12365   -0.010293    0.015367
-0.011267  -0.0089938    -0.01549   -0.032055    -0.10611   -0.014191    0.014392
0.0069217  -0.0093186  -0.0089938   -0.022961   -0.084674   -0.019388   0.0085458
0.02641   -0.012567  -0.0028225   -0.012242    -0.06551   -0.024585   0.0023744
0.043625    -0.01614   0.0010752  -0.0050961   -0.055116   -0.028807 -0.00022403
0.05272   -0.021012  0.00010078  -0.0018481   -0.058689   -0.033354  0.00075039
0.051745   -0.023935  -0.0050961  -0.0021729   -0.074605   -0.039201  0.00075039
0.047198    -0.02361   -0.010943  -0.0047713   -0.094418    -0.04927  -0.0011985
0.042001   -0.022636   -0.014516   -0.013541    -0.10903   -0.062912  -0.0060706
0.037778   -0.023285   -0.013866   -0.024909    -0.10871   -0.074605   -0.014516
0.03518   -0.023935  -0.0096434   -0.032055    -0.09117   -0.079477    -0.02361
0.031607    -0.02361  -0.0011985   -0.027183   -0.060963   -0.074605   -0.029457
0.026085   -0.021986   0.0095202    -0.01549   -0.027183   -0.063561   -0.027508
0.019589    -0.01549     0.01764  -0.0011985   0.0033489   -0.052193   -0.023935
0.015367  -0.0057458    0.021213    0.011794    0.032257   -0.041799   -0.018738
0.017316   0.0039985    0.022837    0.020239    0.058566   -0.034329   -0.015815
0.021538    0.010819    0.028034    0.024137    0.075131   -0.031406   -0.013216
0.023162    0.012768    0.036479    0.025111    0.078379   -0.029457   -0.012892
0.022188   0.0075714    0.040052    0.023487    0.064088   -0.025884    -0.01549
0.019914  -0.0031473    0.036154    0.018615     0.03453   -0.018738   -0.019063
0.017316   -0.013866    0.029983    0.013418  -0.0028225  -0.0089938   -0.020037
0.010495   -0.020362    0.025111   0.0075714   -0.034978  -0.0063954   -0.014191
0.0023744   -0.020687    0.021863   0.0026992   -0.055441   -0.011917  -0.0024977
-0.0044465   -0.019712    0.014392  -0.0021729   -0.063886   -0.023935    0.008221
-0.0080194   -0.019388   0.0023744  -0.0047713   -0.064211   -0.035953    0.014068
-0.0089938   -0.022636   -0.012892  -0.0054209   -0.064211   -0.043099    0.015367
-0.008669   -0.025559   -0.022311  -0.0060706    -0.06616   -0.043748    0.016991
-0.0080194   -0.027508   -0.024909  -0.0054209    -0.06616   -0.042449    0.019914
-0.011917   -0.025559   -0.022636  -0.0018481   -0.060963   -0.039201    0.023812
-0.021012   -0.020362   -0.018413   0.0056225   -0.050894   -0.035628    0.025761
-0.03303   -0.016789   -0.013216    0.012443   -0.033354   -0.034004    0.023812
-0.037577    -0.01614  -0.0099683    0.015692  -0.0089938    -0.03303    0.021538
-0.034978   -0.019388   -0.010293     0.01829    0.016991   -0.030756    0.021213
-0.023935   -0.023935   -0.013216    0.020239    0.037454   -0.028157     0.02641
-0.0054209   -0.025234   -0.013541    0.019914    0.049796   -0.025559    0.031932
0.015692   -0.021012   -0.008669    0.016991    0.056617   -0.022636    0.032906
0.029333   -0.014191  0.00010078    0.011144    0.064737   -0.022311    0.028034
0.033556   -0.010618   0.0078962   0.0039985    0.078704    -0.02426    0.020239
0.030308  -0.0089938    0.010819  -0.0018481    0.098517   -0.026858    0.016016
0.019589   -0.011917    0.010495   -0.007045     0.11833   -0.025884    0.016341
0.0023744   -0.016789   0.0078962  -0.0073698     0.13327   -0.022961    0.019264
-0.013866   -0.020362 -0.00054884  -0.0037969     0.14042   -0.016789    0.020239
-0.02361   -0.020687   -0.012567   0.0036737     0.14042   -0.010293    0.019589
-0.028482   -0.018088   -0.021661    0.016016     0.13165  -0.0096434    0.016016
-0.030431   -0.015165   -0.021337    0.032257     0.10924   -0.012892    0.011144
-0.032705   -0.011267   -0.017764    0.047847     0.06961   -0.016789   0.0046481
-0.034654  -0.0031473   -0.016464    0.057917    0.015042   -0.019388  -0.0031473
-0.036602   0.0039985   -0.018738    0.061165   -0.044723   -0.021337   -0.011917
-0.040175   0.0075714   -0.018738    0.059541   -0.097991    -0.02361   -0.020037
-0.044398   0.0069217   -0.018413    0.053694    -0.13534   -0.021012   -0.024909
-0.043423   0.0075714   -0.020037    0.049147    -0.15126   -0.011592   -0.026533
-0.034329    0.010819   -0.024585    0.051745    -0.14834   0.0036737   -0.024909
-0.018413    0.015367   -0.029782    0.059541    -0.13177     0.01894   -0.022311
-0.0021729    0.019914   -0.034329    0.067986    -0.10676    0.030308   -0.019063
0.0085458    0.030633   -0.038551    0.068635   -0.076229    0.041676   -0.018738
0.011794    0.045574   -0.042124    0.058566   -0.043748    0.057592   -0.020687
0.0075714    0.055643   -0.046347    0.042001    -0.01484    0.068635   -0.020687
0.00075039    0.054344   -0.047646    0.019589   0.0036737    0.067661   -0.019712
-0.0057458    0.042326   -0.039201  -0.0073698   0.0091954    0.059865   -0.018738
-0.007045    0.029009   -0.019063   -0.030431   0.0062721     0.05142   -0.016464
-0.0047713    0.018615   0.0052977   -0.041799      0.0014    0.048497   -0.008669
-0.00022403    0.016016     0.02641   -0.039526  -0.0024977    0.051745   0.0036737
0.0072465    0.021538    0.038753   -0.030431  -0.0050961    0.057917    0.021213
0.018615    0.030957    0.046223   -0.020362   -0.007045    0.059865     0.03518
0.031607    0.039078    0.048822    -0.01614  -0.0057458    0.058241    0.041027
0.040052    0.040377    0.046873   -0.017114   0.0010752    0.053694    0.038753
0.041027    0.032906    0.041351   -0.018088    0.011794    0.049796    0.033881
0.040052    0.020564     0.03583    -0.01614    0.024137    0.047847    0.029658
0.041676   0.0095202    0.031282   -0.010293    0.039078    0.049796    0.025761
0.044599   0.0020496    0.027709 -0.00087364    0.049472    0.053694    0.023812
0.040377 -0.00054884    0.024137   0.0046481    0.050121    0.055968    0.026735
0.029983  -0.0011985    0.021213   0.0072465    0.037778    0.058566    0.037454
0.01764  -0.0018481    0.019264   0.0059473    0.021538    0.065387    0.048497
0.012768   0.0049729    0.013418  0.00010078    0.008221    0.081952    0.049796
0.01829    0.021538   0.0043233  -0.0073698  -0.0024977     0.10371    0.039727
0.031282    0.042001  -0.0047713   -0.012892   -0.011267     0.11963    0.026735
0.045574    0.059216   -0.008669   -0.013866   -0.016789     0.12028    0.021213
0.06019    0.067336  -0.0054209  -0.0080194   -0.021986     0.10761    0.023812
0.071558    0.067661    0.003024   0.0069217   -0.027183    0.086824    0.031932
0.075456    0.062789    0.014717    0.026735   -0.026209    0.067011    0.041027
0.072208    0.054344    0.024137    0.042651   -0.019712    0.050771    0.046548
0.065062    0.044924    0.027709     0.05272   -0.011917    0.037454    0.045899
0.057267    0.038103    0.025111    0.054344  -0.0080194    0.026735     0.03583
0.053044    0.034206    0.020564    0.046548   -0.010618    0.017965    0.021213
0.054019    0.033231     0.01894    0.031282   -0.017114    0.010819    0.011469
0.055318    0.031282    0.022188    0.014068   -0.025559   0.0036737   0.0069217
0.050771    0.028359    0.025761   0.0039985   -0.033679  -0.0037969   0.0039985
0.037778    0.021538     0.02706      0.0014   -0.038876   -0.011917   0.0026992
0.021213    0.015692    0.024786   0.0052977   -0.031406   -0.020362   0.0026992
0.0085458    0.011144    0.015367    0.008221  -0.0021729   -0.029457   0.0052977
0.0052977   0.0091954   0.0020496    0.011794    0.040377   -0.032055   0.0088706
0.013743    0.014717   -0.010293    0.013093    0.081303   -0.021337   0.0095202
0.032906    0.027385    -0.01614   0.0095202     0.10339   0.0017248   0.0091954
0.054993    0.042326    -0.01484   0.0033489     0.10014    0.024786    0.009845
0.069934    0.051096  -0.0057458  -0.0041217    0.074482    0.034206    0.011144
0.06961    0.050446   0.0072465  -0.0083442    0.039402    0.030957    0.011144
0.057917    0.040702    0.014068  -0.0096434   0.0062721    0.021863   0.0052977
0.043625    0.028359    0.011469   -0.008669   -0.018088    0.013093  -0.0073698
0.033556     0.01764 -0.00054884  -0.0037969   -0.030431   0.0088706    -0.02361
0.029009    0.010495   -0.014516   0.0049729   -0.030431     0.01017   -0.036927
0.026735   0.0069217   -0.026858    0.012443    -0.02426    0.012768   -0.043748
0.020239   0.0072465   -0.034329    0.013743   -0.015165    0.012443   -0.047971
0.012768   0.0078962   -0.038876   0.0078962  -0.0073698    0.011469   -0.052193
0.0062721   0.0059473   -0.039201 -0.00087364 -0.00022403    0.012443   -0.052843
0.00075039   0.0010752   -0.039526  -0.0041217   0.0059473    0.016666    -0.04927
-0.0028225  -0.0041217   -0.038876  -0.0031473    0.013743    0.024461   -0.043423
-0.0031473  -0.0067202   -0.034004  -0.0015233    0.020888    0.028684   -0.038551
0.0033489  -0.0034721   -0.025884  -0.0018481    0.025111    0.022837   -0.035303
0.012443   0.0039985   -0.019388  -0.0057458    0.027709    0.013093   -0.034654
0.019589    0.017316   -0.020037   -0.011592     0.02641   0.0065969   -0.037252
0.02641    0.039402   -0.029782   -0.013866    0.021863    0.013418   -0.042774
0.029333    0.063438   -0.038227  -0.0089938    0.015042    0.029983   -0.045372
0.026735     0.07708    -0.03303  0.00075039    0.012443    0.045574   -0.039851
0.021213     0.07708   -0.012242   0.0078962    0.017965    0.050121   -0.030431
0.01764    0.067336    0.011794   0.0095202    0.031607    0.045249   -0.017764
0.016341    0.053369    0.030633   0.0059473    0.048822    0.036154  -0.0034721
0.011144    0.041351    0.041351   0.0046481    0.067986    0.033881   0.0088706
0.0026992     0.03518    0.046548    0.011144    0.087474    0.038428    0.016666
-0.0034721    0.038753    0.050121    0.025761     0.10729    0.044924    0.021863
-0.0037969    0.046223    0.050771    0.041676     0.12807    0.046548    0.024137
-0.00087364    0.052395    0.047523    0.048497     0.14269    0.042326    0.024786
0.0026992    0.050121    0.037778    0.042651     0.13879    0.031932    0.024137
0.0043233    0.039727    0.023487    0.029658     0.10339    0.015042    0.024786
0.0072465    0.024461   0.0072465    0.016991    0.031282  -0.0063954    0.023812
0.0078962    0.009845  -0.0076946   0.0049729   -0.065186   -0.026209    0.016016
0.0020496  -0.0015233   -0.017764  -0.0037969    -0.16295   -0.037577 -0.00022403
-0.010943  -0.0073698   -0.022311  -0.0099683    -0.23701   -0.037577   -0.019712
-0.023285  -0.0099683   -0.021986   -0.011267    -0.27891   -0.032705   -0.033679
-0.030756   -0.011592   -0.017439  -0.0083442     -0.2867   -0.024585   -0.038227
-0.034004   -0.010618   -0.011917  -0.0060706    -0.26916   -0.021661   -0.038876
-0.037577   -0.008669   -0.008669  -0.0057458    -0.23603   -0.024909   -0.037252
-0.044723  -0.0073698  -0.0099683  -0.0060706    -0.19641   -0.034329    -0.03173
-0.055766  -0.0093186   -0.010943  -0.0067202    -0.15321   -0.042774    -0.02426
-0.066485   -0.014516   -0.011267  -0.0044465    -0.10676   -0.045372   -0.019388
-0.072981    -0.02361   -0.014191   0.0017248   -0.062912   -0.044073   -0.020037
-0.075579   -0.034654   -0.022311    0.012119   -0.021986   -0.041799   -0.022636
-0.075579   -0.045047   -0.035628    0.021538    0.015692    -0.04115   -0.024909
-0.07428   -0.054467   -0.046347    0.028684    0.048822   -0.046022   -0.027833
-0.072981   -0.061288   -0.049595    0.032257    0.073507   -0.054142   -0.034004
-0.073955   -0.057715   -0.044073    0.033556    0.088124   -0.064536   -0.041475
-0.079477   -0.046996    -0.03238    0.031282    0.090722   -0.072981   -0.045697
-0.087922    -0.03303   -0.021986    0.025436    0.076755   -0.073955   -0.044073
-0.093444   -0.019388   -0.015165     0.01829      0.0433   -0.065186   -0.035953
-0.094418  -0.0093186   -0.010293    0.013093  -0.0011985    -0.04927   -0.024585
-0.087922  -0.0037969 -0.00054884   0.0056225   -0.043748   -0.033354   -0.014516
-0.073631  -0.0011985    0.015692 -0.00087364   -0.070382   -0.024909  -0.0073698
-0.054467   0.0033489    0.038753  -0.0054209   -0.078827   -0.022311  -0.0024977
-0.035628    0.013418    0.066362  -0.0047713   -0.072331    -0.02426   0.0065969
-0.014516    0.030957    0.093321   0.0020496   -0.059989   -0.026858    0.021213
0.0043233    0.048172     0.11378    0.013418   -0.047971   -0.022636    0.038428
0.01764    0.056617     0.12223    0.022837   -0.042449   -0.012892     0.05207
0.023812    0.053694     0.11801    0.025111   -0.038227  -0.0047713    0.058241
0.020888      0.0433     0.10112    0.016341   -0.028157  -0.0050961    0.055318
0.0088706    0.029658    0.075781   0.0010752  -0.0073698   -0.012892    0.045249
-0.0073698    0.017316    0.049147   -0.017439    0.025436    -0.02361    0.033231
-0.024909   0.0062721    0.025761    -0.03303    0.071558    -0.03173     0.02641
-0.037902  -0.0031473   0.0075714   -0.044723      0.1245   -0.039526     0.02641
-0.045047   -0.008669  -0.0080194   -0.051868     0.17972   -0.048296    0.031932
-0.046347  -0.0093186   -0.018738   -0.052518     0.22844   -0.054467     0.03583
-0.044723   -0.010293   -0.021337   -0.045372     0.26742   -0.054792    0.034855
-0.044398   -0.011917    -0.01484   -0.029132     0.28821   -0.046996    0.030633
-0.047971   -0.014191  -0.0060706   -0.010293     0.28626   -0.037902    0.022837
-0.056741   -0.020037 -0.00054884   0.0059473     0.26287   -0.034978    0.009845
-0.067134   -0.028157  -0.0024977    0.014068     0.22487   -0.041475  -0.0050961
-0.073631   -0.036278   -0.011592    0.013093     0.18102   -0.052193    -0.01614
-0.072981   -0.045047   -0.023935   0.0062721     0.14074   -0.063237   -0.023285
-0.063237   -0.053817   -0.032705   0.0010752     0.11151   -0.069408   -0.027833
-0.04992   -0.059664   -0.033679   0.0036737    0.098517   -0.069733   -0.030431
-0.039851   -0.061613   -0.027833    0.014717     0.10209   -0.064861   -0.031081
-0.035303   -0.059989   -0.020687    0.031932     0.11573    -0.05804   -0.028807
-0.032705   -0.055116   -0.018088    0.051745      0.1323   -0.055441   -0.020037
-0.027833   -0.047971   -0.021012     0.06961     0.14561   -0.060963  -0.0073698
-0.019388   -0.039201   -0.026209    0.079679     0.14951   -0.070382   0.0033489
-0.0096434   -0.030756   -0.032705    0.078704     0.13522   -0.077853   0.0069217
-0.00022403   -0.025559   -0.038551    0.068635    0.096893   -0.077528   0.0072465
0.0043233   -0.023285    -0.04115    0.056942    0.029983   -0.065835   0.0078962
0.0010752   -0.022636     -0.0405    0.048822   -0.063561    -0.04927   0.0091954
-0.0018481   -0.023935   -0.037252    0.046548    -0.18634   -0.036602    0.011469
-0.0024977   -0.025884    -0.03238    0.048822     -0.3416   -0.030106    0.015367
-0.0018481   -0.026858   -0.025884     0.05272    -0.51569   -0.030431    0.016016
0.00042559   -0.023935   -0.019388    0.054019    -0.66998   -0.034978    0.013093
0.0017248   -0.019712    -0.01484     0.05272    -0.76417     -0.0405    0.011469
0.00042559   -0.017439   -0.013866    0.048172    -0.77262   -0.044398    0.016341
-0.00022403   -0.018738   -0.013541    0.041027    -0.70148   -0.046347    0.028034
0.00042559   -0.021661   -0.010943    0.036154    -0.57676   -0.046347    0.042001
0.00075039   -0.025234  -0.0063954    0.034206    -0.42994   -0.045047    0.050771
0.00075039   -0.027508  -0.0063954    0.034206     -0.2906    -0.04115    0.050771
0.0043233   -0.027833   -0.014191     0.03583    -0.17952   -0.037252    0.047847
0.013093   -0.029132   -0.028157    0.033231    -0.10156   -0.033354    0.045574
0.024461   -0.030106   -0.045047    0.025761   -0.052843   -0.028807    0.045574
0.030633   -0.028482   -0.059989    0.012768    -0.02426   -0.027833    0.046548
0.032257   -0.024585    -0.06551  -0.0015233   -0.011917   -0.033679    0.044924
0.032582   -0.020687   -0.061288    -0.01484   -0.012892   -0.044398     0.04395
0.031607   -0.017114   -0.050569   -0.025884   -0.020687   -0.054142    0.045249
0.027385   -0.010293   -0.037902   -0.033354   -0.026209   -0.060638    0.047198
0.025436 -0.00054884   -0.027508   -0.034654   -0.027183   -0.059339    0.045574
0.024137   0.0078962   -0.021661   -0.031406   -0.018738   -0.050894    0.040052
0.025436    0.013418   -0.019388   -0.025559  -0.0028225   -0.036927    0.030957
0.027385    0.015367   -0.018738   -0.018088    0.011144   -0.021337    0.022188
0.030957    0.014717   -0.016464   -0.012892    0.020239  -0.0080194    0.015042
0.034206    0.012443   -0.010618  -0.0096434    0.026085  -0.0047713    0.011144
0.036479   0.0088706  -0.0024977   -0.010618    0.034206   -0.015165    0.011794
0.03453   0.0049729   0.0078962   -0.013866    0.046873   -0.036602    0.011144
0.030957 -0.00054884    0.016016   -0.019388     0.06084   -0.063561   0.0046481
0.02641  -0.0060706     0.01894    -0.02426    0.071558   -0.088247  -0.0057458
0.023162   -0.012242    0.014068   -0.028157    0.080978    -0.10384   -0.014516
0.022837   -0.018413   0.0033489   -0.030106    0.090722    -0.10579   -0.021986
0.024137   -0.023285   -0.008669   -0.032055     0.10112   -0.098316   -0.026209
0.025111    -0.02361   -0.020362   -0.029782     0.10891   -0.085648   -0.028157
0.023487   -0.021661   -0.028482   -0.026858     0.10989   -0.071032    -0.03238
0.01894    -0.01614   -0.034004   -0.022961     0.10534   -0.058689   -0.037252
0.012119  -0.0083442    -0.03303   -0.021012    0.099167   -0.045047   -0.039526
0.009845 -0.00054884    -0.02361   -0.016789    0.095919   -0.031406   -0.037577
0.0075714   0.0052977   -0.012242   -0.012242    0.097218   -0.020037   -0.034004
0.0036737   0.0072465  -0.0034721  -0.0083442     0.10209   -0.014516    -0.03173
-0.0031473   0.0046481  0.00042559   -0.008669     0.10631   -0.011267    -0.03238
-0.011917   0.0010752  -0.0044465   -0.013866     0.10599   -0.008669    -0.03303
-0.018738  -0.0037969   -0.013866   -0.022311     0.10339  -0.0054209   -0.033354
-0.018088  -0.0093186   -0.022961   -0.030106     0.10047  -0.0015233   -0.033354
-0.008669   -0.012892   -0.027833   -0.037252    0.096893   0.0026992   -0.030431
0.0056225   -0.013216    -0.02426   -0.037902    0.091696   0.0069217   -0.022636
0.021213  -0.0099683    -0.01484   -0.031406    0.087149   0.0088706  -0.0096434
0.036479  -0.0031473  -0.0024977   -0.019712    0.083576    0.011794   0.0039985
0.048172   0.0072465    0.010819  -0.0067202    0.076431    0.016666    0.017316
0.051096    0.016991    0.022512   0.0052977    0.063113    0.022512    0.030633
0.044275    0.023487    0.029658    0.013743    0.047523     0.02706      0.0433
0.031282    0.025436    0.029333    0.020888     0.03518    0.025111    0.053694
0.019264    0.022512    0.022837    0.019914    0.028034    0.020564    0.057917
0.015692    0.018615    0.016666    0.014068    0.022512    0.014392    0.054344
0.020564    0.015042    0.016341   0.0085458    0.018615     0.01017    0.046873
0.029333    0.012768     0.01764   0.0049729    0.012119   0.0085458    0.036154
0.03583    0.011144    0.015367   0.0046481   0.0036737    0.010819    0.023812
0.039078   0.0095202   0.0095202   0.0046481  -0.0031473    0.015042    0.010819
0.037778   0.0072465   0.0017248   0.0033489  -0.0076946    0.019264  0.00075039
0.029658   0.0023744  -0.0067202   0.0010752  -0.0099683    0.021213  -0.0047713
0.016341  -0.0057458   -0.012242   0.0010752  -0.0099683    0.019589  -0.0057458
0.0033489    -0.01614   -0.015815   0.0059473  -0.0093186    0.014068  -0.0050961
-0.0041217   -0.022636   -0.018413    0.011794   -0.012567   0.0072465  -0.0015233
-0.0028225   -0.024585   -0.018738    0.016666   -0.019712 -0.00054884   0.0036737
0.0043233   -0.021012    -0.01549    0.017965   -0.025884  -0.0028225   0.0095202
0.014068   -0.012892   -0.011592    0.016016   -0.028157 -0.00022403    0.015692
0.025111  -0.0028225   -0.010293    0.016341   -0.026209 -0.00054884    0.023487
0.03453   0.0049729   -0.013866    0.023487   -0.021661  -0.0063954    0.031607
0.036804    0.009845   -0.017114     0.03453   -0.019388   -0.016464    0.033881
0.032906    0.012119   -0.022311    0.039727   -0.016789   -0.026533    0.029983
0.026085    0.010819   -0.026858     0.03518   -0.015815   -0.030431    0.025111
0.021538   0.0059473   -0.028807    0.024461    -0.01614   -0.029457    0.021213
0.019264  0.00042559   -0.027183    0.011469   -0.017439   -0.028157    0.019264
0.020888  -0.0018481   -0.023285   0.0065969   -0.020687   -0.029132     0.01829
0.023812  0.00075039   -0.018088    0.011469   -0.024585    -0.03238    0.019264
0.02641   0.0059473   -0.012892    0.020564   -0.028157   -0.035628    0.023162
0.02641    0.012768  -0.0018481    0.027709   -0.031081   -0.034978    0.029983
0.023812    0.023487    0.013093    0.031282   -0.035303   -0.026858    0.030957
0.01894    0.037454     0.02706    0.029333   -0.040825   -0.012242    0.024786
0.01764    0.048822    0.036804    0.023812   -0.042449   0.0062721    0.013743
0.019264    0.050771    0.037778    0.018615   -0.039201    0.025111   0.0017248
0.01894    0.044275    0.034206    0.016341   -0.029457    0.040052  -0.0093186
0.013093    0.031932    0.027385    0.016666   -0.018738    0.045899    -0.01614
0.0049729    0.021538     0.01829    0.021538   -0.012567      0.0433   -0.019063
0.0017248    0.014392    0.011144    0.030957   -0.011267    0.036804   -0.018738
0.0017248    0.012443    0.008221    0.037778  -0.0089938    0.030308   -0.019063
0.0010752    0.014717    0.013093    0.041027  -0.0024977    0.024786   -0.022636
-0.0021729    0.020564    0.022512    0.039078   0.0052977    0.022188   -0.031081
-0.007045    0.030633    0.031932    0.033881   0.0091954    0.019589   -0.041799
-0.015165    0.041027    0.038428    0.024786   0.0052977    0.016341   -0.052518
-0.021661    0.044275    0.041027    0.015367  -0.0073698    0.011469   -0.062912
-0.025234    0.038428    0.035505   0.0059473   -0.024909   0.0046481   -0.068434
-0.029132    0.025761    0.024461  -0.0031473   -0.038551  -0.0034721   -0.069408
-0.035628    0.011144    0.011469   -0.012567   -0.045372   -0.010618   -0.065186
-0.042124 -0.00022403  -0.0018481   -0.018413   -0.041799    -0.01614   -0.061288
-0.043423  -0.0060706   -0.011592   -0.018413   -0.029457   -0.019388   -0.059339
-0.038551  -0.0073698   -0.012242   -0.014516   -0.012242   -0.016464   -0.058365
-0.027183  -0.0011985   -0.007045   -0.011917   0.0075714  -0.0037969   -0.054467
-0.013216    0.010495  0.00010078   -0.014191    0.029658    0.013418   -0.050569
-0.0041217    0.023487   0.0091954   -0.017439    0.049796     0.02641   -0.047646
-0.0018481    0.032582    0.016991   -0.016789    0.061165    0.029983   -0.043748
-0.0018481    0.039727    0.022512   -0.012892    0.062139    0.028684   -0.033679
-0.0031473     0.04395    0.029009  -0.0089938    0.054668    0.023162   -0.020037
-0.0024977    0.042001     0.03583  -0.0093186    0.041351     0.01764  -0.0060706
0.0023744     0.03453    0.042326   -0.014191    0.026735    0.015042    0.008221
0.010495    0.024786    0.042975   -0.021661     0.01764    0.016016     0.01894
0.01764     0.01829    0.038428   -0.026533    0.012443    0.021538    0.024461
0.019264    0.017316    0.030633   -0.028157   0.0085458    0.028684    0.025761
0.013418    0.019589    0.023487   -0.024585   0.0017248    0.034206    0.022188
-0.00022403    0.021213    0.020239   -0.020037   -0.011592    0.037454    0.015042
-0.017439    0.022512    0.019589    -0.01614   -0.031081     0.03518   0.0069217
-0.027833    0.023812    0.022512   -0.017114   -0.053168    0.028359   0.0020496
-0.027183    0.023162    0.024137   -0.022311   -0.073306    0.022837   0.0020496
-0.01614    0.021863    0.024137   -0.024909   -0.083375    0.024786   0.0059473
0.00010078    0.022188    0.022837   -0.020362   -0.077203    0.033231   0.0095202
0.017316    0.028034    0.021863  -0.0073698   -0.054467    0.042975    0.014717
0.030633    0.036804    0.021213    0.010819   -0.025884    0.049796    0.022837
0.038753    0.044599    0.016991    0.030957  -0.0034721    0.049472    0.033231
0.040052    0.047523    0.010819    0.046873   0.0046481    0.046873    0.038103
0.038103    0.044924   0.0059473    0.053044  -0.0011985    0.048822    0.037129
0.038753    0.038753   0.0036737    0.047198   -0.011917     0.05272    0.029658
0.039402    0.033881   0.0023744    0.032257   -0.022311    0.056942    0.020888
0.038428    0.032582      0.0014    0.012768   -0.031081    0.055968    0.016016
0.031282    0.033881  -0.0044465  -0.0037969   -0.040175    0.048497    0.016016
0.01764    0.037454   -0.013866   -0.012567   -0.046022    0.036804     0.01894
0.00075039    0.041351   -0.023285   -0.013216   -0.044398    0.023487    0.021538
-0.0099683    0.046223   -0.029132  -0.0080194   -0.035953    0.016016    0.020239
-0.012242    0.050446   -0.029457  0.00075039   -0.027508    0.020239    0.015692
-0.0057458    0.050446    -0.02361    0.009845   -0.025884    0.030633    0.011144
0.0033489    0.045249    -0.01614    0.016016   -0.027508    0.040377    0.011469
0.010819    0.037454  -0.0093186     0.01894   -0.029457      0.0433    0.013418
0.015367    0.031282  -0.0050961    0.021213   -0.029132    0.038428    0.011794
0.016991    0.028034  -0.0060706    0.023162   -0.028482    0.027709    0.009845
0.012768    0.030633   -0.011267    0.023162   -0.028482    0.019914    0.010495
0.0014    0.036154   -0.018413    0.020239   -0.032705    0.014068    0.012119
-0.011267    0.041676   -0.023935    0.015692   -0.041475   0.0072465    0.014068
-0.022636    0.039727   -0.022311   0.0095202   -0.057065  0.00042559    0.016341
-0.033354    0.029983   -0.013866    0.003024   -0.074605 -0.00087364    0.014392
-0.040825    0.016666  -0.0076946  -0.0054209   -0.084674      0.0014    0.008221
-0.043423   0.0056225   -0.012242    -0.01484   -0.089546   0.0046481  0.00010078
-0.039851  -0.0015233   -0.025559   -0.022311   -0.092145   0.0046481  -0.0063954
-0.030756  -0.0060706   -0.042774   -0.025884   -0.089546  -0.0021729  -0.0076946
-0.022311  -0.0099683   -0.057065    -0.02361   -0.082076   -0.013216 -0.00022403
-0.021661   -0.013866   -0.064211   -0.011592   -0.072331   -0.025234    0.013743
-0.026858   -0.016789   -0.063561   0.0059473   -0.060638   -0.032705    0.027385
-0.037902   -0.020687   -0.059664    0.024786   -0.051544   -0.035303     0.03583
-0.050569   -0.023935   -0.054792    0.037778   -0.045372   -0.037252    0.033881
-0.058689   -0.025234   -0.052193    0.040052   -0.043748   -0.040175    0.024461
-0.057715   -0.025884   -0.047321    0.034206   -0.040175   -0.044073    0.010819
-0.052518   -0.028157   -0.038551    0.024786   -0.027183   -0.048296 -0.00054884
-0.046022   -0.028482   -0.027508    0.012443  -0.0021729   -0.052843  -0.0063954
-0.042124   -0.022961   -0.017764   0.0010752    0.031282   -0.051544  -0.0083442
-0.0405   -0.016789  -0.0067202  -0.0047713    0.063113   -0.043748  -0.0080194
-0.042124   -0.013866   0.0036737  -0.0021729    0.088124   -0.032055  -0.0063954
-0.045372   -0.017764    0.010819   0.0091954     0.10306   -0.020687  -0.0050961
-0.046671   -0.023935    0.012443    0.025761     0.10177   -0.011917  -0.0054209
-0.041475   -0.027833     0.01017    0.041027    0.086175   -0.007045   -0.007045
-0.031081   -0.025234    0.003024     0.05207     0.06019  -0.0083442   -0.008669
-0.021337   -0.018088  -0.0034721    0.054019     0.02706   -0.013541   -0.011267
-0.014191  -0.0093186  -0.0099683     0.05142  -0.0073698   -0.020687   -0.011267
-0.010618  -0.0021729   -0.011592    0.048172   -0.034004   -0.024585  -0.0037969
-0.0093186   0.0036737  -0.0047713    0.049472   -0.045697   -0.025234    0.011469
-0.010943    0.008221   0.0091954    0.053044   -0.043748    -0.02426    0.029658
-0.014516   0.0095202    0.025111     0.05272   -0.036927    -0.02426    0.044275
-0.017114    0.009845    0.035505    0.051096   -0.029457   -0.022961     0.05272
-0.013866   0.0069217    0.039078    0.048497   -0.019712   -0.021337    0.054993
-0.0047713 -0.00087364    0.037778    0.047198  -0.0067202   -0.019388     0.05207
0.0069217   -0.012892    0.035505    0.044275   0.0052977   -0.019388    0.041027
0.017965    -0.02426    0.031607    0.039078    0.011144   -0.021986    0.026735
0.023487   -0.028157    0.028034    0.031932   0.0085458    -0.02426    0.016016
0.024137   -0.028157    0.025436    0.019589  0.00010078   -0.023935    0.011144
0.020564   -0.027833    0.025436   0.0049729   -0.011917   -0.021986    0.011144
0.015367   -0.026533     0.02706  -0.0073698   -0.023935   -0.020687    0.015367
0.011144   -0.022961    0.027709   -0.015815   -0.035303   -0.023935    0.019914
0.010495   -0.019388    0.028684   -0.018413   -0.045047   -0.029132    0.016991
0.014717   -0.019712    0.030957   -0.016789   -0.052193   -0.035303    0.008221
0.021863    -0.02361     0.03453   -0.013541   -0.056416   -0.042449  -0.0044465
0.029333   -0.028157    0.038103  -0.0089938   -0.059014   -0.050244   -0.015815
0.031932   -0.031081    0.038753  -0.0067202   -0.062587   -0.059664   -0.023285
0.030957   -0.034329     0.03453  -0.0076946   -0.063886   -0.065835   -0.023935
0.026085   -0.039526    0.024137   -0.014191   -0.057715   -0.068758   -0.021986
0.014717   -0.042449   0.0075714    -0.02426     -0.0405   -0.072331   -0.021337
0.0036737   -0.039851   -0.011917   -0.033354   -0.019063   -0.077203   -0.022311
0.0036737   -0.035628   -0.021337   -0.038876  -0.0047713    -0.08305   -0.022311
0.016341   -0.031406   -0.019712   -0.038876  -0.0028225   -0.085973   -0.021986
0.030957   -0.028482   -0.013866    -0.03173  -0.0096434   -0.081426   -0.022311
0.037129   -0.028482   -0.012892   -0.020037   -0.017439   -0.070707   -0.025234
0.029333   -0.028807   -0.014516  -0.0083442   -0.016464   -0.061288   -0.027183
0.0075714   -0.029132   -0.015165  0.00075039    0.003024   -0.052193   -0.026209
-0.018738   -0.024585  -0.0099683   0.0075714      0.0433   -0.043423   -0.023285
-0.037577   -0.019712  -0.0031473    0.009845     0.10014   -0.033679   -0.019388
-0.044073   -0.018413   0.0023744   0.0078962     0.15731   -0.024585   -0.013866
-0.042449   -0.020037   0.0033489   0.0049729     0.20181   -0.018738  -0.0073698
-0.036927   -0.020687 -0.00087364   0.0075714     0.21058   -0.021012  -0.0031473
-0.026858   -0.016789  -0.0057458    0.014717     0.16803   -0.026533  0.00042559
-0.011592  -0.0093186   -0.012242    0.023487    0.073182   -0.031406   0.0075714
0.003024 -0.00054884   -0.016789    0.031932   -0.053817   -0.033354    0.014392
0.012768    0.008221    -0.01614    0.034206    -0.17659   -0.031081    0.022512
0.016016    0.016666  -0.0099683    0.028359    -0.26559   -0.021661    0.030308
0.014068    0.022512  -0.0018481    0.015692    -0.31042   -0.010943    0.037454
0.01017    0.021213  -0.0015233 -0.00054884    -0.31074  0.00042559    0.040377
0.010495    0.013093   -0.011917   -0.017764    -0.27534    0.010495    0.040702
0.011469   0.0023744   -0.026858   -0.031081    -0.22174     0.01764    0.039402
0.012768  -0.0083442   -0.038551   -0.034004    -0.16295    0.019589     0.03583
0.013743    -0.01549   -0.041475   -0.028482    -0.10611     0.01894    0.032906
0.012768   -0.019388   -0.037577    -0.01484   -0.060313    0.018615    0.030957
0.009845   -0.020362   -0.024585   0.0026992    -0.03238    0.019589    0.028034
0.0085458   -0.019712  -0.0096434     0.01829   -0.016464    0.022188    0.026085
0.012443   -0.016789 -0.00087364     0.02641  -0.0060706    0.028034    0.026735
0.017965  -0.0089938 -0.00054884    0.022837  -0.0018481    0.032257    0.029333
0.022837   0.0010752  -0.0060706    0.015692 -0.00054884    0.032257    0.034206
0.026735    0.011794   -0.012892   0.0091954   0.0026992    0.029009    0.039727
0.027709     0.01829   -0.012892    0.011794    0.010819    0.024461    0.041027
0.029333    0.022512  -0.0060706    0.023487    0.021538     0.01894    0.037129
0.031282    0.024786   0.0026992    0.042651    0.029333    0.014392    0.025436
0.027385    0.029983    0.011144    0.059216    0.029983    0.010819   0.0091954
0.016666    0.038103     0.01764    0.070909    0.024137   0.0046481  -0.0096434
0.0036737    0.047198    0.021538    0.074806     0.01894  -0.0080194   -0.024585
-0.0050961    0.053694    0.022837    0.072533    0.020564   -0.021986   -0.026209
-0.0067202    0.054668    0.019589    0.067986    0.025436    -0.03173   -0.017764
-0.0028225    0.049796    0.012443    0.062464    0.028359   -0.037902  -0.0073698
0.0065969    0.039727   0.0043233    0.057267    0.023162   -0.044073 -0.00022403
0.019264    0.026735  -0.0047713     0.05207    0.012443    -0.04862   0.0017248
0.032582    0.012768    -0.01549    0.046223   0.0033489   -0.050244   0.0020496
0.039402   0.0023744   -0.025559    0.037129  -0.0024977   -0.044723   0.0020496
0.042001  -0.0031473   -0.034329    0.023812  -0.0044465   -0.031081  -0.0015233
0.040052  -0.0034721   -0.041475    0.011144  -0.0015233   -0.018738  -0.0096434
0.036154  -0.0011985   -0.046022   0.0072465   0.0078962    -0.01484   -0.019063
0.027385  0.00042559   -0.048296   0.0072465    0.021863   -0.017764   -0.026209
0.01829   0.0010752   -0.046347   0.0039985    0.030957   -0.019388   -0.029457
0.012119 -0.00022403     -0.0405  -0.0057458    0.037778  -0.0099683   -0.029457
0.0069217  0.00010078    -0.03173   -0.019388    0.044275   0.0088706   -0.029132
0.0010752  0.00042559   -0.022961   -0.032055     0.05272    0.024461   -0.029132
-0.0037969  -0.0015233   -0.013216   -0.039851    0.062464    0.027709   -0.028807
-0.0063954  -0.0034721  -0.0044465   -0.039201    0.076431     0.01829   -0.030756
-0.011267  -0.0018481   0.0020496   -0.026533    0.097543   0.0062721   -0.030756
-0.017764   0.0043233    0.003024  -0.0073698      0.1232 -0.00022403   -0.028482
-0.024909    0.012443  0.00010078   0.0091954     0.14951  0.00075039   -0.024585
-0.028807    0.018615  -0.0037969    0.016991     0.16705   0.0059473   -0.021661
-0.025234    0.021538  -0.0093186    0.016666      0.1755    0.012443   -0.020687
-0.011917    0.018615    -0.01484    0.012768     0.17647    0.017316   -0.018738
0.0026992    0.013093   -0.021986    0.009845     0.17452    0.022188   -0.011917
0.012119    0.009845   -0.027508   0.0056225     0.16803    0.032906 -0.00087364
0.013743    0.014392   -0.025559 -0.00022403     0.15861    0.049472    0.011469
0.014068    0.024461   -0.010618  -0.0028225     0.14951    0.065387    0.019589
0.016341    0.038753    0.013743  -0.0011985     0.14399    0.075781    0.022188
0.017965    0.050771    0.038753   0.0023744     0.14496    0.078704    0.022512
0.016341    0.054993    0.055643    0.008221     0.15503    0.073832    0.023487
0.012119    0.056292    0.059216    0.015367      0.1755    0.067336    0.024137
0.011144    0.058566    0.049147    0.022188     0.19531     0.06896    0.026735
0.015042    0.062789    0.032257    0.024461     0.20148     0.07708    0.029983
0.025761    0.064413    0.018615    0.021538     0.18979    0.081303    0.029983
0.038428    0.062789    0.013093    0.015042     0.16283    0.074157    0.026735
0.047198    0.057267    0.016341   0.0069217     0.13165    0.053694    0.019264
0.046873    0.050771    0.022512 -0.00087364     0.10112    0.030633   0.0095202
0.03518    0.045249    0.022188  -0.0076946    0.076106    0.016991  -0.0018481
0.018615    0.040052    0.012119   -0.010618    0.055968    0.016991   -0.011917
0.0056225     0.03583  -0.0034721  -0.0083442    0.039402    0.027709   -0.021012
0.00042559    0.031282   -0.018738  -0.0011985    0.026735    0.041351   -0.027833
0.0023744    0.027709   -0.031406    0.011144    0.011794    0.051745   -0.032705
0.0049729    0.024786   -0.038227    0.029333  -0.0089938    0.053369    -0.03238
0.0039985    0.022837   -0.039526    0.046223   -0.035303    0.045574   -0.027183
0.003024    0.022837   -0.036278     0.05272   -0.062262    0.032582   -0.018088
0.0043233    0.023812   -0.029782    0.049472   -0.087272    0.019264   -0.011592
0.0075714    0.025111   -0.021986    0.040377    -0.11293    0.010495   -0.010943
0.013743    0.021538   -0.017439     0.03583    -0.13372   0.0036737   -0.014516
0.018615    0.016016   -0.020362    0.032906    -0.14671   0.0023744   -0.018738
0.015367    0.014392   -0.030431    0.028359    -0.14736   0.0059473   -0.024585
0.0059473    0.016341   -0.040825    0.020239    -0.14184    0.012768   -0.030431
-0.0093186    0.019589   -0.043099    0.014392    -0.13469    0.013743   -0.032055
-0.027508    0.017316   -0.036602    0.014392     -0.1321   0.0091954   -0.025559
-0.041475   0.0088706   -0.024585    0.019264    -0.13307   0.0033489   -0.013866
-0.045047  -0.0041217   -0.010618    0.025761    -0.13664   0.0017248 -0.00054884
-0.039526   -0.015815  0.00075039    0.034206    -0.14152   0.0017248     0.01017
-0.028807   -0.020362   0.0088706    0.041351    -0.14022   0.0017248    0.011794
-0.019063    -0.01549    0.013418    0.044599    -0.12917  -0.0047713   0.0075714
-0.014516  -0.0018481    0.010495    0.040702    -0.11618   -0.020687   0.0023744
-0.01549    0.014717   0.0069217    0.024137    -0.10286   -0.043748  -0.0021729
-0.018088    0.028359   0.0091954  -0.0034721   -0.090521   -0.068109  -0.0054209
-0.021986    0.033881    0.014068   -0.034654   -0.078178     -0.0824  -0.0054209
-0.022311    0.030633    0.016341   -0.059014   -0.065835   -0.078178  -0.0054209
-0.017114    0.022837    0.010819   -0.070707   -0.053817   -0.058365   -0.010943
-0.0044465    0.014068   0.0023744   -0.072656    -0.04115   -0.036278   -0.013866
0.010495   0.0085458  -0.0031473   -0.067134   -0.029782   -0.025234   -0.010618
0.021863   0.0088706  -0.0050961   -0.057065   -0.023285   -0.026209  -0.0047713
0.025761    0.016016  -0.0073698   -0.045697   -0.019388   -0.026858  -0.0024977
0.025436    0.029333    -0.01614   -0.035628   -0.019063   -0.020037  -0.0060706
0.019914    0.037778   -0.025884   -0.028807   -0.022636  -0.0089938   -0.011592
0.009845    0.036804   -0.029132   -0.027833   -0.030431  -0.0034721    -0.01484
-0.0011985     0.02641   -0.020362   -0.029457   -0.040175  -0.0050961   -0.015815
-0.008669    0.013418  -0.0060706   -0.028482   -0.048296  -0.0083442   -0.013541
-0.010293   0.0023744   0.0075714   -0.022311   -0.052518  -0.0093186  -0.0083442
-0.0083442  -0.0037969    0.015692   -0.014516   -0.052193  -0.0096434  -0.0015233
-0.0096434   -0.007045    0.015692  -0.0067202   -0.047971  -0.0083442   0.0039985
-0.011592   -0.008669   0.0085458  -0.0031473   -0.039851  -0.0047713   0.0072465
-0.014516  -0.0089938  0.00010078  -0.0031473   -0.031406  0.00075039   0.0062721
-0.017114   -0.010293  -0.0067202  -0.0037969   -0.026209   0.0075714    0.003024
-0.016789  -0.0093186   -0.011917  -0.0044465    -0.02361    0.011794 -0.00022403
-0.010618  -0.0083442   -0.016464  -0.0028225   -0.021661    0.012443   0.0017248
-0.00054884  -0.0083442   -0.017114  -0.0041217   -0.017439    0.011144    0.008221
0.01017   -0.007045   -0.010943  -0.0093186  -0.0063954    0.010819    0.015692
0.017965  -0.0034721   0.0010752   -0.015815    0.010819    0.010819    0.021863
0.026085   0.0046481    0.015692   -0.019712    0.030308   0.0069217     0.02706
0.03583    0.015367    0.026735   -0.022311    0.050771  0.00010078    0.035505
0.048497    0.028684    0.029658   -0.026858    0.071558  -0.0057458    0.048172
0.061165    0.039727    0.028034   -0.033679    0.093321  -0.0054209    0.062789
0.072533    0.048497    0.028034   -0.037902     0.11151  -0.0037969    0.072533
0.079354    0.052395    0.032582   -0.038876     0.12515   0.0010752    0.073507
0.078055    0.051745    0.042326   -0.035953     0.13652   0.0062721    0.069285
0.069934    0.046873    0.053044   -0.031081     0.14756    0.013418     0.06019
0.055318    0.042651    0.065062   -0.023935     0.16023    0.022188    0.047198
0.038753    0.042326    0.072533   -0.012567     0.17192    0.022188    0.028684
0.023812    0.044275    0.072858   0.0010752     0.17517    0.011469   0.0088706
0.0069217     0.04395    0.066686    0.014068     0.16023  -0.0060706   -0.010618
-0.012892    0.041027    0.055968    0.028034     0.12353   -0.020687   -0.023935
-0.030106     0.03518    0.046548     0.04395    0.063763   -0.028482   -0.026209
-0.037252    0.030308    0.042326    0.065387   -0.022636   -0.029782   -0.014516
-0.03238    0.027709     0.04395      0.0852    -0.14314   -0.024585   0.0049729
-0.020037    0.029009    0.047847     0.10079    -0.30035   -0.013541    0.022837
-0.010943    0.029009    0.051745     0.11118    -0.47802  -0.0028225    0.031932
-0.0099683    0.026085    0.051096     0.11606     -0.6362   0.0023744    0.031607
-0.016789    0.016991    0.045249     0.11151    -0.73266  -0.0011985    0.024137
-0.025884   0.0043233     0.03583    0.092346    -0.73981  -0.0099683    0.013743
-0.03303   -0.011267    0.027385    0.065387    -0.66543   -0.021661   0.0033489
-0.036927    -0.02426    0.023812    0.039727    -0.53746   -0.035303  -0.0057458
-0.036278   -0.033679    0.026735     0.01894    -0.39422   -0.046671  -0.0080194
-0.03303   -0.037252    0.030308   0.0069217    -0.26299   -0.057065   0.0020496
-0.029782   -0.036278    0.027709 -0.00087364    -0.15808    -0.06681    0.021863
-0.025559   -0.031081    0.020239  -0.0073698   -0.079802   -0.071032    0.042001
-0.021012    -0.02361    0.010819   -0.013216   -0.020362   -0.069083    0.055968
-0.012892    -0.01484  0.00042559   -0.019388    0.026735   -0.059014    0.056617
-0.0024977  -0.0080194   -0.008669   -0.020037    0.058891   -0.042449    0.043625
0.0065969  -0.0031473   -0.017114   -0.013541    0.074157   -0.025884    0.021863
0.013743  -0.0041217   -0.025884  -0.0067202    0.072858   -0.013866   0.0010752
0.020888  -0.0073698    -0.03238  -0.0050961    0.058891  -0.0099683  -0.0099683
0.027385   -0.013216   -0.034329   -0.011917    0.044275   -0.013216   -0.010618
0.030957   -0.015815   -0.032055   -0.022961    0.036154   -0.016789  -0.0063954
0.03518   -0.014191   -0.029782   -0.034004    0.039078   -0.019712  0.00010078
0.038103  -0.0063954   -0.030106   -0.034978    0.053694   -0.020687    0.008221
0.039727   0.0043233    -0.03238    -0.02426    0.071883   -0.020687    0.017316
0.03583    0.015692   -0.031406   -0.007045    0.090072   -0.022311    0.024137
0.023162    0.021863   -0.025559     0.01017     0.10761   -0.025884     0.02641
0.0078962    0.023487   -0.018738    0.019264     0.12743   -0.031081    0.023487
-0.0047713    0.020564   -0.013541    0.022512     0.14821   -0.040175    0.019914
-0.012242    0.014717   -0.011267    0.023812     0.16673   -0.051219    0.019914
-0.01484   0.0091954   -0.013541    0.025111     0.17485   -0.062262    0.025111
-0.015815   0.0036737   -0.016789    0.027385     0.16933   -0.069733    0.024461
-0.019712  -0.0050961   -0.020687    0.027709     0.15049    -0.07493    0.012443
-0.027833   -0.017439   -0.022636    0.026735     0.12125   -0.075255  -0.0041217
-0.038876   -0.031406   -0.021661    0.027385    0.091696   -0.071357   -0.018413
-0.050244   -0.045047   -0.019388     0.02641     0.06831    -0.06681   -0.023935
-0.05739   -0.057715   -0.017114    0.022188    0.050771   -0.061937   -0.018738
-0.055441    -0.06616    -0.01614    0.015692    0.036804    -0.05804  -0.0076946
-0.046022   -0.069733    -0.01549    0.009845    0.023812   -0.056416   0.0017248
-0.03303   -0.063561   -0.011267     0.01017    0.013418   -0.051868   0.0046481
-0.019712   -0.046996  -0.0073698    0.016016   0.0026992   -0.042449   0.0052977
-0.0096434   -0.024909   -0.007045    0.022512  -0.0060706    -0.03303   0.0065969
-0.0034721  -0.0044465   -0.013541    0.023812    -0.01484    -0.03238   0.0052977
-0.00087364   0.0075714   -0.026858    0.017965   -0.026533     -0.0405    0.003024
0.00075039    0.012119   -0.038876   0.0046481   -0.039526    -0.04927   0.0026992
0.0020496   0.0095202   -0.043423   -0.011267   -0.048296   -0.054467   0.0043233
0.0036737    0.003024   -0.040175   -0.022636   -0.046022   -0.052518   0.0056225
0.0069217  -0.0041217   -0.029457   -0.021661   -0.028482   -0.042774   0.0062721
0.0091954   -0.011267   -0.017114   -0.010943   0.0056225   -0.031081   0.0052977
