-0.027183     -0.0405    0.030957     0.01894    -0.18017    -0.21979   -0.037902
-0.053168   -0.046671    0.031607    0.013743    -0.12885    -0.21947   -0.054142
-0.070058   -0.051219    0.030633   0.0017248   -0.084999    -0.20843   -0.068109
-0.07428   -0.056091    0.029983   -0.012892   -0.058689    -0.18536   -0.072981
-0.062912   -0.061613    0.023812   -0.025234   -0.051219    -0.15743   -0.069733
-0.038227    -0.06551   0.0078962   -0.035303   -0.058365    -0.13145   -0.063561
-0.0067202   -0.064861    -0.01484   -0.042124    -0.06681    -0.11131   -0.057715
0.022512   -0.057065   -0.033354   -0.045697    -0.06616   -0.099615   -0.054142
0.045574     -0.0405   -0.036278   -0.045697   -0.055116   -0.095393   -0.053168
0.059541   -0.013866   -0.022961   -0.041799   -0.040175   -0.094418   -0.052843
0.064737    0.020239   0.0020496   -0.034978   -0.027508   -0.089546   -0.051219
0.059865    0.051096    0.024461   -0.022961   -0.019063   -0.074605   -0.049595
0.047523    0.065062    0.037129   -0.012892   -0.013541   -0.050569   -0.048945
0.031282    0.064413    0.039402  -0.0080194   -0.013866   -0.027833   -0.044723
0.016341    0.056292    0.035505  -0.0044465   -0.018738   -0.010618   -0.033679
0.0049729    0.044599    0.028684   0.0010752   -0.026533 -0.00054884   -0.019712
-0.00087364    0.030957    0.022512   0.0046481   -0.034004   0.0065969   -0.010618
-0.00022403    0.015692    0.017965   0.0039985   -0.039526    0.016666  -0.0067202
0.0014   0.0020496    0.015367   0.0062721    -0.04115    0.029333  -0.0073698
-0.0011985   -0.011917    0.015042    0.013418   -0.036927    0.039078   -0.012567
-0.0073698   -0.026209    0.015042    0.021863   -0.020687    0.045249   -0.019063
-0.013541   -0.036278    0.013093     0.02641    0.012119    0.048172   -0.023935
-0.015165   -0.036602   0.0049729    0.025761    0.058241    0.048822   -0.021661
-0.008669   -0.030756  -0.0093186    0.021213     0.10761    0.049796   -0.018088
0.0059473   -0.021986   -0.027508    0.010819     0.15049    0.050771   -0.015165
0.030957   -0.015165   -0.044398  -0.0031473     0.18654    0.052395   -0.016789
0.063438   -0.011267   -0.054142   -0.011917     0.21545     0.05272   -0.020362
0.092346  -0.0089938   -0.056091   -0.016464     0.23201     0.05207   -0.022636
0.10696  -0.0080194   -0.051219   -0.017114     0.24111    0.049796   -0.016789
0.10339  -0.0057458   -0.042774   -0.012892     0.24241    0.045574  -0.0073698
0.083901   0.0010752   -0.031406  -0.0060706     0.23039    0.042326 -0.00022403
0.057267   0.0085458   -0.017439  -0.0041217     0.19011    0.038428  -0.0011985
0.032582    0.014392  -0.0063954  -0.0093186     0.11638    0.032906  -0.0054209
0.010819    0.016991  -0.0015233   -0.019712    0.024461    0.022512  -0.0067202
-0.011917    0.016016 -0.00054884   -0.029132    -0.05804    0.011469  -0.0031473
-0.03303   0.0091954  -0.0034721   -0.035303    -0.11131   0.0033489   0.0033489
-0.04862 -0.00054884   -0.010293   -0.034978     -0.1282   0.0020496   0.0078962
-0.054142   -0.011592   -0.021012   -0.029132     -0.1191   0.0085458   0.0036737
-0.046347   -0.022961    -0.03238   -0.019712   -0.097991    0.019589   -0.011917
-0.025234   -0.033354   -0.044073  -0.0089938    -0.07493    0.027709    -0.03173
0.00042559   -0.037252   -0.053168 -0.00087364   -0.052843    0.027385   -0.045047
0.021213    -0.03238   -0.053817   0.0033489   -0.033354    0.019264   -0.044073
0.029983   -0.017439   -0.043099   0.0026992   -0.016464   0.0062721   -0.030756
0.025436   0.0046481   -0.024909 -0.00054884   0.0017248  -0.0054209   -0.014516
0.012119    0.025436   -0.008669  -0.0015233    0.023487   -0.012567  -0.0018481
-0.0047713    0.038753  0.00042559   0.0010752     0.04395   -0.016789   0.0023744
-0.020687    0.041027   0.0026992   0.0091954    0.057917   -0.022636  0.00075039
-0.034004    0.036804   0.0010752    0.022188    0.058241   -0.026209  -0.0041217
-0.043099    0.029658   0.0017248    0.036154    0.046223   -0.021012   -0.012567
-0.042124    0.024137   0.0056225    0.045249    0.021863  -0.0083442   -0.020687
-0.035303    0.022512    0.012768    0.044924   -0.011267   0.0069217   -0.025559
-0.025559    0.024786    0.021213    0.037129   -0.046022     0.01829    -0.02426
-0.018088    0.032257    0.027709    0.028034   -0.066485    0.024461   -0.020687
-0.013866    0.039727    0.028684    0.024137   -0.061937    0.023812   -0.019712
-0.015165    0.046873    0.022188    0.024461   -0.035953    0.021213   -0.024909
-0.018738    0.049796    0.012768    0.026735  0.00042559    0.020564   -0.034329
-0.025234    0.045574   0.0059473     0.02706    0.036479    0.024461   -0.042774
-0.03238    0.035505   0.0043233    0.026735    0.065712    0.033231   -0.051219
-0.038551    0.020239   0.0065969    0.027709    0.084876    0.044924   -0.055766
-0.043748   0.0026992     0.01017    0.029983    0.093321    0.054344   -0.053492
-0.04927   -0.015815    0.014068    0.033881    0.090722    0.053694   -0.045372
-0.058365   -0.030431    0.020239    0.040377    0.078379    0.042651   -0.034978
-0.065186    -0.03238    0.029983    0.048822    0.057267    0.025436   -0.025559
-0.061288   -0.021986    0.040377    0.054993    0.027709     0.01017   -0.013541
-0.037577  -0.0044465    0.045249    0.059216  -0.0054209    0.003024  -0.0041217
-0.0015233    0.010819    0.044599    0.059865   -0.039851   0.0026992   0.0056225
0.032582    0.016341    0.037454    0.056292   -0.078827   0.0033489    0.016341
0.050121    0.010819    0.023487    0.045574      -0.123  0.00075039    0.029333
0.048172  -0.0011985   0.0023744    0.026085    -0.17075   -0.008669    0.037778
0.031282   -0.011592   -0.020037  -0.0015233     -0.2133   -0.025559    0.043625
0.008221    -0.01549   -0.034004   -0.030431    -0.24221   -0.047321    0.042001
-0.013541   -0.015165   -0.038876   -0.055766    -0.25975   -0.068434    0.035505
-0.029132   -0.011592   -0.035953   -0.072331    -0.28411   -0.075255    0.029333
-0.037577  -0.0060706   -0.025884   -0.075255     -0.3364    -0.06551    0.028359
-0.041799 -0.00087364  -0.0073698   -0.063561    -0.41728   -0.042449    0.038753
-0.041799   0.0043233    0.015042   -0.042124    -0.49913   -0.017439    0.057917
-0.037252    0.010819    0.032906   -0.016789    -0.54168   0.0023744    0.074806
-0.029132    0.016991    0.040702   0.0033489    -0.51667    0.013743    0.078379
-0.019388    0.023162     0.03518    0.014392    -0.42247    0.012768    0.070909
-0.0089938    0.028684     0.01894    0.011469    -0.28118    0.003024    0.055318
-0.00087364    0.033231  -0.0041217  0.00010078    -0.12527  -0.0099683     0.03583
0.0095202    0.031932   -0.023935   -0.012567    0.017965   -0.021337    0.021213
0.019914    0.024786   -0.033679    -0.01614     0.12905   -0.036278    0.019264
0.029658    0.012443   -0.031406  -0.0093186     0.20051    -0.05739    0.031607
0.032257  0.00010078   -0.022961   0.0033489     0.23883   -0.082076     0.05207
0.026735   -0.011592   -0.015815    0.014717     0.25345    -0.10709    0.070909
0.015692   -0.017764   -0.015815    0.019914      0.2528    -0.13015    0.080328
0.012443   -0.019388   -0.020037    0.019264     0.23786    -0.15029    0.076106
0.019264   -0.017764   -0.023285    0.013093       0.207     -0.1636    0.065062
0.030308   -0.013866   -0.021661   0.0046481     0.15828    -0.16912    0.051096
0.038103  -0.0080194   -0.017439  -0.0044465    0.089423    -0.16847    0.039078
0.039727  -0.0018481   -0.010618   -0.010943  -0.0076946    -0.16425    0.031932
0.032257   0.0043233  -0.0034721   -0.013866    -0.14216    -0.15678    0.028684
0.015692    0.009845  -0.0011985   -0.013541    -0.30392    -0.14541    0.025436
0.00075039    0.016016 -0.00054884  -0.0099683     -0.4569     -0.1282    0.020239
-0.0067202    0.023162  -0.0031473   0.0017248     -0.5524    -0.10514    0.014717
-0.0073698    0.031282  -0.0080194    0.015692    -0.56214   -0.077203    0.011469
-0.0063954    0.036804    -0.01549    0.023487    -0.48646    -0.04927    0.012443
-0.0034721    0.035505   -0.024585    0.019264    -0.35167   -0.022636    0.014068
0.0052977     0.02641   -0.034978   0.0072465    -0.19771  0.00075039    0.014717
0.01894   0.0095202   -0.045047  -0.0047713   -0.059664    0.019264    0.012119
0.032582  -0.0060706   -0.051544   -0.010943    0.045249    0.037129   0.0056225
0.042001   -0.014516   -0.047971  -0.0093186     0.11573    0.057917 -0.00022403
0.046223   -0.014191    -0.03303  0.00010078     0.15893    0.079354  -0.0024977
0.048822   -0.010618  -0.0099683    0.013418     0.18199    0.096244      0.0014
0.053369  -0.0054209    0.013093     0.02641     0.19401     0.10566    0.011144
0.057267      0.0014    0.032257    0.038428     0.19628     0.10534    0.021213
0.059541    0.008221    0.045899    0.047847     0.19401    0.094295    0.028359
0.062789    0.015692    0.050446    0.053694     0.19304    0.078704    0.030308
0.066037    0.023812    0.044599    0.054668     0.19758    0.063438    0.025761
0.070584    0.030633    0.031282     0.05272     0.20668    0.051745    0.012768
0.071883    0.034855    0.014392    0.045899      0.2161      0.0433  -0.0050961
0.067336    0.033881  -0.0011985    0.037454     0.21675    0.037778   -0.022636
0.053694     0.02641  -0.0093186    0.026735     0.20408    0.033881   -0.033354
0.039727    0.016991  -0.0076946    0.017965     0.18167    0.031282    -0.03238
0.030308    0.012443  0.00010078    0.016666     0.15991    0.030308   -0.021661
0.026085    0.013093   0.0072465    0.022837     0.14951    0.029009  -0.0044465
0.027385    0.014392   0.0088706    0.032906     0.15114    0.022837    0.016666
0.029658    0.015042   0.0052977    0.041027     0.15958   0.0059473    0.032582
0.029009    0.014392  -0.0011985    0.038753     0.16868   -0.020037    0.037129
0.020564    0.010819   -0.007045    0.028684     0.17485   -0.045047    0.029333
0.0026992   0.0069217   -0.013541    0.013418     0.17745   -0.059989    0.010819
-0.025234   0.0026992   -0.018738 -0.00087364     0.16998   -0.066485   -0.014191
-0.050894   0.0010752   -0.021661   -0.010943     0.15503    -0.06551   -0.039526
-0.067784   0.0039985   -0.020687    -0.01549     0.14107   -0.058689   -0.060963
-0.070058    0.012119   -0.019388   -0.015815     0.13587   -0.050244    -0.07428
-0.062587    0.018615   -0.021986   -0.015815     0.14594   -0.042449   -0.077203
-0.047971     0.01764   -0.026858   -0.018738     0.16153    -0.03303   -0.072331
-0.028807    0.011794   -0.028157   -0.021337      0.1703   -0.021012   -0.062912
-0.0096434   0.0046481    -0.02361   -0.023285     0.16283  -0.0073698   -0.050894
0.003024  -0.0011985   -0.013866   -0.021986     0.14269   0.0069217   -0.036278
0.0075714  -0.0037969  -0.0028225   -0.021012     0.11281    0.020888   -0.022961
0.0085458      0.0014    0.008221   -0.021337    0.079679    0.032257  -0.0099683
0.013418    0.013743    0.017965    -0.02361    0.046873    0.042326  0.00010078
0.020888    0.031607    0.022837   -0.025234    0.019914    0.049796   0.0069217
0.021538    0.047847    0.020239   -0.021986   0.0017248    0.056942   0.0043233
0.011469    0.055643    0.012768   -0.015165  -0.0073698    0.063438  -0.0037969
-0.0063954    0.050771   0.0059473  -0.0096434   -0.012242    0.069934   -0.008669
-0.020687    0.037129   0.0043233  -0.0067202   -0.016789    0.080328  -0.0057458
-0.025884    0.019914   0.0065969  -0.0054209   -0.018738    0.091372   0.0065969
-0.021337   0.0059473    0.008221  -0.0041217   -0.020362     0.10014    0.024786
-0.017439  0.00075039    0.009845   0.0010752   -0.018738     0.10631     0.04395
-0.015815   0.0039985    0.009845    0.011144   -0.010618     0.11281    0.058566
-0.015165    0.012119     0.01017    0.018615  -0.0041217     0.11931    0.066037
-0.011917    0.021863    0.008221    0.020888  -0.0037969     0.12385    0.066686
-0.0080194    0.029983   0.0017248    0.016991  -0.0044465      0.1271     0.06084
-0.0073698     0.03518  -0.0057458   0.0091954  -0.0028225      0.1258     0.05142
-0.011917    0.035505  -0.0099683   0.0023744  -0.0044465     0.11768    0.046223
-0.020687    0.029658   -0.011592    0.003024  -0.0099683     0.10209    0.050121
-0.029132    0.020239  -0.0073698    0.015042   -0.017439    0.079354    0.060515
-0.030431    0.010819  0.00010078    0.034206   -0.024909    0.056617    0.070584
-0.021012   0.0059473   0.0059473    0.054019   -0.033679    0.040052    0.078704
-0.0044465   0.0059473   0.0085458     0.06831   -0.042774    0.030308    0.080653
0.012443   0.0091954   0.0088706    0.072533   -0.048945    0.025111    0.075131
0.023812    0.014717   0.0078962    0.064737   -0.052193    0.022512    0.064413
0.027385    0.016666   0.0049729    0.049796   -0.050569     0.01764    0.051745
0.021213    0.009845  0.00075039    0.033556   -0.038876    0.010819    0.040052
0.0091954  -0.0047713  -0.0047713     0.01894   -0.018738    0.003024    0.027385
-0.0089938   -0.021337  -0.0099683   0.0065969      0.0014  -0.0018481    0.016341
-0.025234    -0.03303   -0.011267 -0.00022403    0.014717  -0.0024977   0.0065969
-0.029782   -0.033679  -0.0054209   0.0036737    0.017316  -0.0057458      0.0014
-0.021986   -0.022961    0.008221    0.015692   0.0085458  -0.0096434   0.0036737
-0.008669  -0.0073698    0.021863    0.029658   -0.010293   -0.012242    0.011794
0.0014   0.0075714    0.029009    0.038428   -0.038227   -0.012892    0.020564
0.0049729    0.015692     0.02706    0.036804   -0.064536   -0.012892    0.023812
0.0010752    0.014717    0.016016     0.02641   -0.086623    -0.01549    0.023812
-0.007045   0.0036737      0.0014    0.010495    -0.10124    -0.02361    0.023812
-0.014191   -0.010293   -0.012567  -0.0067202    -0.10546   -0.035303    0.022188
-0.016789   -0.022636   -0.018088   -0.017114    -0.10026   -0.042449    0.018615
-0.016464   -0.027183   -0.012242   -0.020362   -0.089546   -0.046347    0.015692
-0.018088   -0.020687   0.0026992   -0.018088   -0.079802   -0.048945    0.015367
-0.024909  -0.0050961    0.019914   -0.012567   -0.073306   -0.054142    0.014392
-0.040825    0.013418    0.030633  -0.0050961   -0.068109   -0.059664    0.013093
-0.062262    0.028034    0.032906   0.0020496   -0.068434   -0.059989    0.012768
-0.078827     0.03453    0.028359   0.0065969    -0.07493   -0.053817    0.010495
-0.08305    0.033231    0.019589    0.009845   -0.088572   -0.045697   0.0091954
-0.068109     0.02706   0.0088706    0.013093    -0.10449   -0.038876   0.0095202
-0.037252    0.015692  0.00010078     0.01764    -0.11586   -0.034004    0.016016
-0.00054884      0.0014  -0.0044465    0.021538      -0.123   -0.030756    0.024461
0.031282  -0.0096434  -0.0024977     0.02641    -0.12885   -0.030431    0.030308
0.05272   -0.014516   0.0043233    0.033231    -0.14087   -0.034329    0.028359
0.061814   -0.013541    0.010819    0.042001    -0.15841   -0.043423    0.016341
0.062789  -0.0057458    0.013093    0.050446     -0.1714   -0.055441  -0.0054209
0.057267   0.0065969     0.01017    0.054993    -0.17237   -0.068109   -0.029132
0.045249    0.019589   0.0017248     0.05272    -0.15743   -0.077853   -0.047646
0.024461    0.027709   -0.010293    0.045574    -0.13599   -0.077203   -0.055441
-0.0047713    0.028359   -0.022311     0.03583    -0.11553    -0.06681   -0.053168
-0.037252    0.020564   -0.029782     0.02706   -0.096692   -0.049595    -0.04927
-0.06551   0.0075714   -0.031081    0.022837   -0.076229   -0.035628   -0.046671
-0.081751   -0.011592   -0.025884    0.024786   -0.053168   -0.030756   -0.045372
-0.084999   -0.034654   -0.018738    0.029333   -0.029132   -0.033679   -0.046671
-0.079152   -0.061937   -0.010293    0.035505  -0.0044465   -0.044073   -0.047646
-0.066485   -0.086298  -0.0067202    0.039727    0.020888   -0.053168   -0.046671
-0.050569    -0.10254   -0.007045    0.041027     0.05207   -0.058365   -0.045697
-0.035628    -0.10319   -0.012567     0.03518    0.092671   -0.056416   -0.050894
-0.025884   -0.090521   -0.020037    0.024137     0.13749   -0.047646   -0.061288
-0.021012   -0.070382   -0.024585    0.013418     0.17615   -0.035303   -0.073631
-0.01484   -0.055441   -0.025884   0.0085458     0.20083   -0.026858   -0.086623
-0.007045   -0.046022   -0.021337   0.0075714     0.20863   -0.029132   -0.095717
0.0010752   -0.043748   -0.016464   0.0072465     0.20278   -0.042124   -0.096042
0.0059473   -0.041475   -0.020362   0.0075714     0.18394   -0.062262   -0.089221
0.0095202    -0.03173   -0.030106   0.0078962     0.15893   -0.081426   -0.079802
0.012119   -0.012567   -0.037902   0.0052977     0.13165   -0.097991    -0.07428
0.016666    0.011794   -0.038876   0.0026992     0.10566    -0.10806   -0.075904
0.024461     0.03518   -0.031406   0.0033489    0.078704    -0.10644   -0.079802
0.029333    0.053044   -0.025559   0.0072465    0.047198   -0.093119     -0.0824
0.029333    0.063438   -0.023935   0.0095202    0.010495   -0.077203   -0.077853
0.026735    0.066037    -0.02361   0.0043233   -0.029132   -0.066485   -0.070058
0.023487    0.063763    -0.02426   -0.012242   -0.072331   -0.062912   -0.064861
0.020888    0.058566   -0.026209   -0.039526    -0.12138   -0.064536    -0.06551
0.016016    0.052395   -0.029132    -0.06551    -0.18894   -0.068434   -0.071357
0.0078962    0.039402    -0.03303   -0.086298    -0.27891   -0.072981   -0.080776
-0.0060706    0.016666   -0.039851   -0.099615    -0.39974   -0.079802    -0.09117
-0.021337  -0.0089938   -0.045372    -0.10903    -0.55142   -0.085648    -0.10741
-0.034329   -0.028482   -0.048945    -0.11033    -0.71253   -0.086948    -0.13145
-0.036927   -0.032705   -0.048945    -0.10286    -0.84505   -0.087922    -0.16035
-0.029782   -0.020362   -0.046347    -0.09117    -0.91261   -0.086948    -0.18764
-0.015165   0.0056225   -0.038876   -0.080776    -0.90221   -0.079802    -0.20323
0.00042559    0.040052   -0.026209   -0.075255    -0.82621   -0.064861    -0.19771
0.014068     0.06961   -0.010943   -0.071682     -0.7109   -0.040175    -0.16782
0.023812    0.084876   0.0052977   -0.064861    -0.57968   -0.011917    -0.11488
0.029009    0.079029    0.017965   -0.051544    -0.44424    0.016341   -0.044723
0.029658    0.055968    0.025436   -0.034654    -0.30977    0.042001    0.031932
0.030957    0.023487    0.029658   -0.018738    -0.17952     0.06084     0.10534
0.03583  -0.0028225    0.032257  -0.0063954   -0.059664    0.073182     0.16575
0.044924   -0.014516    0.036804   0.0017248    0.053044    0.077405       0.207
0.054019   -0.011267    0.040377   0.0036737     0.16023    0.079354     0.22877
0.057592  -0.0021729    0.038103  -0.0037969      0.2567    0.078055     0.23071
0.05272    0.008221    0.029009    -0.01549     0.33335    0.071234      0.2148
0.042651    0.013093    0.019264   -0.027508     0.38857    0.059865     0.18816
0.032582    0.014392    0.012119   -0.035303      0.4243    0.048172     0.16283
0.02641     0.01829   0.0091954   -0.034329     0.45028    0.036804     0.14529
0.023487    0.028359    0.008221    -0.02361     0.46847    0.028684     0.13652
0.021213    0.041676    0.008221  -0.0054209     0.48017    0.024137     0.13262
0.020564    0.051745   0.0046481    0.014068     0.48634    0.027709     0.13067
0.019264    0.054344  0.00075039    0.030308     0.48276    0.039727     0.12483
0.016666    0.050121  -0.0031473    0.041351     0.46847    0.063113     0.11866
0.015042    0.043625  -0.0041217    0.049147     0.44411    0.099817     0.11313
0.011144    0.037778  -0.0021729     0.05207     0.41001     0.14464     0.10924
0.0056225    0.029009  -0.0028225    0.051096     0.37201     0.18524     0.10404
-0.0034721    0.018615  -0.0076946    0.049796       0.334     0.20765    0.094945
-0.012242   0.0049729  -0.0099683    0.048172     0.30477     0.20635    0.084551
-0.015815   -0.011267  -0.0067202    0.046548      0.2895     0.17972    0.073182
-0.018738   -0.025234  0.00075039    0.043625     0.28788     0.13392    0.061165
-0.019712   -0.033354   0.0065969    0.040702     0.29308    0.081627    0.047523
-0.01614   -0.034329   0.0072465    0.037129     0.29178    0.029009    0.033881
-0.007045   -0.027183   0.0017248    0.033881     0.27684   -0.020687    0.018615
0.0059473    -0.01549  -0.0076946    0.030957      0.2463   -0.063237    0.003024
0.01764  -0.0044465    -0.01614    0.032257     0.20733    -0.10124  -0.0093186
0.025111  0.00075039   -0.019388    0.037778     0.16348    -0.13372    -0.01614
0.025436   0.0026992   -0.019063    0.046223     0.12093    -0.16425   -0.016464
0.021213   0.0036737    -0.01614    0.054668    0.086175    -0.19121  -0.0096434
0.015042   0.0049729   -0.010618    0.055643    0.059216    -0.21232  0.00010078
0.0095202    0.009845  -0.0031473    0.051745    0.039078    -0.22661    0.010819
0.0088706    0.016991   0.0056225    0.047198    0.029333    -0.23896     0.01894
0.013418    0.021863    0.012768    0.044275    0.027709    -0.25812    0.024137
0.016016    0.022512    0.014068    0.040052    0.029983    -0.28443    0.021538
0.012443    0.019264    0.010495    0.034206    0.037454    -0.31269    0.011144
0.0043233    0.015042   0.0046481    0.026735    0.048497    -0.32763  -0.0028225
-0.00054884    0.009845  -0.0011985    0.018615    0.059865    -0.31886   -0.018088
-0.0028225   0.0036737  -0.0031473    0.014392     0.06084    -0.28443   -0.035953
-0.0015233  -0.0044465 -0.00087364    0.015692    0.047523    -0.23214   -0.051544
0.0026992   -0.011917  0.00042559    0.020239    0.025111    -0.16847   -0.059014
0.0072465    -0.01484  -0.0018481    0.022188   0.0023744   -0.097991   -0.054467
0.011469   -0.011267  -0.0028225    0.021538   -0.012892   -0.027183   -0.041799
0.015367  -0.0021729   0.0023744    0.021213   -0.016789    0.033231   -0.027183
0.019914    0.012768    0.011469    0.022188   -0.015815    0.072533   -0.012242
0.023162    0.029658    0.024461    0.023487   -0.015165    0.093645 -0.00022403
0.023487     0.04395     0.03453    0.025761   -0.018738     0.10436   0.0046481
0.023162    0.053369    0.035505    0.029658   -0.026858     0.11378   0.0017248
0.024461    0.057592    0.025761    0.037129   -0.045372     0.12775  -0.0044465
0.024461    0.055643    0.009845    0.044599     -0.0824     0.14626   -0.007045
0.021213    0.048822  -0.0011985    0.048497    -0.14379      0.1625  -0.0034721
0.011144    0.040702  -0.0011985    0.047523    -0.22142       0.169      0.0014
-0.0034721    0.036479    0.011794    0.039727     -0.2984     0.16835   0.0039985
-0.016464    0.036804    0.028359    0.030308    -0.35914     0.16705   0.0023744
-0.02361    0.041027    0.040377    0.020239    -0.39259     0.16478  -0.0031473
-0.022311    0.044924    0.042651    0.012768    -0.39551     0.15991   -0.013541
-0.01549    0.046548    0.034855   0.0023744    -0.37375     0.15211   -0.027508
-0.0076946    0.042651    0.024461   -0.011267    -0.33802     0.14302   -0.038227
-0.00087364    0.037454    0.020888    -0.02426    -0.29255     0.13684   -0.040825
0.0017248    0.031282    0.022837   -0.030756     -0.2487     0.13262   -0.033679
-0.00054884    0.025436    0.027709   -0.031081     -0.2133     0.12288   -0.025234
-0.0050961    0.020564    0.029009   -0.030431    -0.18634     0.10566   -0.019388
-0.007045     0.01764    0.027709   -0.033679    -0.16393      0.0852   -0.019063
-0.0060706    0.013418    0.026735   -0.039526    -0.13567    0.063438   -0.023285
-0.0063954    0.008221    0.030633   -0.045047   -0.094743    0.043625   -0.026209
-0.0080194   0.0043233    0.036154    -0.04927   -0.037902    0.023487   -0.026858
-0.011267   0.0052977    0.037129   -0.051868     0.02706   0.0023744   -0.027508
-0.014516   0.0052977    0.029658   -0.050569    0.089423   -0.017114   -0.030431
-0.017764  0.00042559    0.019589   -0.046671     0.13717   -0.034978   -0.036602
-0.023285  -0.0060706    0.012443    -0.04115      0.1651   -0.046347   -0.043099
-0.027833   -0.015165   0.0095202    -0.03303     0.17615   -0.046671   -0.046347
-0.029132   -0.028482   0.0069217   -0.023935     0.17647   -0.037577   -0.045372
-0.031406   -0.044723  -0.0024977   -0.013216     0.16998   -0.020362   -0.042774
-0.034654   -0.058689   -0.018413   -0.007045     0.15796    0.003024   -0.039526
-0.038551   -0.065186   -0.034978  -0.0080194     0.13814    0.029333   -0.038551
-0.039526   -0.064861   -0.044723   -0.011917     0.11216    0.055318   -0.040175
-0.036927   -0.058689   -0.045047   -0.014191      0.0865    0.071558   -0.039526
-0.027833   -0.047321   -0.038227   -0.012242    0.065387    0.074482   -0.030106
-0.013866   -0.037252    -0.03173   -0.007045    0.049472    0.068635   -0.011592
0.0020496   -0.031406   -0.028157  0.00075039    0.037454     0.06084   0.0056225
0.014717   -0.029782   -0.026533   0.0062721    0.027385    0.054668    0.016341
0.019914    -0.03238   -0.021986   0.0085458    0.017316     0.05272    0.015692
0.01894   -0.036602    -0.01484   0.0062721   0.0043233    0.048497   0.0078962
0.013093   -0.040175  -0.0050961 -0.00054884   -0.012242    0.038428  -0.0011985
0.0059473   -0.043423   0.0075714   -0.008669   -0.032705    0.024786   -0.010293
-0.0057458   -0.047971    0.019589   -0.013866   -0.055441    0.015692   -0.018088
-0.022311   -0.052843    0.024137   -0.017764   -0.078827    0.012119   -0.024909
-0.038876   -0.054467     0.01764   -0.023285    -0.10091    0.012119   -0.028807
-0.048945   -0.049595   0.0020496   -0.031081    -0.11618    0.011469    -0.03173
-0.051544   -0.038876   -0.015165   -0.035303      -0.123   0.0095202   -0.034978
-0.047646   -0.022961   -0.028482    -0.03173    -0.11715   0.0095202   -0.034654
-0.039201  -0.0073698   -0.032705   -0.019388    -0.10286     0.01017   -0.029782
-0.029457   0.0056225   -0.027183  0.00042559   -0.086298    0.013093   -0.024585
-0.022961    0.015042   -0.011592    0.022837    -0.07428    0.016991   -0.020037
-0.020037    0.021213   0.0059473    0.042326   -0.067134    0.016666   -0.015815
-0.022636    0.023487    0.015367    0.057917   -0.062587    0.011144  -0.0093186
-0.03173    0.021863    0.016666    0.070259   -0.056091  0.00010078  -0.0015233
-0.046996    0.017316    0.013743    0.079354   -0.046022   -0.013216   0.0046481
-0.061613   0.0095202   0.0095202    0.081952    -0.03303   -0.023935   0.0036737
-0.065186 -0.00022403   0.0069217    0.079354   -0.020687   -0.029457  -0.0057458
-0.055441   -0.012242   0.0020496    0.072533   -0.011917   -0.034654   -0.019063
-0.035303   -0.021661  -0.0057458    0.063113  -0.0089938   -0.042124   -0.031406
-0.0096434   -0.028482   -0.013541     0.05207   -0.011917   -0.055441   -0.035303
0.014392   -0.033354   -0.018738    0.044275   -0.017114   -0.070058   -0.029782
0.032257   -0.033354   -0.018413    0.043625   -0.021012   -0.075904   -0.016789
0.037129   -0.030106   -0.013541    0.047523   -0.022636   -0.068758  -0.0031473
0.030957   -0.026533  -0.0083442    0.052395   -0.023935   -0.053168    0.008221
0.017965   -0.023935  -0.0041217    0.055968   -0.022311   -0.032705    0.020239
0.0078962   -0.023285  -0.0015233    0.059541   -0.015815   -0.014191    0.037454
0.008221   -0.020362  -0.0050961     0.06084  -0.0037969  -0.0021729     0.06019
0.016666   -0.013541   -0.017439    0.059216   0.0091954   0.0023744    0.080978
0.028684  0.00042559    -0.03173    0.054019    0.018615  0.00075039    0.092021
0.038428    0.021213   -0.034978    0.044599    0.020564  -0.0024977    0.090072
0.042651    0.047198   -0.027508    0.036479    0.021863  -0.0031473    0.080328
0.039727    0.069934   -0.014516    0.029983    0.030957  0.00042559     0.06896
0.036804    0.082277  -0.0037969    0.029009    0.050446   0.0056225    0.061489
0.034206    0.081952   0.0036737    0.032906    0.071558    0.010819    0.057592
0.031932    0.069285   0.0088706    0.037454      0.0865    0.013743    0.054993
0.029658    0.048172   0.0091954    0.036804    0.091696     0.01017    0.051096
0.029009    0.024786   0.0075714    0.032906    0.095269  -0.0011985    0.047523
0.033556   0.0065969   0.0059473     0.02706     0.11411   -0.017114    0.050771
0.041027  -0.0011985   0.0049729    0.021863     0.15373   -0.030756    0.060515
0.047847   0.0010752   0.0023744    0.017316     0.20018   -0.038551    0.070909
0.053694    0.011794   0.0010752    0.010495     0.23461   -0.042449     0.07708
0.06019    0.021538   0.0020496  -0.0015233     0.24825    -0.04992    0.074157
0.065062    0.027385 -0.00087364   -0.016789     0.23299   -0.063886    0.060515
0.066686    0.028684  -0.0083442    -0.03303     0.19239     -0.0824    0.045249
0.067011    0.030308   -0.018413   -0.044073     0.13717   -0.097991    0.039402
0.069285    0.033556   -0.030431   -0.046347    0.074806    -0.10676      0.0433
0.073182    0.033881   -0.042449   -0.042124    0.011469    -0.10514    0.054344
0.072208    0.029658   -0.054792    -0.03303    -0.05739   -0.092145    0.065062
0.062789    0.019264   -0.062587   -0.021012    -0.14216   -0.072331    0.070259
0.047198   0.0078962   -0.060313  -0.0083442    -0.25065   -0.047646    0.073507
0.032582 -0.00022403    -0.04927   0.0049729    -0.38577   -0.026533     0.07773
0.022188 -0.00022403   -0.036278    0.016666    -0.52446   -0.010618     0.08585
0.015692   0.0078962    -0.02361     0.02641    -0.62418   0.0010752     0.09397
0.013093    0.021538  -0.0096434    0.028684    -0.65634   0.0072465    0.096569
0.016341    0.037778   0.0023744    0.022512    -0.61638    0.008221    0.090072
0.021538     0.05207    0.013093    0.011469    -0.52186   0.0023744     0.07708
0.023812    0.061814     0.01829   0.0020496    -0.40396   -0.010618    0.061489
0.023812    0.069285    0.023487  -0.0028225    -0.29255   -0.026533     0.04395
0.021863    0.075781    0.028034 -0.00087364    -0.19803     -0.0405    0.024137
0.014068    0.076755    0.024786   0.0078962    -0.11553   -0.048945    0.003024
0.0026992    0.070259    0.014717     0.01829   -0.031081    -0.04862   -0.014516
-0.0047713    0.058241   0.0020496    0.029983    0.059541   -0.040175   -0.021661
-0.0031473    0.047847  -0.0050961    0.041351     0.15211   -0.024909   -0.021337
0.0036737    0.042326  -0.0034721    0.052395     0.23981  -0.0057458   -0.018413
0.0065969    0.037454   0.0043233    0.065712     0.31679    0.011794   -0.015165
0.0039985    0.033881    0.014392    0.076755     0.37655    0.026085   -0.011917
-0.0037969    0.029009     0.01829    0.081303     0.41488    0.030633  -0.0028225
-0.017764    0.020239    0.015042    0.077405     0.42787    0.019589    0.012119
-0.030756   0.0069217    0.011144    0.063438      0.4152  -0.0044465     0.02706
-0.034329  -0.0028225    0.009845    0.039727     0.37948     -0.0405     0.03583
-0.022961  -0.0018481    0.012443    0.014717      0.3314   -0.078178    0.030633
0.0023744    0.008221    0.019264  -0.0083442     0.28106    -0.11163    0.012119
0.028034    0.022837    0.025436   -0.024909     0.23461    -0.13892   -0.013541
0.042001    0.033231    0.030957   -0.036278     0.18946    -0.16035   -0.036278
0.046223    0.038103     0.03453   -0.043099     0.14367     -0.1727   -0.050244
0.044599    0.037778    0.033556   -0.042124    0.095594    -0.17367   -0.056091
0.038428    0.032257    0.025436   -0.041475    0.045249    -0.16588   -0.062912
0.029983    0.022837    0.010819   -0.042124   -0.014516    -0.15386   -0.072981
0.018615   0.0088706  -0.0096434     -0.0405   -0.087272    -0.14184   -0.084349
0.0075714  -0.0073698   -0.030431   -0.036602    -0.16977     -0.1321   -0.094743
-0.0050961   -0.026209   -0.044398   -0.033354     -0.2591    -0.11975    -0.10286
-0.022961   -0.046347   -0.048945   -0.030431    -0.35556    -0.09994    -0.10644
-0.04927   -0.066485   -0.043423   -0.026209    -0.46795   -0.067459    -0.10351
-0.080127   -0.080776   -0.026858   -0.016789    -0.60469   -0.027833   -0.092469
-0.10579   -0.086948  -0.0093186  -0.0044465    -0.76255    0.010819   -0.075255
-0.12235   -0.081101  0.00042559    0.003024    -0.91033    0.046873   -0.054467
-0.12982   -0.069083   0.0052977   0.0026992    -0.99738    0.075131    -0.03303
-0.12625   -0.055116   0.0072465  -0.0054209    -0.98894    0.092346   -0.015165
-0.11651   -0.046022   0.0072465   -0.013541    -0.88662    0.095269  -0.0018481
-0.10189   -0.044398   0.0065969   -0.016789    -0.71772    0.089098   0.0052977
-0.083375   -0.044398   0.0039985   -0.013541    -0.52381    0.077405   0.0062721
-0.063237   -0.038876  0.00042559  -0.0063954    -0.33543    0.066362   0.0043233
-0.044723   -0.024909  -0.0021729  -0.0034721    -0.16815    0.058566   0.0020496
-0.032055  -0.0028225 -0.00054884  -0.0089938   -0.026533    0.053044  -0.0011985
-0.029132    0.019589   0.0078962   -0.022311    0.098193    0.040702  -0.0037969
-0.036278    0.033231    0.017316   -0.041475     0.21642    0.021213  -0.0011985
-0.046671     0.03453    0.021538   -0.060638     0.32426      0.0014    0.011144
-0.054142    0.030957    0.019589   -0.075255     0.40189   -0.011267    0.034206
-0.052193    0.023487    0.014392   -0.080127     0.43274   -0.018738    0.058891
-0.044398    0.013093    0.014717   -0.078178     0.41488   -0.023935    0.081303
-0.034004 -0.00087364     0.01894    -0.06681     0.36226   -0.028807    0.093321
-0.023285   -0.016464    0.024786   -0.048945      0.3012    -0.03303    0.092996
-0.010618   -0.029132    0.028359   -0.028482     0.25832   -0.034329    0.083901
0.0026992   -0.035628    0.027385   -0.010618     0.24501   -0.031406    0.072858
0.019589   -0.034329    0.025761  -0.0015233     0.25637   -0.025884    0.063113
0.037454   -0.027183    0.025761   0.0023744     0.27976   -0.016789    0.055643
0.05142   -0.013541    0.022837   0.0023744     0.30347  -0.0018481    0.048822
0.055968 -0.00022403    0.018615    0.003024     0.32328    0.014392    0.039402
0.05272     0.01017     0.01764   0.0078962      0.3379    0.026735    0.027709
0.044924    0.016666     0.01829     0.01764     0.34862    0.033881     0.01894
0.036479    0.022512    0.018615    0.031932     0.35284    0.038103   0.0088706
0.026085    0.027709    0.017316    0.045249     0.35024    0.039078   -0.008669
0.014392    0.030957    0.013743    0.051096     0.34472     0.03583   -0.032705
0.00075039    0.027709   0.0039985    0.049147     0.33855    0.034206   -0.059339
-0.012567    0.022188   -0.010943    0.037778      0.3353    0.036479   -0.082076
-0.023285    0.014068   -0.026533    0.026735     0.33595    0.043625    -0.10059
-0.028482   0.0043233   -0.040825    0.023487      0.3366    0.053044    -0.11586
-0.031081  -0.0041217   -0.051868    0.032257     0.33498    0.059865    -0.13372
-0.038551   -0.011917   -0.054142    0.048822     0.32913    0.060515    -0.15516
-0.050569   -0.018413   -0.047971    0.066037     0.32296    0.056292    -0.17465
-0.061613   -0.023285   -0.037902    0.073507     0.31516    0.047847    -0.17627
-0.063561   -0.027508   -0.029132     0.06831     0.30607     0.03583    -0.15678
-0.051544   -0.027833   -0.022961    0.053369      0.2973    0.022837    -0.11975
-0.029782   -0.023935   -0.020687    0.032582     0.28626    0.011144   -0.076229
-0.0024977    -0.01484   -0.024909    0.012119     0.26579   0.0023744   -0.034654
0.027709  -0.0028225   -0.032055 -0.00087364     0.23039  -0.0018481  0.00042559
0.053694    0.009845   -0.039526  -0.0050961     0.17842 -0.00087364    0.029658
0.077405    0.021538   -0.043099  -0.0041217     0.11054   0.0046481    0.056617
0.095919    0.029009   -0.041475   0.0010752    0.034855    0.011794    0.080003
0.10566     0.02706   -0.035953    0.012768   -0.039201    0.013418    0.099167
0.10566    0.019589   -0.029782    0.027385    -0.10319   0.0091954     0.11248
0.096893    0.011794   -0.020362    0.040377    -0.15321   0.0056225      0.1232
0.080328   0.0069217  -0.0057458    0.047847    -0.18991   0.0075714     0.13002
0.055968   0.0049729    0.013418    0.049147      -0.212    0.015692     0.13035
0.027709   0.0043233    0.026085    0.044924    -0.21752    0.023162      0.1245
0.0059473   0.0062721    0.029333    0.039402     -0.2081    0.025436     0.11638
-0.0057458   0.0091954    0.022837    0.032906    -0.18926    0.020564     0.11021
-0.0037969   0.0072465    0.011794    0.023487    -0.16393     0.01017     0.10274
0.0065969  0.00042559  0.00010078    0.011469    -0.13664   0.0033489    0.092996
0.016666   -0.010293   -0.010943  0.00010078    -0.11358  0.00010078    0.081303
0.022512   -0.019063   -0.022636   -0.010293    -0.10091 -0.00054884     0.06961
0.022837   -0.022961   -0.035628   -0.020037   -0.097017   0.0056225    0.054993
0.022512   -0.022636   -0.048296   -0.024909   -0.094743    0.023812     0.03583
0.027385   -0.019388   -0.053168   -0.018413   -0.083375    0.057917    0.014392
0.041351   -0.014516   -0.047321  0.00042559   -0.064536    0.099167  -0.0031473
0.059216   -0.010293   -0.034004    0.022837   -0.043748     0.13425    -0.01549
0.071883   -0.008669   -0.021337    0.036479   -0.026209     0.15568   -0.024585
0.070584   -0.011267   -0.016789    0.039078   -0.017764     0.16121   -0.035628
0.05142   -0.013541   -0.019712    0.033231   -0.015815     0.15146   -0.047971
0.01764   -0.013866   -0.021661    0.022512   -0.016464     0.13197   -0.052193
-0.017114   -0.010943   -0.014516   0.0095202   -0.017114     0.11086   -0.045047
-0.042124   -0.007045  -0.0021729  -0.0050961    -0.01549    0.092996   -0.028807
-0.044723  -0.0021729    0.012768   -0.016789  -0.0050961    0.075781  -0.0060706
-0.025559   0.0017248    0.022837   -0.020037    0.014068     0.05207    0.014068
0.0043233   0.0065969     0.02706   -0.016789    0.036479    0.021538    0.025111
0.029658    0.009845    0.022188   -0.010618    0.055643   -0.015815    0.022188
0.039078    0.012443    0.011469   -0.008669    0.063438   -0.055116   0.0075714
0.033231    0.015367  -0.0050961   -0.012242    0.055318   -0.092145   -0.016464
0.021538    0.017316   -0.025234   -0.021337    0.031282     -0.1282   -0.044073
0.01017    0.022188   -0.040175   -0.033354 -0.00054884    -0.16425   -0.075255
0.003024    0.027709   -0.043099   -0.044073   -0.032705     -0.2042    -0.10579
0.00010078     0.03518   -0.030756    -0.04992   -0.062587    -0.24415    -0.12982
-0.00022403    0.040377  -0.0089938   -0.048945   -0.089221    -0.27631    -0.14184
0.003024    0.040377    0.015042   -0.043748    -0.11033     -0.2919    -0.14087
0.0072465    0.033881    0.028684   -0.039201    -0.12495    -0.28768    -0.13177
0.01017    0.024786    0.026735   -0.037902    -0.13632    -0.26462     -0.1217
0.011469    0.015042    0.014068   -0.038876    -0.14574    -0.22824    -0.11358
0.0088706   0.0078962      0.0014   -0.040175    -0.15061    -0.18699    -0.10709
-0.0018481   0.0043233  -0.0060706   -0.039201    -0.14834    -0.14899    -0.10026
-0.025559   0.0026992  -0.0060706   -0.034978    -0.14152    -0.11651   -0.089546
-0.056741   0.0026992  0.00010078   -0.025884    -0.13599   -0.094418   -0.075255
-0.084349   0.0026992    0.009845   -0.012892    -0.13469   -0.079802   -0.061288
-0.098965   0.0023744    0.017965  0.00075039    -0.13307   -0.070382   -0.052518
-0.097991   0.0049729    0.022837    0.010495    -0.12755    -0.05804   -0.050569
-0.087922    0.009845    0.027385     0.01764     -0.1204   -0.036927   -0.051544
-0.069083    0.017316    0.031932    0.023812    -0.11943  -0.0093186   -0.047646
-0.046671    0.024786    0.033231    0.030308    -0.12657    0.020564   -0.038876
-0.024909    0.027709    0.029658    0.039402    -0.13924    0.048822   -0.028157
-0.0076946    0.027709    0.021863    0.046223    -0.15613    0.068635   -0.019712
0.0036737    0.028684    0.012443    0.046223    -0.17205    0.076755   -0.013541
0.010495    0.029009   0.0010752    0.042001    -0.17692    0.076755  -0.0080194
0.019264    0.028359   -0.011267    0.040702    -0.16425    0.075131  -0.0028225
0.03518    0.021538   -0.019388    0.042001    -0.13599    0.074482   0.0056225
0.055318    0.011144   -0.020037    0.046223   -0.098641    0.074806    0.015367
0.073507   0.0010752   -0.012892    0.046873   -0.059014    0.075781    0.025111
0.083251 -0.00054884   -0.007045      0.0433   -0.025884    0.075131    0.039727
0.080653   0.0056225  -0.0050961    0.038428   -0.007045    0.069934    0.057917
0.064413    0.015367  -0.0063954    0.035505  -0.0063954    0.058566     0.07708
0.03518    0.021213  -0.0073698    0.039078   -0.018088    0.047523    0.091696
-0.0028225    0.017965  -0.0057458    0.045899   -0.035628    0.041351    0.095919
-0.042124    0.011144  0.00042559    0.053369   -0.055766    0.036804    0.093645
-0.07428   0.0052977    0.009845    0.057592   -0.078503    0.030308    0.092346
-0.090845   0.0046481    0.021538    0.057592    -0.10189    0.020564    0.092996
-0.091495   0.0091954    0.032257    0.050771    -0.12073   0.0088706    0.093645
-0.080451    0.020239    0.035505    0.041351    -0.13145  -0.0034721    0.088773
-0.063561    0.034855    0.034206     0.03453    -0.13242   -0.010618    0.078379
-0.046022    0.048497    0.033881    0.033231     -0.1282  -0.0093186    0.066037
-0.030431    0.059216    0.035505    0.033231    -0.12365   0.0017248    0.053369
-0.018738    0.062789     0.03518    0.028684     -0.1178    0.021213    0.039402
-0.0093186    0.059216    0.029009     0.01894    -0.11163    0.042326     0.02641
-0.00087364    0.049147    0.022512    0.013093    -0.10514     0.06084     0.01829
0.0075714    0.035505    0.016991    0.013418   -0.093444    0.073507    0.016666
0.015692    0.021538    0.011144    0.017316   -0.070382    0.077405    0.019914
0.026085    0.011794   0.0046481    0.019589   -0.036278    0.071883    0.020888
0.033881   0.0049729  0.00042559    0.020239   0.0049729    0.060515     0.01829
0.033881  -0.0018481   0.0010752    0.017965    0.046873    0.049147    0.011144
0.024786   -0.011592   0.0049729    0.014717    0.082602    0.045899      0.0014
0.0085458   -0.025884   0.0088706    0.012443     0.10404    0.049147  -0.0050961
-0.0060706   -0.041475   0.0085458   0.0095202     0.11541    0.051745  -0.0057458
-0.011267   -0.053492   0.0036737   0.0065969     0.12125    0.047198 -0.00054884
-0.0063954   -0.056416  -0.0054209   0.0043233     0.12255    0.037454   0.0069217
0.0026992   -0.048296   -0.013866   0.0036737     0.11281    0.025436    0.014068
0.012119   -0.028807   -0.020037   0.0033489    0.092346    0.013093    0.017316
0.021538  0.00010078   -0.020362  0.00042559    0.072533      0.0014    0.013743
0.030633    0.030308   -0.015165  -0.0011985    0.064088  -0.0073698   0.0052977
0.037129    0.054668   -0.007045 -0.00087364    0.071234   -0.011917  -0.0011985
0.03583    0.066037   0.0017248   0.0049729    0.087149   -0.010943  0.00042559
0.027385    0.065062   0.0072465    0.009845    0.092996  -0.0073698    0.010819
0.01894    0.056292   0.0075714   0.0049729    0.075781  -0.0067202    0.024786
0.01894    0.042326      0.0014  -0.0089938    0.033231  -0.0093186    0.036154
0.023812    0.029009  -0.0041217   -0.026533   -0.015165   -0.010293    0.042326
0.029658     0.01894  -0.0057458   -0.040175   -0.051868   -0.011917    0.045249
0.03453    0.011794  -0.0015233   -0.045372   -0.064211   -0.015815    0.047198
0.038428   0.0095202   0.0049729   -0.044073   -0.050894   -0.021986    0.049472
0.037778    0.011144     0.01017   -0.038876    -0.01549   -0.025234    0.050121
0.031932    0.011144    0.012443    -0.03238    0.031282   -0.025884    0.047847
0.022188   0.0062721   0.0091954   -0.029457    0.072533   -0.027183     0.04395
0.011469  -0.0011985  0.00075039   -0.034329    0.096569   -0.031406    0.040702
0.0039985  -0.0076946  -0.0057458   -0.039851    0.092996   -0.035628    0.039402
0.0036737  -0.0093186  -0.0083442   -0.038227    0.062789   -0.036927    0.038753
0.01017  -0.0050961  -0.0083442   -0.026533    0.014068   -0.037252     0.03518
0.019264   0.0023744   -0.012892  -0.0093186   -0.040825   -0.033679    0.029983
0.028034    0.008221   -0.019063   0.0069217   -0.086623   -0.027183    0.024137
0.036804    0.011144   -0.018413    0.017965    -0.10903   -0.017114    0.017965
0.044275   0.0091954  -0.0099683    0.026735    -0.10838  -0.0011985   0.0095202
0.044924   0.0043233    0.003024    0.032906   -0.093444    0.016016  -0.0011985
0.037129  -0.0018481    0.016666    0.039078   -0.076554    0.030957   -0.010618
0.025111  -0.0067202    0.024786    0.040052   -0.059664    0.038753   -0.017439
0.015042   -0.010618    0.027709    0.036154   -0.041475    0.038103   -0.021661
0.0078962   -0.012567    0.023812    0.028359   -0.019063    0.030633    -0.02361
0.00010078    -0.01484    0.012768     0.01764   0.0046481     0.01829   -0.026533
-0.012567   -0.020362  -0.0028225   0.0072465     0.02706   0.0033489   -0.033679
-0.030756   -0.027508   -0.021337  0.00010078    0.044924   -0.014191   -0.045697
-0.050569   -0.032055   -0.036602  -0.0037969    0.059216   -0.033679   -0.060963
-0.065186   -0.029132   -0.038227  -0.0054209    0.067336   -0.050894   -0.069733
-0.07428   -0.018413   -0.026209  -0.0044465    0.069934   -0.064536   -0.070058
-0.080127  -0.0057458   -0.007045  0.00075039    0.071558   -0.077853   -0.062912
-0.085973   0.0026992   0.0062721    0.011144    0.073182    -0.09182   -0.052193
-0.089546   0.0065969   0.0085458    0.022188    0.072533    -0.10838     -0.0405
-0.087922   0.0069217 -0.00054884    0.034206    0.066037     -0.1256   -0.031406
-0.080776   0.0059473   -0.010943    0.045249    0.048497    -0.14119   -0.022311
-0.063237   0.0069217   -0.018738    0.052395     0.01829    -0.15061   -0.013541
-0.039526   0.0043233   -0.025884    0.057917   -0.014191    -0.14834  -0.0054209
-0.018738  -0.0041217   -0.035303    0.061814   -0.029782    -0.13502 -0.00022403
-0.0063954   -0.016789   -0.044398    0.062789   -0.013866    -0.11715   0.0052977
-0.0018481   -0.024585    -0.04862     0.06084    0.038753    -0.10189    0.010819
-0.0021729   -0.025559   -0.043748    0.053694     0.11606   -0.090521    0.015042
-0.0028225   -0.021661   -0.027183     0.04395     0.19044   -0.086298    0.017965
-0.00054884   -0.018088  -0.0060706    0.033881     0.23331    -0.09182     0.01764
0.0056225   -0.014191    0.010819     0.02641     0.23071    -0.10384    0.014392
0.011469  -0.0073698    0.017316    0.020564     0.19369     -0.1178   0.0069217
0.017316   0.0020496    0.015367    0.017316     0.14561    -0.12722  0.00010078
0.028359    0.010495   0.0059473    0.016341     0.10306      -0.123  -0.0041217
0.040702    0.016666  -0.0024977    0.016341    0.075781    -0.10221  -0.0067202
0.047198    0.017965  -0.0047713    0.013093    0.065062    -0.06616  -0.0076946
0.046548    0.015042  -0.0041217   0.0052977    0.066362   -0.022961   -0.008669
0.039078   0.0085458  -0.0031473  -0.0044465    0.076106    0.019589   -0.012892
0.026735      0.0014 -0.00054884  -0.0089938    0.095919    0.052395    -0.01549
0.0088706  -0.0028225   0.0049729  -0.0054209      0.1258    0.075781   -0.012567
-0.008669  -0.0047713     0.01017   0.0039985     0.15731    0.090722  -0.0028225
-0.021986  -0.0028225    0.012768    0.011144     0.17745    0.097543    0.011794
-0.03238   0.0039985    0.012119    0.012768     0.17842    0.098517    0.027709
-0.04115    0.011794    0.009845   0.0088706     0.15146    0.097543    0.039402
-0.050244    0.014717   0.0065969  0.00075039    0.087799    0.097543    0.044599
-0.059664    0.012443   0.0010752  -0.0080194   -0.017114    0.090722     0.04395
-0.067784   0.0065969  -0.0083442   -0.012242     -0.1662    0.073832    0.036479
-0.073631  -0.0050961   -0.020037   -0.013541    -0.35102     0.05272    0.023812
-0.069083   -0.019388    -0.03238   -0.014191    -0.54135    0.031932    0.008221
-0.052843   -0.035953    -0.04115    -0.01614    -0.68914    0.016991  -0.0096434
-0.029457   -0.048296   -0.042449    -0.01549    -0.75313    0.012443   -0.026858
-0.010293   -0.053168   -0.035628   -0.013216    -0.72649    0.017316   -0.038876
0.0026992   -0.047646    -0.02426  -0.0076946    -0.63003    0.026085   -0.042449
0.0091954   -0.034329   -0.013866  -0.0021729    -0.50335     0.03583   -0.035953
0.012443   -0.018088  -0.0073698  -0.0028225    -0.37927    0.041676   -0.021012
0.013093  -0.0041217  -0.0060706   -0.012242    -0.28216    0.040702  -0.0060706
0.0095202   0.0056225   -0.010618   -0.025234    -0.22044    0.032906 -0.00022403
0.0056225   0.0059473   -0.016464     -0.0405    -0.19154    0.020564  -0.0063954
0.0026992 -0.00087364   -0.017439   -0.050894    -0.18212   0.0072465   -0.017439
0.0017248  -0.0093186   -0.012892   -0.052518    -0.18212  -0.0050961   -0.021012
0.0014   -0.011267  -0.0073698   -0.044398    -0.18829   -0.010618   -0.017764
0.00042559  -0.0018481  -0.0050961   -0.028807    -0.20388  -0.0044465   -0.011267
-0.0021729    0.018615  -0.0050961   -0.013216    -0.22694     0.01017  -0.0037969
-0.0011985    0.040052  -0.0021729  -0.0060706    -0.25195    0.025761   0.0062721
0.0049729    0.056617   0.0036737   -0.011592    -0.26851     0.03518    0.021538
0.012443    0.065387    0.009845   -0.024585    -0.26916    0.039727    0.038753
0.015367    0.065712    0.014717   -0.034329    -0.24286    0.041676    0.051745
0.010819    0.060515    0.013743   -0.038876    -0.19121    0.041027    0.054993
0.0062721    0.051745   0.0043233   -0.038551    -0.12527    0.038103    0.048172
0.0075714    0.041351   -0.012242   -0.033354   -0.064211    0.033881    0.038103
0.015367    0.030957   -0.029132   -0.025884   -0.017439    0.025436    0.030308
0.022512    0.019914   -0.042449   -0.016464    0.020888   0.0095202    0.028034
0.022837   0.0072465   -0.045047  -0.0096434    0.064737  -0.0080194    0.029658
0.016341  -0.0037969    -0.03303  -0.0047713     0.12028   -0.021661    0.032257
0.0072465  -0.0099683   -0.012567  0.00010078     0.18751   -0.028482    0.038103
0.0017248   -0.010293   0.0052977   0.0062721     0.25605   -0.032705    0.044599
0.00042559  -0.0054209    0.016016    0.011794     0.31029   -0.040825    0.046873
0.0020496   0.0052977    0.019914    0.012119     0.33693   -0.055441    0.039078
0.003024    0.019264    0.024461      0.0014     0.32101   -0.072006    0.022512
0.0023744    0.030633    0.026085   -0.016789      0.2541   -0.080451   0.0091954
0.00010078     0.03453    0.023812   -0.035953     0.15471     -0.0837   0.0039985
0.00042559    0.029983    0.016016   -0.049595    0.055318     -0.0837  0.00075039
0.0072465    0.019914    0.008221   -0.054792   -0.010943   -0.081751  -0.0018481
0.020239   0.0072465  0.00042559   -0.051868   -0.024585   -0.077853  -0.0015233
0.038753  -0.0031473  -0.0080194   -0.044073    0.014392   -0.075579   0.0033489
0.061489   -0.011592    -0.01549   -0.031406    0.094295   -0.078503    0.015692
0.083251   -0.018413   -0.019712    -0.01549     0.19596   -0.084999    0.033231
0.095594   -0.021661   -0.019063   0.0026992     0.29535   -0.088572    0.048822
0.10112   -0.014516   -0.016464     0.01894     0.37558   -0.086298    0.057267
0.10209   0.0052977   -0.010618    0.029983     0.43015   -0.080776    0.058566
0.10242    0.032582  -0.0054209     0.03518     0.45743   -0.076229    0.056292
0.10177    0.058241  -0.0024977     0.03453     0.45938   -0.077203     0.05207
0.094295    0.076431  0.00075039    0.033881     0.44314   -0.084674    0.042326
0.07708    0.083251   0.0046481    0.033231     0.41391   -0.089871    0.030957
0.05207    0.080003   0.0069217     0.03453     0.37688   -0.087597    0.020888
0.024137     0.06961   0.0046481    0.040052     0.33855   -0.076879    0.010819
-0.0024977    0.055968  -0.0047713    0.047847     0.29925   -0.059989   0.0010752
-0.020362    0.042975   -0.021986    0.053369      0.2567   -0.037577  -0.0099683
-0.025559    0.030308     -0.0405    0.055318     0.20798   -0.012892   -0.018413
-0.018738     0.01764   -0.050569    0.054344     0.15438    0.014717   -0.021337
-0.0067202   0.0075714   -0.047646    0.052395    0.096244    0.045574   -0.020037
0.0036737  0.00010078   -0.032055    0.053044    0.036479    0.075781   -0.019712
0.012443  -0.0044465  -0.0067202    0.058566   -0.025234     0.10469   -0.020362
0.019914  -0.0076946    0.019914    0.067011   -0.085324     0.12775   -0.023285
0.023162  -0.0089938    0.037454    0.075131    -0.13989     0.14172   -0.029782
0.020888  -0.0096434    0.042326    0.078704    -0.18439     0.14756   -0.037577
0.016016  -0.0073698    0.036804     0.07708    -0.21655     0.14561   -0.043423
0.0075714  -0.0041217    0.027385     0.06961    -0.23603     0.13327   -0.047971
-0.0028225 -0.00054884     0.01764    0.058566    -0.24318     0.11021    -0.04927
-0.017439   0.0020496   0.0095202    0.049472    -0.23636    0.080978   -0.047971
-0.034329   0.0023744   0.0036737    0.042001     -0.2133    0.051096   -0.043748
-0.051544   0.0010752   0.0039985     0.03453     -0.1753    0.027385   -0.039851
-0.063237  -0.0044465    0.012768    0.027709    -0.13404   0.0095202   -0.037252
-0.068758   -0.013541    0.023812    0.022512    -0.10026  -0.0057458   -0.034978
-0.069408   -0.023285    0.030633    0.019589    -0.07428   -0.017764   -0.031081
-0.064861   -0.034329    0.029658    0.019589   -0.050569   -0.028807   -0.021986
-0.055441   -0.044723    0.017965    0.020888   -0.021337   -0.040175  -0.0089938
-0.044073   -0.050569  0.00075039    0.024461    0.014392   -0.050894   0.0069217
-0.028482   -0.047971   -0.012242    0.023812    0.055968   -0.060638    0.020564
-0.013216   -0.034329   -0.015815    0.021538    0.096893   -0.062912     0.02706
-0.0024977   -0.012242    -0.01614    0.016016      0.1258   -0.057065    0.026735
0.0036737    0.010495    -0.01549   0.0095202     0.13717   -0.044073    0.021538
0.0049729     0.02641   -0.013866   0.0056225      0.1271   -0.027183    0.014392
-0.00087364    0.030308  -0.0060706   0.0056225    0.095594  -0.0060706    0.012768
-0.012242    0.024461   0.0088706   0.0085458    0.051096    0.017965    0.012443
-0.022961    0.015042    0.027385    0.011794    0.012443    0.038103   0.0065969
-0.028157   0.0072465    0.042326    0.012443   -0.008669     0.05207  -0.0060706
-0.029782   0.0010752    0.044599   0.0088706   -0.010943    0.058566   -0.018738
-0.030106  -0.0076946    0.029658 -0.00022403  -0.0044465    0.061165   -0.022636
-0.024909   -0.020037   0.0036737   -0.010943   0.0023744    0.063438   -0.015815
-0.013866   -0.035303   -0.021661   -0.019063  0.00075039    0.065712  -0.0018481
0.00042559   -0.048296   -0.037252   -0.017764   -0.007045    0.067986    0.014068
0.014717   -0.050894   -0.034978  -0.0099683   -0.014516    0.071234    0.025436
0.022188   -0.040825   -0.018413  0.00042559   -0.013216    0.078704    0.029658
0.016991   -0.021661   0.0033489    0.010819 -0.00087364    0.088124    0.026085
0.00010078  -0.0028225    0.023162    0.020564    0.021538    0.094945     0.01764
-0.017114    0.015367    0.038428    0.028684    0.048497     0.09397     0.01017
-0.025234    0.031607    0.048172    0.036154    0.079354    0.084551    0.011144
-0.020037    0.049147    0.053369    0.042326     0.10924    0.072208    0.023812
-0.0083442    0.070584    0.053044     0.04395     0.13132    0.062139    0.040377
0.0043233    0.091696    0.050121    0.041676     0.14594    0.052395    0.055643
0.014392     0.10859    0.041351    0.040052     0.15503    0.041676    0.064737
0.021863     0.11638    0.028684    0.042975     0.15861    0.033231    0.065062
0.026735     0.11216     0.01829    0.048822     0.15828    0.030308    0.062464
0.030633    0.095594    0.014068    0.052395     0.15991    0.032906    0.059216
0.032582    0.071234    0.016341    0.050446     0.16575    0.037778    0.056942
0.029658    0.044599    0.020239    0.044924     0.17842    0.039727     0.05272
0.028034    0.017965    0.024786    0.036479     0.19628    0.036479    0.049796
0.028684  -0.0031473    0.029658    0.025436     0.21837    0.025436    0.044599
0.030308   -0.019063    0.028359    0.014068     0.23559    0.009845    0.040377
0.032257   -0.031406    0.017316   0.0069217     0.23526  -0.0044465    0.033881
0.033231   -0.043099 -0.00087364   0.0046481     0.20895    -0.01614    0.023487
0.029658   -0.050244   -0.021337   0.0072465     0.15276   -0.026209   0.0088706
0.017965   -0.053168   -0.034978    0.011794    0.073182   -0.034004   -0.011592
0.0023744   -0.051544   -0.035628     0.01764   -0.025559   -0.040175   -0.030756
-0.010943   -0.044723   -0.022961    0.023812    -0.14574   -0.044723   -0.044398
-0.015815   -0.035628  -0.0028225    0.027385    -0.29417   -0.047321   -0.048296
-0.012892   -0.023935    0.014717    0.027385      -0.466   -0.046996   -0.045372
-0.0063954   -0.012242    0.022512    0.021538    -0.62515   -0.044398   -0.041799
-0.0015233  -0.0031473     0.01829   0.0091954    -0.72942   -0.039851   -0.044723
-0.00054884   0.0036737   0.0072465   -0.011592    -0.75735   -0.038227   -0.055766
-0.0041217    0.010495  -0.0028225   -0.033679    -0.71285     -0.0405   -0.070382
-0.0080194    0.014717   -0.007045    -0.04927    -0.61963   -0.043748     -0.0837
-0.0096434    0.015042  -0.0073698   -0.053492    -0.50822    -0.04927   -0.089221
-0.0054209    0.011469  -0.0080194   -0.050894    -0.39811   -0.054792   -0.085324
0.0056225   0.0059473  -0.0093186   -0.046347    -0.29937   -0.056741   -0.078503
0.014068  -0.0044465  -0.0096434   -0.043099    -0.21752   -0.054142   -0.073306
0.011794   -0.022636  -0.0076946   -0.037252    -0.15483    -0.04862   -0.067134
-0.0021729   -0.043423  -0.0028225   -0.027833    -0.11001   -0.043748   -0.058365
-0.026858   -0.059014   0.0049729   -0.015815   -0.080776   -0.040825   -0.051219
-0.058365   -0.064211    0.014717  -0.0073698   -0.062912   -0.040175   -0.050244
-0.086623   -0.061288    0.023162  -0.0041217    -0.04992   -0.041799    -0.06616
-0.10514   -0.053817    0.026085  -0.0044465   -0.037902   -0.046022    -0.09929
-0.11293   -0.047321    0.022837  -0.0080194   -0.026533   -0.056416    -0.13892
-0.11033   -0.045047    0.013418   -0.017439   -0.014191   -0.075904     -0.1688
-0.10189   -0.050244 -0.00022403   -0.032705  -0.0018481   -0.098641    -0.18049
-0.093119   -0.059664   -0.019063    -0.04992  0.00042559    -0.11618     -0.1714
-0.082076   -0.067134   -0.040825   -0.064861  -0.0083442     -0.1256    -0.13859
-0.064861   -0.069083   -0.062262   -0.068434   -0.020037      -0.123   -0.084349
-0.040175   -0.062587   -0.076879   -0.061613   -0.028482    -0.10709   -0.018413
-0.011917   -0.048296   -0.081426    -0.04862   -0.031081     -0.0824    0.042975
0.015692   -0.030106    -0.07428   -0.036278   -0.029782    -0.05804     0.08585
0.040702   -0.010618    -0.05804   -0.024585   -0.026209   -0.042774     0.10761
0.062789    0.008221   -0.033679   -0.010943   -0.020037     -0.0405     0.11411
0.080003    0.027709   -0.010943   0.0023744   -0.010943   -0.051868     0.11541
0.088773    0.045899   0.0049729    0.011144   0.0017248   -0.070707      0.1206
0.091372    0.057267    0.012768    0.014068    0.019589   -0.087597       0.131
0.090397    0.061814    0.014392    0.014717    0.040702   -0.092145     0.14237
0.087799     0.06084    0.012768    0.016666    0.057592   -0.084349     0.14789
0.0852    0.054668   0.0056225     0.01764    0.064413   -0.069083     0.14594
0.081952    0.044599  -0.0073698    0.020564    0.062789   -0.050244     0.14237
0.080003    0.032257   -0.025234    0.022837    0.055643   -0.034329     0.14107
0.078379     0.01894   -0.043099    0.020564    0.050446   -0.022311     0.13652
0.073507   0.0072465   -0.059014    0.014392    0.044599   -0.017439     0.12743
0.065712      0.0014   -0.069408    0.008221    0.040052   -0.020687     0.11021
0.056292  0.00042559   -0.071032   0.0052977    0.041351   -0.029132    0.087149
0.042975   0.0043233   -0.067459   0.0049729    0.051096   -0.036602    0.062464
0.032257    0.013418   -0.059339   0.0062721    0.069934   -0.037252    0.039402
0.028359     0.02641   -0.048296   0.0091954    0.090072   -0.031081    0.019589
0.028034    0.038753   -0.032705    0.016016     0.10566   -0.018413  0.00075039
0.02641    0.048822   -0.011917    0.022512     0.10794  -0.0054209    -0.01549
0.021213    0.056617    0.011144    0.029009    0.095594  0.00042559   -0.027833
0.011794    0.058566    0.029009    0.036804    0.076106      0.0014   -0.034654
0.0010752    0.054993    0.038428    0.043625    0.056292   0.0017248   -0.038876
-0.0083442    0.045574    0.042651    0.044275    0.042975   0.0033489   -0.039201
-0.01614    0.033231    0.044599    0.038428    0.035505   0.0056225   -0.037577
-0.025234    0.024461    0.045249    0.031607    0.030957   0.0065969   -0.035628
-0.038227    0.019914    0.042326    0.027385    0.026735   0.0039985   -0.037577
-0.049595    0.021538    0.033881    0.023487    0.021863  -0.0034721   -0.045047
-0.054467    0.022837    0.022512    0.016016    0.019914   -0.012242   -0.051868
-0.054467    0.018615   0.0075714   0.0043233    0.022188   -0.018738   -0.050894
-0.048945     0.01017   -0.010618   -0.011592    0.025761   -0.019388   -0.042774
-0.038227  0.00010078   -0.026533   -0.027183    0.026085   -0.012567   -0.033354
-0.027508  -0.0067202   -0.032055   -0.042774    0.020888      0.0014   -0.026858
-0.020687  -0.0063954   -0.027183   -0.054142   0.0056225    0.016666    -0.02426
-0.019388   0.0017248   -0.016464   -0.058689   -0.013866    0.028034    -0.02426
-0.021661    0.014717  -0.0057458   -0.052843   -0.032705    0.034206   -0.023935
-0.026209    0.025111  0.00010078   -0.041475   -0.050569    0.033231   -0.027833
-0.034329     0.02706 -0.00022403   -0.030756   -0.067134    0.029009   -0.038227
-0.043748     0.01894  -0.0050961   -0.022311   -0.081426     0.01829   -0.050894
-0.050569   0.0065969   -0.011267   -0.018413   -0.088247   0.0052977   -0.058365
-0.051544  -0.0057458   -0.011917    -0.01484   -0.084349  -0.0028225   -0.055766
-0.045372   -0.013541  -0.0060706   -0.012242   -0.068434  -0.0034721   -0.044398
-0.036278   -0.017439   0.0056225  -0.0093186   -0.038876  -0.0015233   -0.034329
-0.029457   -0.018088    0.014392  -0.0050961  -0.0018481  -0.0018481   -0.038876
-0.027183   -0.018088    0.014392  -0.0011985    0.040702  -0.0080194   -0.053817
-0.027833   -0.015165   0.0075714  -0.0034721    0.083901   -0.019712   -0.069733
-0.027508  -0.0076946 -0.00054884   -0.010293     0.12807   -0.034004   -0.075255
-0.02361   0.0020496  -0.0044465    -0.01484      0.1742   -0.042774   -0.065835
-0.014516    0.012443  -0.0024977   -0.010618     0.22032   -0.046347   -0.042124
-0.00022403    0.021538   0.0033489   0.0036737      0.2593   -0.042124  -0.0093186
0.01764    0.029333    0.011144    0.023487     0.28658   -0.032705    0.022837
0.039402    0.037129    0.015692    0.041676     0.29957   -0.020037    0.041676
0.06019    0.042326    0.012119     0.05142     0.29795  -0.0083442    0.045899
0.076431     0.04395 -0.00022403    0.053369     0.28658   0.0033489    0.037778
0.086824    0.042001    -0.01549    0.047523     0.27456    0.022837    0.022837
0.090072    0.038753   -0.028157     0.03583     0.25995     0.05272   0.0078962
0.083576    0.031282   -0.035303    0.021863     0.23006    0.083901  -0.0054209
0.066037    0.016991   -0.036278    0.012768      0.1703     0.11151    -0.01549
0.03583   0.0010752   -0.033354    0.008221     0.06961     0.12872   -0.021337
-0.0018481   -0.012242   -0.030431   0.0059473   -0.059989     0.13652   -0.022311
-0.036927   -0.021986   -0.028482   0.0056225    -0.18926     0.13457   -0.020037
-0.061288   -0.028157   -0.027183   0.0049729    -0.28703      0.1258   -0.013866
-0.070382   -0.030756   -0.025884   0.0062721    -0.33348     0.11411  -0.0057458
-0.069408   -0.030106   -0.021012    0.014068    -0.32958     0.10047  0.00010078
-0.061613   -0.028157   -0.012567    0.027385     -0.2932    0.080978 -0.00054884
-0.052193   -0.025884  -0.0044465    0.046873     -0.2474    0.054344  -0.0083442
-0.047971   -0.021986   0.0020496    0.067336    -0.20225    0.025111   -0.014191
-0.048945    -0.01614   0.0075714    0.086175     -0.1636  0.00042559  -0.0089938
-0.053817   -0.010293    0.012443    0.099492    -0.13047   -0.022311    0.009845
-0.059014  -0.0057458    0.013093     0.10534    -0.10351   -0.040825    0.031932
-0.058689  -0.0060706   0.0095202     0.10112   -0.083375   -0.057715    0.047847
-0.050894  -0.0096434   0.0062721    0.086175   -0.073955   -0.078827     0.05272
-0.036602   -0.012567   0.0065969    0.061165   -0.077528    -0.10514    0.047523
-0.020687   -0.014191    0.012119     0.02706   -0.095068    -0.13664    0.041351
-0.0096434    -0.01484    0.019914   -0.010293    -0.11845    -0.16718    0.040702
-0.0057458   -0.013541    0.023162   -0.043099    -0.14574    -0.18894    0.048497
-0.0031473   -0.008669    0.021538   -0.066485     -0.1753    -0.19771    0.063113
0.0046481  0.00010078    0.017965   -0.077203    -0.21005    -0.19121    0.079679
0.016666    0.008221    0.013418   -0.077528    -0.25227     -0.1714    0.094945
0.028684    0.012443   0.0078962    -0.07428    -0.29482    -0.14119     0.10696
0.037129   0.0091954  -0.0018481    -0.06616    -0.32568    -0.10903     0.11476
0.039402   0.0020496  -0.0096434   -0.053168    -0.33607   -0.083375     0.11508
0.036804  -0.0037969   -0.013866   -0.036278    -0.31918   -0.068434     0.10631
0.033881  -0.0054209   -0.011917   -0.022311    -0.27826   -0.061288    0.087799
0.032257  -0.0021729  -0.0073698   -0.018088    -0.22272   -0.056741    0.062789
0.032257   0.0056225  -0.0015233   -0.022311    -0.16523   -0.048296    0.037778
0.032582    0.015042   0.0026992   -0.028482    -0.11001   -0.034329    0.019914
0.031607    0.020888   0.0056225    -0.03303   -0.046671   -0.015815    0.011144
0.029009    0.023162   0.0039985   -0.037577     0.03583   0.0065969   0.0095202
0.027709    0.019914  0.00010078   -0.042124     0.13165    0.028359    0.013743
0.022512    0.014392  -0.0044465   -0.040175        0.22    0.044924    0.023162
0.013418    0.008221   -0.007045   -0.029132     0.28593    0.054993    0.035505
-0.0031473   0.0046481   -0.007045   -0.011592     0.32036    0.059216    0.045574
-0.026209   0.0023744   -0.007045   0.0065969     0.32978    0.055318    0.047847
-0.045697      0.0014   -0.007045    0.015692     0.32751    0.048822    0.040377
-0.054792      0.0014  -0.0041217    0.014717     0.32231      0.0433    0.023487
-0.048945   0.0017248  -0.0034721    0.009845     0.31224    0.041351   0.0043233
-0.034654   0.0033489  -0.0018481   0.0072465       0.296    0.042651   -0.010943
-0.020687   0.0065969   0.0033489    0.009845     0.27911    0.046223   -0.026209
-0.010618   0.0088706    0.011469    0.016016     0.26774    0.048497   -0.039201
-0.0047713    0.008221    0.019264    0.024786     0.26384    0.048172   -0.045697
-0.0015233   0.0020496    0.023487     0.03453     0.26384    0.045574     -0.0405
0.0010752  -0.0047713    0.022188    0.042651     0.26255    0.041676   -0.021661
0.0088706  -0.0073698    0.012768    0.051745      0.2502    0.037778   0.0052977
0.021863  -0.0083442  -0.0037969    0.062139     0.21935    0.036154    0.029658
0.033881   -0.011917   -0.023935     0.06961     0.16868    0.040702    0.042975
0.042975   -0.020362   -0.042449    0.067011    0.095594    0.047523    0.040702
0.053694   -0.030431   -0.058689    0.055318  -0.0054209    0.053044     0.02706
0.066037   -0.034004    -0.06681    0.039078    -0.13892    0.050771   0.0085458
0.076755   -0.021661   -0.057065     0.02706    -0.30424    0.039078   -0.010618
0.080653   0.0072465   -0.029132    0.024137    -0.47282    0.020239   -0.028157
0.076431    0.044599    0.009845    0.030308    -0.60372  -0.0037969   -0.045047
0.065712     0.07773    0.046548    0.041676    -0.66153   -0.026858   -0.060313
0.050121    0.096244    0.072208    0.055643    -0.63327     -0.0405   -0.070707
0.034206    0.097868    0.080328    0.069285    -0.53616   -0.045372   -0.070707
0.021538    0.083901    0.072208    0.076431    -0.39909   -0.044073   -0.064211
0.014717    0.062139    0.055643     0.07708     -0.2552   -0.041475   -0.055441
0.012768    0.042326     0.03518    0.072858    -0.13112   -0.038227   -0.047646
0.014068    0.027385    0.016991    0.065712   -0.037902   -0.031406   -0.041799
0.017316    0.014068   0.0036737    0.058241     0.02641   -0.021337   -0.035303
0.019914  0.00075039  -0.0060706    0.051745    0.068635   -0.010618   -0.022311
0.021213   -0.011592    -0.01549    0.048822    0.090722   0.0010752  -0.0083442
0.020564   -0.021986   -0.020037    0.051096    0.084226    0.013418   0.0010752
0.015692   -0.025559   -0.016789     0.06019    0.037778    0.026085   0.0046481
0.0033489   -0.017114  -0.0044465    0.071558   -0.043099    0.039078   0.0062721
-0.0083442   0.0036737    0.012119    0.078704    -0.13664    0.048822   0.0072465
-0.012892    0.028684    0.025111    0.073182    -0.21005    0.051096   0.0059473
-0.008669    0.049796    0.030957    0.055318    -0.24123     0.04395      0.0014
0.0017248    0.059216    0.027709    0.030308    -0.22207    0.029983  -0.0050961
0.014068    0.056292    0.020888   0.0052977    -0.16165    0.015042  -0.0093186
0.025111    0.045249    0.012443   -0.015165   -0.078503   0.0036737   -0.008669
0.030633    0.030308   0.0062721   -0.027183  0.00042559  -0.0047713  -0.0037969
0.027385    0.016341   0.0039985   -0.032055    0.060515   -0.013866   0.0023744
0.017965   0.0052977   0.0043233    -0.03238    0.095919   -0.022311   0.0065969
0.008221  -0.0021729   0.0049729   -0.031406     0.11183   -0.031406   0.0049729
0.0020496  -0.0067202   0.0036737    -0.03238     0.11703   -0.040175  -0.0037969
-0.0018481  -0.0093186      0.0014   -0.038227     0.11768   -0.048296   -0.014516
-0.0047713   -0.010293  -0.0037969   -0.045047     0.11378    -0.04927   -0.019063
-0.0093186   -0.011267   -0.010293   -0.050569     0.10729   -0.040175   -0.010943
-0.0093186   -0.010943   -0.018088   -0.053168     0.10339   -0.019712   0.0062721
0.00075039  -0.0050961   -0.021661   -0.051868     0.10826   0.0039985    0.025111
0.015692   0.0052977   -0.022311    -0.04862     0.12125    0.021538    0.039727
0.022837    0.016341   -0.019063   -0.046022      0.1362    0.028034    0.047198
0.019914    0.021213   -0.012242   -0.046671     0.14756    0.022512    0.048822
0.0072465     0.01764  -0.0044465   -0.051544     0.15179    0.013093      0.0433
-0.0057458   0.0052977   0.0017248   -0.053492     0.14886   0.0056225    0.033556
-0.013541  -0.0089938   0.0023744    -0.04862     0.14139  0.00075039    0.022512
-0.019388   -0.019063  -0.0028225   -0.033679     0.13327 -0.00022403    0.015367
-0.025884    -0.02361  -0.0099683   -0.011592     0.12613   0.0056225    0.011794
-0.034654   -0.021661   -0.017114    0.009845     0.12125    0.016991   0.0085458
-0.044398   -0.020362   -0.021337    0.023162     0.11801    0.028034   0.0043233
-0.052193   -0.024909    -0.02426    0.025436     0.11216    0.033881  -0.0044465
-0.055441    -0.03173   -0.024585     0.01829     0.10079    0.030308   -0.015815
-0.056416   -0.032705   -0.019712   0.0049729    0.080978    0.021213   -0.030106
-0.053817   -0.024585  -0.0073698  -0.0063954    0.051745    0.011144   -0.043423
-0.047321   -0.010943    0.009845   -0.012892    0.015042   0.0017248   -0.048296
-0.037577   0.0017248    0.024461   -0.015165   -0.024909  -0.0093186   -0.045372
-0.023285    0.012119    0.030633   -0.013216   -0.064536   -0.021337   -0.038227
-0.0021729    0.021213    0.026085  -0.0096434   -0.096692    -0.03303   -0.027183
0.020564    0.031607    0.016341  -0.0047713    -0.11748   -0.040175    -0.01549
0.041351    0.042975    0.010495  -0.0024977    -0.12787   -0.041799  -0.0028225
0.058566    0.053369    0.011794 -0.00087364    -0.13534   -0.037252   0.0062721
0.072858    0.061165    0.020564   0.0020496    -0.14509   -0.031081    0.011144
0.079679    0.063763    0.029983   0.0049729    -0.15061   -0.025884    0.015692
0.076106    0.060515    0.032582   0.0078962    -0.14119   -0.021986    0.019264
0.063763    0.054019    0.027385   0.0072465    -0.11066   -0.019063    0.022512
0.045899    0.048172    0.019264   0.0023744   -0.060963    -0.01549    0.023812
0.024461    0.040052    0.010819  -0.0024977  -0.0047713   -0.011917    0.024786
0.0020496    0.029983   0.0046481  -0.0057458    0.046223   -0.007045    0.030308
-0.019063    0.016991   0.0046481  -0.0047713    0.087799  -0.0028225    0.043625
-0.037577   0.0062721   0.0095202 -0.00022403     0.12483 -0.00087364    0.064088
-0.052193   0.0010752    0.012768   0.0056225     0.15796   0.0010752    0.083901
-0.064211      0.0014    0.013093    0.012768     0.18167   0.0020496    0.094295
-0.072006   0.0062721    0.012443    0.022188     0.19174   0.0010752    0.090722
-0.072331    0.012119   0.0095202    0.029983     0.18427  -0.0044465    0.078704
-0.059989    0.016341   0.0049729    0.030633     0.16413   -0.010943    0.065712
-0.038551    0.016991  -0.0028225    0.024137     0.13814    -0.01484     0.05272
-0.014516    0.014068  -0.0083442    0.013418     0.11118   -0.014516    0.038753
0.0033489     0.01017  -0.0099683   0.0049729    0.082602   -0.011592    0.027385
0.0091954     0.01017  -0.0096434   0.0049729    0.054993  -0.0067202    0.021538
0.0052977    0.010819   -0.011592    0.015042    0.032582  -0.0034721    0.021538
-0.0044465    0.011144   -0.014191    0.029009    0.020239  -0.0024977     0.02641
-0.012567   0.0095202   -0.016789    0.042326    0.016341  -0.0028225    0.028034
-0.014191    0.008221   -0.020687    0.054019    0.011794  -0.0073698    0.020564
-0.010618   0.0088706    -0.02426    0.064088   0.0059473   -0.015165   0.0043233
-0.0044465   0.0075714   -0.026858    0.071883  -0.0011985   -0.022311   -0.012567
0.0020496   0.0049729   -0.024585    0.072858  -0.0067202   -0.021337   -0.021661
0.008221   0.0010752   -0.017114    0.064088   -0.010943   -0.012242   -0.023935
0.009845  -0.0031473  -0.0063954    0.053369   -0.011267  -0.0024977   -0.022961
0.0052977  -0.0054209   0.0026992    0.044599  -0.0080194  0.00042559   -0.022636
-0.0050961  -0.0060706   0.0052977    0.041676  -0.0018481  -0.0034721    -0.02361
-0.018088  -0.0080194  -0.0015233    0.041027   0.0052977   -0.011592   -0.024909
-0.029782  -0.0099683   -0.012242    0.036804    0.012768    -0.02426   -0.022636
-0.038551   -0.011917   -0.025234    0.025761    0.016666   -0.040175   -0.019063
-0.042124   -0.014516   -0.034978    0.013743     0.01764   -0.054467   -0.016789
-0.04115   -0.019388   -0.041799   0.0072465     0.01894   -0.065835   -0.015165
-0.038227   -0.026533   -0.043748    0.009845    0.030308   -0.068434   -0.014516
-0.033354   -0.034654     -0.0405    0.018615    0.059865   -0.060963   -0.013866
-0.029132   -0.038551   -0.036927    0.032582     0.10761   -0.048296   -0.011592
-0.026858   -0.036278   -0.032705    0.045249      0.1638   -0.034654   -0.008669
-0.026533   -0.027833   -0.028157    0.051096      0.2135    -0.02361  -0.0028225
-0.031081   -0.018088   -0.024909    0.048172     0.24241    -0.01484   0.0036737
-0.036602  -0.0067202   -0.020037    0.039727     0.24046  -0.0076946   0.0072465
-0.038876   0.0085458   -0.015165    0.030308     0.21447 -0.00054884   0.0091954
-0.032705    0.028034  -0.0073698    0.021863     0.17387    0.009845    0.009845
-0.018738    0.049472   0.0039985    0.017316      0.1297    0.024137   0.0095202
-0.0031473    0.065712    0.014068     0.01764    0.086175    0.040052   0.0065969
0.0056225    0.073182     0.01894    0.022512    0.050771     0.05142   0.0026992
0.0049729    0.067661    0.017965    0.030633     0.01894    0.051745  -0.0050961
0.00010078     0.05207    0.012119    0.034206   -0.016464    0.038753  -0.0096434
-0.0021729    0.032906   0.0010752    0.030957    -0.06616    0.016991   -0.011267
0.0014    0.016016    -0.01484    0.023162    -0.13015  -0.0047713   -0.010618
0.013093   0.0049729   -0.028157    0.016991    -0.19641   -0.019712  -0.0063954
0.030957   0.0017248    -0.03173    0.016341    -0.25487   -0.021337   0.0026992
0.048822   0.0039985   -0.026858     0.01829    -0.30262   -0.012242    0.015692
0.057592   0.0036737   -0.017114    0.019264    -0.34095  0.00075039    0.028684
0.048822  -0.0044465  -0.0054209    0.021213    -0.36985    0.011144    0.038428
0.02641   -0.017764  0.00042559    0.025436    -0.38869    0.016016    0.037454
0.0026992   -0.026858  -0.0034721    0.029333    -0.39227     0.01829    0.028684
-0.0076946   -0.026858   -0.015165    0.027385    -0.37245    0.015042    0.014068
-0.0021729   -0.017764   -0.025559    0.015692     -0.3286   0.0049729  -0.0011985
0.011144  -0.0018481   -0.029782  -0.0031473    -0.27339  -0.0093186  -0.0083442
0.020564    0.013418   -0.023935   -0.023285    -0.22369   -0.021986  -0.0067202
0.020564    0.023162   -0.015165   -0.040825    -0.18991   -0.029782  0.00042559
0.010819    0.025436  -0.0083442   -0.050894    -0.17757   -0.034978   0.0059473
-0.0024977    0.017965   -0.007045   -0.053492    -0.18147   -0.043748   0.0056225
-0.011267 -0.00054884   -0.013541    -0.04927    -0.19024   -0.056416 -0.00054884
-0.014191   -0.028482   -0.022311   -0.039851    -0.19219   -0.072006   -0.012242
-0.012242   -0.058689   -0.027833   -0.028157    -0.18309   -0.092469   -0.025234
-0.0060706   -0.081101   -0.026533   -0.016464    -0.16133    -0.11715   -0.034004
0.0075714   -0.086298    -0.01614  -0.0093186     -0.1269    -0.13892   -0.036927
0.028034   -0.072981  -0.0041217  -0.0093186   -0.079802    -0.15548   -0.034654
0.049796   -0.048945  0.00075039    -0.01549   -0.025559     -0.1688    -0.03173
0.066037   -0.024585 -0.00087364   -0.021337    0.021538    -0.18212   -0.030431
0.070584  -0.0089938  -0.0060706   -0.024585    0.053044    -0.19478   -0.030756
0.064088  -0.0047713  -0.0093186   -0.027183    0.064413     -0.2029   -0.028807
0.049472  -0.0050961  -0.0076946   -0.032705    0.059541     -0.2042   -0.021012
0.033556  -0.0044465  0.00010078   -0.039526      0.0433    -0.19836  -0.0063954
0.016341  0.00042559    0.014068   -0.045697    0.024786    -0.18569     0.01017
0.0023744   0.0059473    0.029009   -0.046996    0.010819    -0.16653    0.025436
-0.007045   0.0091954    0.042001   -0.044723      0.0014    -0.13794    0.040377
-0.0099683    0.010819    0.048822   -0.037902  -0.0011985    -0.10156    0.054019
-0.0047713    0.012443    0.047198   -0.027833   0.0075714   -0.062912    0.061489
0.003024    0.014717    0.037129   -0.018738    0.021213   -0.028157     0.06019
0.0059473    0.017965    0.020564   -0.012892    0.031607 -0.00022403     0.05142
0.0039985    0.020888   0.0026992  -0.0080194    0.033556    0.022188    0.035505
0.0039985    0.022837   -0.012242  -0.0076946    0.021863    0.042651    0.015692
0.0078962    0.025111   -0.019712   -0.011592   0.0059473    0.062789  -0.0044465
0.014392     0.02641   -0.018738   -0.017439  -0.0015233    0.079354   -0.024585
0.023812    0.022837   -0.010943   -0.024585   0.0046481    0.089423   -0.045372
0.033556    0.011794  -0.0018481   -0.029132     0.01829    0.092346   -0.067784
0.038428 -0.00054884   0.0052977   -0.030431    0.030957    0.091047   -0.090845
0.032582  -0.0089938   0.0056225   -0.031406    0.040052    0.090072    -0.11033
0.016016    -0.01484 -0.00087364   -0.036602    0.040377    0.091372    -0.12105
-0.011267   -0.019063   -0.011592    -0.04862    0.039078     0.09397    -0.12365
-0.040825    -0.02426   -0.018088   -0.062262    0.040377    0.095919    -0.12268
-0.059014   -0.029782   -0.016789   -0.072981    0.047847    0.099167    -0.11683
-0.055766    -0.03173  -0.0057458   -0.072656    0.057917     0.10664    -0.10254
-0.030756   -0.025559   0.0095202    -0.05804    0.070584     0.12255   -0.080127
0.0052977   -0.013541    0.019264   -0.028157    0.080328     0.14042   -0.053492
0.040052  0.00075039    0.019264    0.008221    0.086175     0.15309   -0.030756
0.062789    0.011469    0.012119    0.039727    0.095269     0.15633   -0.017764
0.06961    0.014068   0.0026992    0.061489     0.12028     0.15276   -0.019712
0.061165   0.0088706  -0.0060706     0.06896     0.17127     0.14821   -0.036927
0.039727 -0.00022403   -0.010618    0.063113     0.23981     0.14399   -0.056091
0.0088706  -0.0080194  -0.0076946     0.05142     0.30347     0.13457   -0.067459
-0.019388   -0.013541   0.0062721    0.039727      0.3457     0.12353   -0.068109
-0.035628   -0.016789    0.023487    0.033881     0.35869     0.11443   -0.054792
-0.034654    -0.01614    0.040377    0.034206     0.34245     0.11151   -0.030431
-0.017439   -0.010293    0.050446    0.041351      0.3025     0.11054  -0.0031473
0.0065969  -0.0011985     0.05207    0.049147     0.25215     0.10436    0.018615
0.028034   0.0088706    0.046873     0.05142     0.20311     0.08585    0.034855
0.039078    0.016991    0.040052    0.046548      0.1638    0.058241    0.045899
0.039078    0.023487    0.034855    0.038428     0.13165    0.023812    0.051745
0.03518    0.024786    0.032257    0.033231     0.09397   -0.016789    0.054344
0.035505    0.021863    0.031282     0.03453    0.038753   -0.061613    0.057267
0.041676    0.021213    0.033556    0.039078   -0.039526    -0.10709    0.062464
0.045574    0.024786    0.038103      0.0433    -0.14736    -0.14736    0.067336
0.045249     0.02706    0.039727    0.042975    -0.28605    -0.17497    0.071558
0.038428    0.025111    0.034206    0.037454    -0.44489    -0.18894    0.076755
0.033231    0.020239    0.026085    0.029983     -0.5904    -0.19154    0.080978
0.030308    0.015367    0.017965    0.022837    -0.67907    -0.18731    0.084876
0.029983    0.015042    0.013743    0.018615    -0.68557    -0.17854    0.089423
0.028034    0.020239   0.0095202    0.015042    -0.60956    -0.16588    0.090397
0.023487     0.02641   0.0023744    0.011469    -0.48159    -0.14866    0.086824
0.017965     0.02706  -0.0041217   0.0085458    -0.33672    -0.12625    0.078379
0.0095202    0.020888  -0.0054209    0.009845    -0.20583    -0.10124    0.065062
-0.0034721    0.013093  -0.0047713    0.013743    -0.10774   -0.076229    0.045899
-0.016789   0.0088706  -0.0083442    0.015367   -0.043099   -0.051544     0.02706
-0.025559     0.01017   -0.015165    0.012119  -0.0057458   -0.027508    0.014068
-0.028157    0.018615   -0.021337   0.0043233    0.025111  -0.0037969   0.0065969
-0.02361    0.031607   -0.022961  -0.0034721     0.06896    0.020239    0.003024
-0.014191    0.040377   -0.020687   -0.010943     0.12937    0.037454   0.0010752
-0.0050961    0.038428    -0.01484   -0.013866     0.18751    0.041027  -0.0041217
-0.00054884     0.02706  -0.0041217   -0.011267     0.21642    0.031607   -0.011267
-0.00087364    0.010495   0.0069217  -0.0047713      0.2057    0.016666    -0.02361
0.0017248  -0.0034721    0.013743   0.0033489     0.16283   0.0023744   -0.037252
0.013418   -0.011592    0.016016    0.010819     0.11151  -0.0073698   -0.045047
0.028359   -0.011917    0.012768    0.015367    0.070909  -0.0073698   -0.041799
0.040052  -0.0080194   0.0056225    0.015367      0.0433 -0.00054884   -0.030106
0.038428  -0.0050961  -0.0028225    0.013418     0.01764    0.011794    -0.01549
0.024137  -0.0050961   -0.010943    0.012443   -0.011917    0.025111  -0.0024977
0.0046481  -0.0067202   -0.018413    0.016016   -0.043748    0.035505   0.0056225
-0.012567  -0.0096434   -0.025884    0.021213   -0.069083    0.044924   0.0085458
-0.02361   -0.012567   -0.030756    0.024137   -0.078827    0.056617   0.0072465
-0.030431   -0.011592   -0.031406    0.022837   -0.067459    0.070259   0.0052977
-0.037577  -0.0080194   -0.027183     0.01829   -0.040825    0.083901   0.0036737
-0.044723  -0.0028225   -0.017114    0.013093   -0.014516    0.098517   0.0036737
-0.051868   0.0033489  -0.0041217   0.0091954  -0.0011985     0.11346   0.0088706
-0.056416   0.0091954   0.0056225   0.0033489  0.00010078     0.12353    0.023812
-0.058365   0.0095202   0.0085458  -0.0015233   0.0069217     0.12515    0.042001
-0.058365   0.0043233  0.00042559  -0.0083442    0.032582     0.11573    0.053694
-0.056091  -0.0047713   -0.016789   -0.020362    0.078379    0.093321    0.054019
-0.055766   -0.013541   -0.038227   -0.036278     0.12807    0.062789     0.04395
-0.060313   -0.021661   -0.051219   -0.053168     0.15991    0.032906    0.028034
-0.070058   -0.029457   -0.053168   -0.068109     0.15698   0.0095202    0.017316
-0.083375   -0.039201   -0.047646   -0.075255     0.10631  -0.0067202    0.010819
-0.098965   -0.050244   -0.041799    -0.07493 -0.00022403    -0.01549   0.0052977
-0.11033   -0.059014   -0.036927   -0.067459    -0.15873   -0.020037  -0.0021729
-0.10968   -0.061288   -0.035303   -0.052843    -0.33932   -0.020037  -0.0054209
-0.09182    -0.05804   -0.034978    -0.03173    -0.49231    -0.01549   0.0017248
-0.059664   -0.045372   -0.034004  -0.0060706    -0.56799  -0.0044465    0.016991
-0.021661   -0.027183    -0.03173    0.018615    -0.55012    0.011144    0.032906
0.010495  -0.0067202   -0.031081    0.036154    -0.45788     0.02641     0.03518
0.025436    0.010819   -0.029782    0.044275    -0.33218    0.038103    0.014717
0.022837    0.022188   -0.027508    0.040377    -0.21232    0.046873   -0.027833
0.008221    0.028684    -0.02361    0.028684    -0.12527    0.050771   -0.080451
-0.0080194    0.029658    -0.01549    0.016016   -0.078827    0.048822    -0.13047
-0.020362    0.025761  -0.0067202   0.0095202   -0.070382    0.038753    -0.16328
-0.032055     0.01829 -0.00087364    0.010819     -0.0824    0.024786    -0.17205
-0.046671   0.0078962 -0.00054884     0.01829    -0.09117    0.014717    -0.15678
-0.058689  -0.0028225  -0.0044465    0.026085     -0.0824    0.019914     -0.1256
-0.059664  -0.0080194  -0.0096434    0.028359   -0.057715    0.046873   -0.086298
-0.051544  -0.0050961   -0.012242    0.023812   -0.022961    0.090397   -0.044723
-0.035628   0.0020496   -0.013541    0.015692   0.0091954     0.13587  -0.0041217
-0.017439   0.0078962  -0.0093186   0.0088706    0.033556     0.16738     0.03518
-0.0015233    0.011469  -0.0015233    0.010495    0.054993     0.17907    0.069285
0.0065969    0.014717   0.0085458    0.022837    0.074806     0.16803    0.095269
0.0043233     0.01764    0.015692    0.039078    0.098193     0.14107     0.11671
-0.0034721    0.022512    0.016991    0.049796     0.12678     0.10826     0.13327
-0.010618    0.029009    0.010819    0.049147     0.15633    0.076755     0.14302
-0.013541    0.030308 -0.00054884    0.038753     0.18427    0.046548     0.14626
-0.010618    0.021538   -0.013541    0.027385     0.20376    0.013743     0.14594
-0.0083442   0.0036737    -0.02426    0.022512     0.21675   -0.022961     0.14464
-0.010293   -0.017114   -0.025234    0.028034     0.22519    -0.05804     0.14107
-0.012242   -0.029782    -0.01484    0.044275     0.22941   -0.088247     0.13717
-0.0093186   -0.025559   0.0059473    0.062139     0.23266    -0.11423       0.131
0.0020496  -0.0041217    0.027385    0.070584     0.23461    -0.13827      0.1232
0.021538    0.027709    0.041351    0.065062     0.23494     -0.1649     0.11508
0.041676    0.059865    0.045574    0.049147     0.23331    -0.19706     0.10209
0.057592    0.083901    0.039078    0.032257     0.23169    -0.23051    0.078704
0.066686    0.093645    0.024137    0.017965     0.23429    -0.26364    0.047198
0.064088    0.085525   0.0026992   0.0091954     0.23883    -0.29385    0.014717
0.054019    0.063763   -0.017114   0.0017248      0.2463    -0.31951    -0.01484
0.039402     0.03518   -0.035303  -0.0060706     0.25248    -0.33445   -0.038876
0.025111   0.0091954    -0.04862   -0.014191     0.25378    -0.33315   -0.056741
0.013418  -0.0050961   -0.052843   -0.019712     0.24923    -0.31106   -0.067784
0.0069217  -0.0031473   -0.045047   -0.022961     0.24013    -0.27111   -0.070707
0.0043233    0.011794   -0.024585   -0.021661     0.22779    -0.22109   -0.064536
0.0056225    0.030957  -0.0011985    -0.01614     0.21025    -0.16945   -0.055116
0.0095202    0.046548    0.020239  -0.0076946     0.19141    -0.12073   -0.044398
0.011144    0.055643    0.031607  0.00042559      0.1716   -0.078503   -0.030106
0.0059473    0.054019    0.031607   0.0091954     0.15828   -0.047321   -0.015815
-0.0041217    0.046223    0.024786    0.022512     0.14886   -0.028157  -0.0080194
-0.012242    0.039727    0.015692    0.036154     0.13847   -0.016789  -0.0080194
-0.013866    0.039078   0.0091954     0.04395     0.12385  -0.0041217   -0.012567
-0.010943    0.045899   0.0091954    0.045899     0.10501    0.013418   -0.018738
-0.0047713    0.061814    0.013743    0.042975    0.083251    0.031932   -0.027833
0.0020496    0.079679    0.018615    0.034206    0.060515    0.047523   -0.043099
0.0069217    0.089748    0.022512    0.022512    0.038753    0.058566   -0.064536
0.011144    0.088773    0.020239   0.0078962    0.022837    0.064737   -0.086948
0.014392    0.075781   0.0085458  -0.0034721    0.015692    0.065062    -0.09994
0.016991    0.053694  -0.0099683   -0.010293    0.013093    0.059216    -0.10026
0.024137    0.029009   -0.028157  -0.0083442    0.011144    0.050121   -0.086948
0.035505   0.0043233   -0.041475  -0.0024977   0.0062721    0.039727   -0.065835
0.048497   -0.016789   -0.045697   0.0065969 -0.00054884    0.034855   -0.044073
0.055968   -0.026858   -0.039201    0.016666  -0.0067202    0.033231   -0.030106
0.055968   -0.026533    -0.02361    0.023487   -0.007045    0.030308    -0.02426
0.048822   -0.020687  -0.0083442    0.022188  -0.0067202    0.023162   -0.022636
0.038428   -0.015165    0.003024    0.014068   -0.011592    0.013418   -0.021337
0.024137   -0.013216     0.01017   0.0039985   -0.018738   0.0039985   -0.021661
0.0075714   -0.012567    0.021538  -0.0041217   -0.020687  -0.0021729   -0.021986
-0.0089938   -0.010943    0.037129  -0.0083442   -0.010293  -0.0050961   -0.025559
-0.023935  -0.0076946    0.051745   -0.008669    0.010819  -0.0073698    -0.03173
-0.034654  -0.0060706    0.061165  -0.0060706    0.036479   -0.011267   -0.038227
-0.040825  -0.0050961    0.065062  -0.0037969    0.055643   -0.016789   -0.043099
-0.042774  -0.0047713    0.064413 -0.00087364    0.059216   -0.023285   -0.044398
-0.040175   0.0010752    0.061165   0.0026992    0.047198   -0.031406   -0.040175
-0.03173    0.010495    0.057592     0.01017    0.023487   -0.040825   -0.028807
-0.01614    0.021863    0.053044    0.020564  -0.0093186   -0.047971  -0.0099683
0.0056225    0.029983    0.050771    0.030308   -0.046671   -0.053168   0.0095202
0.028034    0.032906    0.047198    0.038428   -0.085648   -0.052193    0.019914
0.043625    0.033231    0.042326    0.042651    -0.12235   -0.045697    0.019264
0.052395    0.031932    0.037129    0.039078    -0.15386   -0.035628    0.011794
0.054668    0.030308    0.029658    0.028034    -0.17757   -0.025884   0.0046481
0.055318     0.02706    0.014392    0.013743    -0.19576   -0.017439   0.0010752
0.055968    0.021213  -0.0076946   0.0023744    -0.21427  -0.0096434   0.0036737
0.055643    0.011469   -0.028807  -0.0060706    -0.23344 -0.00022403    0.012768
0.05272  0.00042559   -0.038551   -0.010293       -0.25   0.0091954    0.024786
0.045899   -0.010293   -0.035953   -0.014191    -0.26104    0.015042     0.03453
0.033231   -0.021012   -0.025559   -0.019388    -0.26429     0.01764    0.040702
0.019264   -0.027508   -0.010618   -0.025559     -0.2526    0.017316    0.044275
0.0085458   -0.029457   0.0036737   -0.028157    -0.22402    0.016016    0.046873
0.0020496   -0.024585    0.011144   -0.024909    -0.18017     0.01764    0.046223
0.0020496   -0.013866   0.0088706   -0.015815    -0.12365    0.020239    0.044599
0.010495  -0.0024977  -0.0015233   -0.007045   -0.061288    0.019589    0.040702
0.022512   0.0036737    -0.01484  -0.0034721   0.0010752    0.014392    0.034855
0.02706 -0.00022403   -0.026858  -0.0044465    0.053694   0.0036737    0.027709
0.01829   -0.010293   -0.039201  -0.0076946    0.096893  -0.0067202     0.01894
-0.00022403   -0.024909    -0.04927  -0.0089938     0.12905   -0.013216   0.0078962
-0.017764   -0.037902   -0.057715  -0.0073698     0.14854    -0.01614  -0.0060706
-0.029132   -0.045047   -0.062262  -0.0011985     0.15958   -0.017764   -0.020362
-0.027508   -0.045047   -0.062587   0.0069217     0.16835   -0.019712    -0.03238
-0.014191   -0.043748   -0.062912    0.013093     0.17387   -0.027183   -0.035303
0.0023744   -0.043748   -0.064211    0.014392     0.16868   -0.036602   -0.023285
0.014717   -0.047971   -0.065835    0.012443     0.14594   -0.037577  -0.0015233
0.018615    -0.04927   -0.065186    0.009845     0.10501    -0.02426    0.020564
0.015692   -0.043748   -0.058689   0.0062721    0.042975  -0.0041217     0.03453
0.0091954    -0.03238   -0.049595   0.0023744   -0.033679    0.015367    0.038753
0.0062721   -0.019063   -0.038551  0.00010078     -0.1217    0.028684    0.035505
0.0091954  -0.0096434   -0.027508   0.0026992    -0.21427    0.036479    0.026085
0.015042  -0.0096434   -0.020687   0.0069217    -0.30424    0.042975    0.015042
0.01764   -0.018413   -0.017114    0.010495    -0.38577    0.052395   0.0078962
0.013743    -0.03173  -0.0096434    0.013743    -0.45463    0.067336   0.0039985
0.0046481   -0.040825   0.0020496    0.014717    -0.50303      0.0865   0.0056225
-0.0037969   -0.041475    0.015692    0.015692    -0.52739     0.10339    0.012119
-0.0083442   -0.033679    0.027385    0.019914    -0.52836     0.11281    0.019914
-0.010943   -0.021661    0.031282    0.029333    -0.50692     0.11054     0.02706
-0.0096434  -0.0073698    0.028684     0.03453    -0.46535    0.099167    0.029333
-0.0037969   0.0023744    0.020888    0.029333    -0.40948    0.075781    0.028684
0.0065969   0.0049729    0.011144     0.01829    -0.34907    0.047523    0.026085
0.019264      0.0014   0.0033489   0.0072465     -0.2919    0.019264    0.022837
0.030308  -0.0044465  -0.0024977   0.0017248    -0.24058  -0.0024977    0.020239
0.035505  -0.0060706  -0.0063954   0.0010752    -0.20096   -0.017439    0.020239
0.037778 -0.00087364  -0.0063954   0.0033489      -0.174    -0.02361    0.025761
0.038428    0.012443  -0.0015233   0.0078962    -0.15093   -0.018088    0.036479
0.039727    0.028034   0.0059473   0.0078962      -0.123  -0.0037969    0.051096
0.042326    0.039402     0.01017   0.0020496   -0.085648    0.014392    0.067011
0.041676     0.04395    0.009845  -0.0089938   -0.047646    0.025761    0.077405
0.03518    0.041676   0.0085458   -0.020037   -0.018413    0.028359    0.080328
0.02706     0.03583    0.010495   -0.020362  0.00075039     0.01894    0.076755
0.019914    0.030633    0.016666  -0.0083442    0.016666   0.0033489     0.06896
0.016016    0.027709    0.026085    0.013418    0.032257  -0.0080194    0.056942
0.013093    0.022837    0.031932    0.038103    0.042651  -0.0083442    0.041027
0.0059473    0.010495    0.030633    0.054993    0.049796 -0.00087364    0.030633
-0.0034721  -0.0047713    0.023812    0.062139    0.052395    0.011144    0.029658
-0.011917   -0.019063    0.019589    0.058891    0.055318    0.023162    0.033231
-0.016464   -0.025559    0.021863     0.05142    0.059216    0.031932     0.03453
-0.01484   -0.023285    0.026085    0.040702    0.061814    0.036479    0.032582
-0.0073698   -0.015165    0.029333    0.025761    0.064088     0.03518     0.02706
0.00042559  -0.0067202    0.029983     0.01017    0.064088    0.029983     0.01829
0.011794  -0.0011985    0.030633  -0.0047713     0.06084    0.023812    0.011144
0.025761  0.00010078    0.029333   -0.015815    0.057592    0.014068   0.0056225
0.038428    0.003024    0.029333   -0.021012    0.062464      0.0014      0.0014
0.045574    0.011469     0.02706   -0.021337    0.073182   -0.013866  -0.0024977
0.045574    0.025761    0.020239   -0.020037    0.082927   -0.026209  -0.0031473
0.033881    0.038428    0.013743   -0.020362    0.087799   -0.032055      0.0014
0.015042    0.042001   0.0085458   -0.025559    0.086175   -0.029782   0.0088706
-0.0028225     0.03583   0.0017248   -0.034329    0.075456   -0.022311     0.01764
-0.013541    0.023162  -0.0073698   -0.037577    0.062139   -0.010943    0.029333
-0.017439    0.011144   -0.012892   -0.030756    0.053369 -0.00087364    0.040052
-0.021012   0.0059473   -0.012892   -0.014516    0.051745   0.0043233    0.043625
-0.027183   0.0091954   -0.010293   0.0039985    0.057267  0.00042559    0.037454
-0.034654    0.022512  -0.0080194    0.014068    0.064413   -0.010943    0.020564
-0.038876    0.039078  -0.0073698     0.01894    0.074482   -0.022636  -0.0021729
-0.042449    0.053694   -0.010943    0.019264    0.088773   -0.029782   -0.021661
-0.045697    0.062789   -0.019063    0.016991     0.10534   -0.029132   -0.031081
-0.048296    0.061165   -0.026858    0.015042     0.11801   -0.021661   -0.032055
-0.047971    0.044275   -0.029132    0.013743     0.12385   -0.010943   -0.028807
-0.043423     0.01764   -0.022636    0.014068     0.12613  0.00010078   -0.026533
-0.03238   -0.010943   -0.010293    0.014068     0.12645   0.0059473   -0.026533
-0.024585   -0.034004   0.0056225    0.012443     0.12223   0.0036737   -0.029782
-0.026533   -0.047321    0.016666   0.0078962     0.11183  -0.0067202   -0.036602
-0.038551   -0.051868     0.01894   0.0033489    0.093321   -0.021337   -0.044723
-0.052193   -0.050244    0.009845   0.0043233    0.072533   -0.035303   -0.050894
-0.056741   -0.048945  -0.0057458   0.0091954    0.055968   -0.044723   -0.051868
-0.048945    -0.04992   -0.021012     0.01894    0.046548   -0.047321   -0.050569
-0.028807   -0.053492    -0.03303    0.029009    0.049472   -0.048296   -0.051868
-0.007045   -0.050569   -0.035628    0.031932    0.062139   -0.051219   -0.058689
0.0088706   -0.034978    -0.03173    0.029658     0.07708   -0.052193   -0.068109
0.016016  -0.0057458   -0.023935    0.030308    0.080003   -0.050244   -0.071357
0.016666    0.030633   -0.014191    0.038428    0.063113   -0.045372   -0.068109
0.016666    0.059541  -0.0015233    0.051745    0.028034   -0.038551   -0.059664
0.015042    0.078055   0.0091954    0.063763   -0.021337   -0.031406   -0.048945
0.009845    0.084551    0.012768    0.066686   -0.078503   -0.026533   -0.045047
0.0017248    0.080003   0.0085458    0.058566    -0.13145   -0.030431   -0.049595
-0.012242    0.069285   0.0010752    0.044275    -0.17075   -0.044073   -0.060638
-0.030106     0.05272   -0.008669    0.029983    -0.19316   -0.059664   -0.070058
-0.046022    0.033231   -0.016789    0.016016    -0.19543   -0.069408   -0.071032
-0.056091    0.015367   -0.021337   0.0036737    -0.17952   -0.072656   -0.064536
-0.053817   0.0049729    -0.02426  -0.0050961    -0.14834   -0.070707   -0.055116
-0.039851   0.0036737   -0.023935   -0.010293    -0.10384   -0.062587   -0.048945
-0.02426    0.011144   -0.022311    -0.01549   -0.051219    -0.04862     -0.0405
-0.012892    0.019589   -0.020362   -0.021986   0.0036737   -0.036278   -0.029782
-0.0063954    0.024786   -0.021337   -0.032705    0.051745   -0.025884   -0.021986
-0.0073698    0.021213   -0.022311   -0.042774    0.086175   -0.020687   -0.017764
-0.0080194    0.013743   -0.022636   -0.049595     0.10501   -0.019712    -0.01549
-0.0028225   0.0085458   -0.021012    -0.04992     0.11118   -0.020687   -0.012242
0.008221   0.0088706   -0.016464   -0.047646     0.11281   -0.025234  -0.0067202
0.022837    0.014068  -0.0083442   -0.046022     0.11703   -0.033679  -0.0054209
0.036479     0.01764  0.00010078   -0.050244     0.12645   -0.046022  -0.0076946
0.042651    0.016341    0.008221   -0.056741     0.14237   -0.059014   -0.013866
0.037778    0.011144    0.013093   -0.059014      0.1638   -0.065186   -0.024909
0.028359   0.0020496    0.010495   -0.052843     0.18719   -0.065186   -0.040175
0.014717  -0.0099683   0.0033489     -0.0405     0.20863   -0.061288   -0.057715
-0.0050961   -0.019712  -0.0034721   -0.024909     0.22259   -0.053492   -0.072981
-0.029132   -0.028807  -0.0083442   -0.007045     0.22227   -0.044723   -0.081426
-0.052518   -0.036602   -0.012242    0.011469     0.20343   -0.032055   -0.079477
-0.06616    -0.04115    -0.01614    0.025761     0.17062   -0.019388   -0.068758
-0.06681   -0.043099   -0.018738    0.032906     0.13457   -0.014191   -0.053817
-0.060638   -0.044723   -0.023285    0.032906     0.10274   -0.021012   -0.040825
-0.052843   -0.046022   -0.029457    0.029333    0.077405   -0.037577   -0.030106
-0.046671   -0.047646   -0.031406    0.026085    0.057267   -0.053492   -0.018738
-0.036927   -0.047321   -0.023935    0.029658    0.038428   -0.061937  -0.0076946
-0.024585   -0.043748  -0.0099683    0.037778    0.017965   -0.059014   0.0010752
-0.013866   -0.036927   0.0020496    0.044924  0.00042559   -0.045047   0.0095202
-0.008669   -0.030756   0.0069217    0.043625  -0.0057458   -0.027833    0.016016
-0.0096434   -0.027508   0.0043233    0.032257    0.003024   -0.012567    0.022837
-0.01549   -0.027508  -0.0021729     0.01894    0.010819  -0.0054209    0.029009
-0.02426   -0.024909  -0.0080194    0.013093   0.0020496  -0.0047713    0.032257
-0.030756    -0.01614   -0.012242    0.016341   -0.028807  -0.0099683    0.031282
-0.030431      0.0014   -0.012242    0.026085   -0.080127    -0.01549    0.031282
-0.022961    0.027709  -0.0054209    0.038428    -0.14054    -0.01549    0.033881
-0.0096434    0.052395   0.0075714    0.046548    -0.19154   -0.010293    0.043625
0.0072465    0.067986    0.018615    0.046223    -0.22272   0.0010752    0.057917
0.019589    0.071883    0.021538    0.034855    -0.23668    0.015042    0.075781
0.026085     0.06831    0.015042    0.011794    -0.24286    0.024786    0.089098
0.027385    0.059216    0.008221   -0.018088    -0.24513     0.02641    0.088773
0.025111    0.048497   0.0052977   -0.043748    -0.23961    0.014392    0.076755
0.019264    0.042651   0.0095202   -0.054792    -0.22564  -0.0063954    0.058241
0.015042      0.0433    0.013093   -0.052843     -0.2016   -0.027183    0.042001
0.011794    0.045899    0.014392   -0.042124    -0.16718   -0.040175    0.032906
0.0095202    0.046873    0.010819   -0.029782    -0.12203   -0.042449    0.033556
0.008221    0.044924   0.0026992   -0.018738   -0.072981   -0.034329    0.040702
0.0075714    0.040377  -0.0037969   -0.011267   -0.024909   -0.017764     0.05142
0.010819     0.03518  -0.0034721  -0.0063954    0.016666   0.0026992    0.065387
0.01829    0.033881   0.0017248  -0.0041217    0.050121    0.023487    0.079029
0.027709    0.034206   0.0052977  -0.0041217    0.079354    0.039727    0.091696
0.036154    0.036154   0.0056225  -0.0083442     0.10371    0.047847     0.10047
0.041676    0.036154   0.0043233   -0.010943     0.12872    0.050771     0.10306
0.050771    0.028684   0.0043233  -0.0076946     0.15698    0.053369    0.098193
0.064413    0.016666   0.0052977      0.0014     0.19369    0.057267    0.083251
0.080978   0.0072465   0.0072465    0.014717     0.24176    0.062789    0.065062
0.092996  0.00042559     0.01017    0.023487     0.29892    0.066686     0.05207
0.099492  -0.0031473    0.016016    0.026085     0.34797    0.067336    0.048497
0.10242  -0.0044465    0.023162    0.025436     0.36778    0.063763     0.05207
0.10242  -0.0054209     0.02706    0.024137     0.33758    0.055643    0.058566
0.098517   -0.007045    0.023487    0.027385     0.24728    0.046548    0.059216
0.089423   -0.008669    0.013093    0.033881     0.11216    0.038428    0.051745
0.075781   -0.010618      0.0014    0.042001   -0.028482     0.03453    0.038428
0.054344   -0.010943  -0.0063954     0.05142    -0.12885    0.038103    0.030633
0.023162  -0.0083442  -0.0096434    0.058241    -0.16588    0.049147    0.032257
-0.012892  -0.0083442   -0.011592    0.059865    -0.13859    0.066686    0.039402
-0.045697   -0.010293   -0.014191    0.054344   -0.071357    0.087149    0.046548
-0.067459   -0.017439   -0.016464    0.041351    0.012119     0.10144    0.046873
-0.076554   -0.026209   -0.017439    0.025111    0.092671     0.10436    0.040377
-0.078178   -0.032705   -0.016789    0.011794     0.15406    0.098517    0.031282
-0.075255   -0.034329   -0.012242   0.0046481     0.18589      0.0865    0.022188
-0.068434   -0.032055  -0.0047713   0.0046481     0.18459     0.06961    0.016341
-0.062587   -0.027833   0.0059473    0.011144     0.15081    0.054344    0.014392
-0.056416   -0.020687    0.015692    0.021863    0.093645    0.044924    0.014392
-0.047321   -0.012892    0.021863    0.033556    0.022837    0.040702    0.014068
-0.033679   -0.008669    0.024137    0.042651   -0.060963    0.041027    0.012119
-0.019388   -0.010293    0.025111    0.045574     -0.1727    0.041676    0.010819
-0.0031473   -0.014191    0.024137      0.0433    -0.32048    0.039402    0.010819
0.015692   -0.012242    0.022837     0.03583    -0.49166    0.035505    0.010495
0.042326  -0.0018481    0.024137     0.02706    -0.65016    0.030957     0.01017
0.071234     0.01894    0.028684    0.019264    -0.75767    0.024137   0.0069217
0.094295    0.044275    0.035505    0.012443    -0.78951    0.016666  -0.0034721
0.10761    0.065712    0.039727   0.0043233    -0.74436    0.011794   -0.025884
0.10956    0.079029    0.039078  -0.0073698    -0.64042   0.0091954   -0.059014
0.10242    0.078379     0.03583   -0.018738    -0.49978   0.0046481   -0.098641
0.088773    0.069934    0.029983   -0.026858     -0.3429  -0.0028225    -0.13664
0.071883    0.058241    0.019914    -0.03238    -0.19576   -0.014191    -0.16393
0.055643    0.048172   0.0088706   -0.036927    -0.08305   -0.026858    -0.16912
0.039402    0.041027  0.00010078    -0.04115    -0.01614     -0.0405    -0.14899
0.023162    0.034855  -0.0060706   -0.042774     0.01017   -0.052843    -0.11033
0.0056225     0.02706   -0.015815   -0.039201    0.011794   -0.062262   -0.062912
-0.010293    0.017316   -0.028482   -0.029782   0.0052977   -0.068434   -0.018088
-0.017439   0.0046481   -0.039201   -0.018088   0.0078962   -0.066485    0.016666
-0.013866   -0.011267   -0.040825  -0.0067202    0.027385    -0.05804    0.040052
-0.0050961   -0.027183   -0.036927  -0.0011985     0.06019   -0.048296    0.055643
0.0026992    -0.04115   -0.034329  -0.0063954    0.092346   -0.046022    0.067986
0.011144   -0.050894   -0.037902   -0.018088     0.10956   -0.060313    0.081303
0.01894   -0.055116   -0.043423   -0.028157     0.10826   -0.087272    0.099167
0.023487   -0.051868   -0.048296   -0.031081    0.098517    -0.11683     0.12028
0.022837   -0.042449   -0.047646   -0.023935    0.092996    -0.13827     0.14009
0.016991   -0.029132   -0.038551  -0.0073698    0.097218    -0.14899     0.15438
0.0043233   -0.015165   -0.022311    0.014068     0.11151    -0.14931     0.15958
-0.0089938  -0.0041217  -0.0054209    0.032906     0.13295    -0.13957     0.15536
-0.017764   0.0052977   0.0078962    0.044275     0.14886    -0.12592     0.14139
-0.017439    0.013743    0.012119    0.045249     0.15601    -0.11228     0.12125
-0.010293    0.021863   0.0078962    0.037129     0.16218    -0.10416    0.098842
-0.00087364    0.026085  -0.0021729    0.023487     0.17322    -0.09929    0.073182
0.0069217    0.024786   -0.010943    0.012119     0.18654   -0.095393    0.045574
0.0095202     0.01829    -0.01614   0.0069217     0.19953   -0.088572    0.022188
0.010495    0.010819   -0.017764    0.008221     0.21025   -0.079477   0.0072465
0.012119   0.0065969   -0.017439    0.011794     0.22129   -0.063561   0.0072465
0.011794   0.0069217   -0.015815    0.013093     0.23364   -0.037902    0.019264
0.010819    0.014068   -0.012892    0.012119     0.23786  -0.0057458    0.033881
0.012768    0.024461   -0.010618   0.0078962     0.22747    0.029333     0.04395
0.01764    0.037129  -0.0063954   0.0046481     0.20181    0.056292    0.044275
0.020888    0.047198   0.0026992   0.0023744     0.16445    0.067661     0.03453
0.017316     0.05207    0.016991   0.0023744     0.11995    0.064088     0.01764
0.0065969    0.053369    0.029658   0.0065969    0.076755     0.05272  -0.0028225
-0.0083442    0.052395    0.033231    0.014068    0.042975    0.041351    -0.02426
-0.025234    0.050446    0.024137    0.025436     0.01764    0.036804   -0.037252
-0.038876    0.047847   0.0059473     0.03453  -0.0011985    0.042975   -0.043748
-0.045372    0.042975    -0.01484    0.036804   -0.014516    0.056617   -0.043099
-0.045372    0.033231   -0.034329    0.033231   -0.019063     0.06961   -0.037252
-0.044398    0.015367   -0.047971    0.027709   -0.017439    0.075131   -0.029782
-0.047971  -0.0096434   -0.052843    0.023487   -0.010943     0.06961    -0.02361
-0.055116   -0.034654   -0.047646    0.026735  0.00010078    0.058241   -0.020037
-0.063561   -0.052193   -0.033354    0.035505    0.010819    0.044924    -0.01614
-0.067134    -0.05739   -0.011267    0.044599    0.016991    0.034855   -0.013216
-0.062587   -0.046671    0.012768    0.044924     0.01764    0.024461   -0.012242
-0.058365   -0.026209    0.033556    0.038753    0.013418    0.011144   -0.016789
-0.056416  -0.0057458    0.045899    0.032582    0.011794  -0.0037969   -0.024585
-0.053817    0.008221    0.046873    0.031282    0.015042    -0.01484   -0.031081
-0.04927    0.010819     0.03583    0.033556    0.023487   -0.019388   -0.036602
-0.042449  0.00075039    0.015042     0.03518    0.036804   -0.018413   -0.045372
-0.036927   -0.017114  -0.0011985    0.037129    0.054019   -0.013866   -0.054467
-0.034329   -0.035628  -0.0060706    0.040702    0.072208   -0.011592   -0.063561
-0.035303   -0.046022   0.0020496    0.044599     0.08585   -0.010293   -0.071032
-0.039851   -0.042124    0.020564    0.043625    0.092021  -0.0096434   -0.076879
-0.051544   -0.029457    0.041027    0.034206    0.093645   -0.008669   -0.079477
-0.069733   -0.016464    0.053369     0.01829    0.096244  -0.0076946   -0.080127
-0.090196   -0.011267    0.051096    0.003024    0.098517  -0.0063954   -0.080776
-0.10611    -0.01549    0.039727   -0.008669     0.09397  -0.0037969   -0.077853
-0.11423   -0.027833    0.029009   -0.017764    0.079679  -0.0018481   -0.072656
-0.11163   -0.044398    0.016666   -0.027183    0.060515  -0.0028225   -0.067784
-0.098965   -0.059339   0.0033489   -0.039201    0.038428  -0.0041217   -0.064536
-0.078827   -0.063237  -0.0076946   -0.052193    0.017965  -0.0054209   -0.065835
-0.05804   -0.054467   -0.013866   -0.064536   0.0033489   -0.011267   -0.072331
-0.040825   -0.037577   -0.014516   -0.069733  -0.0057458   -0.022311   -0.079152
-0.029132   -0.020687   -0.014516   -0.065835   -0.010943   -0.034654   -0.083375
-0.021661  -0.0076946   -0.017439   -0.059014   -0.013866   -0.042449   -0.084349
-0.019388  0.00042559   -0.022636   -0.052193  -0.0096434   -0.044073   -0.080776
-0.018738   0.0075714   -0.027508   -0.044723    0.003024   -0.037252   -0.073955
-0.018413    0.015042   -0.026533   -0.033354    0.020239   -0.026209   -0.063886
-0.013216    0.020239   -0.019712   -0.014191    0.025436   -0.015815   -0.047321
-0.0015233    0.023487  -0.0099683    0.011794   0.0075714  -0.0089938   -0.024909
0.012768    0.024461  0.00042559    0.035505   -0.039201  -0.0063954  -0.0063954
0.022188    0.024461     0.01017    0.046873    -0.11715  -0.0034721   0.0039985
0.029333    0.025761    0.014068    0.044924    -0.22791 -0.00022403   0.0059473
0.036479    0.029333    0.010495    0.032257    -0.36888   0.0065969   0.0023744
0.042651    0.031607  -0.0015233    0.014717    -0.51472    0.017316  -0.0063954
0.048172    0.033231    -0.01484  -0.0021729    -0.62288    0.026085   -0.016789
0.050771    0.033881   -0.025234   -0.010618    -0.65893    0.026085   -0.022636
0.048497    0.034206   -0.029457   -0.010293    -0.61086    0.013093   -0.025884
0.044599    0.035505   -0.029132  -0.0044465    -0.49426  -0.0083442   -0.030756
0.042001    0.038428   -0.028157   0.0052977    -0.34322   -0.028482   -0.038876
0.037129    0.041027   -0.027833    0.015042    -0.19543   -0.041475   -0.047646
0.031607    0.041351   -0.030106    0.021863   -0.078827   -0.046996   -0.055441
0.024786    0.038103   -0.032705    0.023487  -0.0054209   -0.048945   -0.058365
0.018615    0.033556   -0.028807    0.022188    0.030633   -0.051544   -0.053817
0.011144    0.029658   -0.019712    0.022837    0.041027   -0.060313   -0.043099
0.0010752    0.027385  -0.0044465    0.024461    0.040702   -0.076554   -0.028157
-0.0063954    0.024461   0.0091954    0.029009    0.038753   -0.098965   -0.016464
-0.0083442    0.019264    0.017316    0.034206    0.036479    -0.12105   -0.017114
-0.0089938    0.014068    0.016991    0.038753    0.037778    -0.13404    -0.03238
-0.011267   0.0091954    0.014392    0.042975    0.042001    -0.13145   -0.057065
-0.015165   0.0052977    0.016016    0.047847    0.049796    -0.11228   -0.076879
-0.016789   0.0033489    0.020239     0.05207    0.056617   -0.085324   -0.086948
-0.014516   0.0039985    0.020564    0.049147    0.053369   -0.053168   -0.085648
-0.010943   0.0075714    0.013743    0.041351    0.041676   -0.011267   -0.075579
-0.007045   0.0085458   0.0017248    0.032582    0.028684    0.041027   -0.062262
-0.0067202   0.0062721   -0.011592     0.02706    0.019914    0.094295   -0.051219
-0.012242  -0.0031473   -0.021337    0.021213    0.016016     0.13652   -0.045047
-0.022636   -0.018738   -0.027833    0.019589    0.013743     0.15601   -0.041799
-0.032055   -0.035953   -0.032055    0.022837    0.012443     0.15601    -0.03303
-0.034329    -0.04992   -0.035953    0.034206    0.011469     0.14302   -0.014516
-0.026858   -0.055441   -0.035953    0.046548    0.012119     0.12385    0.010819
-0.012567   -0.055441   -0.030756    0.051745    0.010819     0.10306    0.033881
0.0039985   -0.047321   -0.021986    0.044924    0.010495    0.078379    0.047198
0.019264   -0.029457   -0.011267    0.028359    0.014392    0.046548     0.05142
0.032257  -0.0031473  0.00075039   0.0091954    0.021213   0.0043233    0.047523
0.038753    0.023487    0.013418  -0.0057458    0.029333   -0.047321    0.037778
0.037778    0.043625    0.024786   -0.013541     0.03518    -0.09929    0.024461
0.03518    0.053369    0.031282   -0.017114    0.037778    -0.13729    0.011469
0.034855    0.057917    0.028684   -0.016789    0.036804    -0.15483  0.00010078
0.036804     0.06084    0.020564   -0.014516    0.035505    -0.15353  -0.0050961
0.0433    0.064737    0.011469   -0.011592     0.03518    -0.13827  -0.0018481
0.054993     0.06831   0.0056225  -0.0083442    0.036479    -0.12203    0.013093
0.06961    0.068635   0.0026992   -0.007045    0.041027    -0.11391    0.037129
0.082602    0.063438  -0.0011985  -0.0063954    0.048497    -0.11586    0.064413
0.090722    0.051096  -0.0083442  -0.0028225    0.056292    -0.11943    0.090072
0.087149    0.031282   -0.016464   0.0049729     0.06019    -0.11748     0.10761
0.071558    0.009845   -0.022636    0.011144    0.059216    -0.10871     0.11703
0.049147  -0.0067202   -0.025234    0.013093    0.057592   -0.094743     0.11801
0.034855   -0.014191    -0.02361    0.012443    0.057592   -0.079802     0.11378
0.034206   -0.013541   -0.018413    0.009845    0.054019    -0.06616     0.10794
0.039402  -0.0041217   -0.010293   0.0059473    0.046223   -0.055116     0.10404
0.043625   0.0078962  -0.0024977   0.0017248    0.038428   -0.044073    0.099817
0.046223    0.015367 -0.00022403   0.0023744    0.029983    -0.03303    0.099492
0.045899    0.015692  -0.0057458   0.0091954     0.01894   -0.017439     0.10144
0.043625    0.011469    -0.01614    0.017316   0.0052977      0.0014     0.10534
0.037454   0.0072465   -0.026858    0.020239  -0.0067202    0.021213     0.10956
0.030957   0.0020496   -0.037577    0.017316   -0.018088    0.041351     0.11736
0.029658  0.00010078   -0.043099    0.015692   -0.029132    0.060515     0.12905
0.034206   0.0049729   -0.038876    0.017316   -0.039851    0.078055     0.13847
0.038428    0.016991   -0.027183     0.01829   -0.048296    0.093321     0.13977
0.038103    0.030633  -0.0099683    0.013418   -0.053168     0.10599     0.12418
0.029658    0.042975   0.0078962   0.0033489   -0.057715     0.11313    0.092671
0.012768    0.050121    0.023487  -0.0076946   -0.064536     0.11313    0.057592
-0.0044465    0.050121    0.036154    -0.01614   -0.084349     0.11054    0.031932
-0.016464    0.042651    0.040052   -0.022311    -0.11618     0.10144    0.022837
-0.021986    0.028684    0.036154   -0.027508    -0.15126    0.090722    0.028359
-0.022311    0.013418     0.02706   -0.030756    -0.17952    0.076106    0.042326
-0.021661 -0.00022403    0.016341   -0.032055    -0.19738    0.066037    0.054668
-0.020362   -0.010293   0.0095202   -0.030106    -0.20908    0.066037    0.056617
-0.021012   -0.018413   0.0049729   -0.026858    -0.20745     0.06831    0.044599
-0.029132   -0.024585    0.003024   -0.021986    -0.18666    0.067986    0.022512
-0.043423   -0.031081      0.0014   -0.019388    -0.14736    0.057267  -0.0028225
-0.059664   -0.035628  -0.0021729   -0.020037   -0.098641    0.038428   -0.026533
-0.067459   -0.035953  -0.0096434   -0.024909   -0.056091     0.01894   -0.043423
-0.064211   -0.029132   -0.021337   -0.030106   -0.028482   0.0020496    -0.04992
-0.04862   -0.017764   -0.030756   -0.032055    -0.01549   -0.008669   -0.046347
-0.026209  -0.0060706    -0.03303   -0.026209   -0.011917   -0.010293   -0.040175
-0.0031473   0.0059473   -0.025559   -0.010618   -0.013866  -0.0044465   -0.035628
0.016991    0.021538   -0.010293   0.0069217   -0.013866   0.0062721    -0.03303
0.032906    0.036479   0.0069217    0.017965  -0.0089938    0.017965   -0.029457
0.045574    0.045574    0.020564     0.01829   0.0017248    0.024461   -0.023285
0.05142    0.048822    0.027709    0.010495    0.013418     0.02706   -0.016789
0.050121    0.045249    0.026735 -0.00022403    0.023812    0.025436    -0.01484
0.042975    0.039078     0.01764  -0.0063954    0.031932    0.021863   -0.019388
0.036154    0.029009   0.0052977  -0.0047713    0.038428    0.019264   -0.026858
0.031932    0.019589  -0.0047713   0.0026992      0.0433    0.020239   -0.028482
0.033231    0.012443   -0.010293     0.01017    0.043625    0.024461   -0.018413
0.038428   0.0049729   -0.010618    0.013743    0.040377    0.033556   0.0010752
0.039727  -0.0024977  -0.0067202    0.013093    0.039078    0.040377    0.019914
0.030957  -0.0083442 -0.00022403   0.0091954    0.042326    0.041351    0.028034
0.012768   -0.010943   0.0065969    0.008221     0.05142    0.031607     0.01894
-0.0041217  -0.0099683    0.011469     0.01017    0.059541    0.013093   0.0017248
-0.014516   -0.007045    0.013418    0.010495     0.06084   -0.010943    -0.01484
-0.020037  -0.0054209    0.011794   0.0085458    0.059216    -0.03173   -0.025234
-0.026533  -0.0044465    0.011794   0.0052977    0.069934   -0.045697   -0.029132
