0.046873    0.040702    0.027385    0.080003     -0.2435    0.073507    0.085525
0.079354   0.0091954   0.0033489    0.064737    -0.19316     0.06019    0.081627
0.098842   -0.021337   -0.023285    0.047523    -0.13567    0.039727    0.065387
0.10664   -0.042124   -0.036602    0.031932   -0.072006    0.024137     0.04395
0.10566   -0.046671   -0.034654    0.018615  -0.0018481    0.016666    0.024137
0.095919   -0.036602   -0.022636    0.012443    0.073507    0.012119    0.011469
0.075131   -0.016789  -0.0083442    0.013093     0.14756   0.0065969   0.0056225
0.045249   0.0033489  0.00042559    0.020564     0.21902  -0.0011985   0.0049729
0.013418    0.020888    0.003024    0.028684     0.28268  -0.0093186   0.0091954
-0.0067202    0.037778   0.0017248     0.03583      0.3366   -0.012567    0.013093
-0.0073698    0.054668   0.0033489    0.044599     0.38402   -0.011592    0.016666
0.0088706    0.070584    0.011469    0.054019     0.42755   -0.013541    0.020564
0.030957    0.079679    0.021863    0.061489     0.45191   -0.028807    0.021213
0.044275    0.074482    0.029333     0.06084      0.4243   -0.059989    0.013743
0.044599    0.047523    0.030308    0.053694     0.32588    -0.10416  -0.0057458
0.02706   0.0023744    0.020564    0.039402     0.18914    -0.15386   -0.034004
-0.0060706   -0.047646  0.00075039    0.025111    0.077405    -0.19154   -0.064536
-0.04927   -0.086623   -0.023285    0.014068    0.052395    -0.19933   -0.088572
-0.093119    -0.10286   -0.044723   0.0039985     0.14302    -0.16977   -0.099615
-0.12885   -0.096042   -0.060638  -0.0093186     0.32653    -0.10838   -0.095393
-0.15386    -0.07493    -0.06551   -0.025559     0.54773   -0.021986   -0.078503
-0.16425   -0.049595   -0.059989   -0.040175     0.75138    0.079029    -0.04992
-0.16035   -0.026858   -0.053492   -0.051868     0.89949     0.17712   -0.017764
-0.14281  -0.0089938    -0.04862   -0.061613      0.9768     0.25443    0.009845
-0.11196   0.0056225   -0.046671   -0.069408     0.98589      0.2999    0.024786
-0.081101    0.017965   -0.042774   -0.071357     0.93912     0.31484    0.022837
-0.058689    0.026085   -0.035628   -0.067459     0.85824     0.30997   0.0088706
-0.041799    0.030957    -0.02426   -0.058689     0.76795     0.29503   -0.008669
-0.025559    0.033881   -0.013866   -0.050569     0.68967     0.28203   -0.020037
-0.008669    0.036154  -0.0089938   -0.047971     0.63153     0.27359   -0.020362
0.0039985    0.038103  -0.0083442    -0.04992     0.58281     0.26742   -0.014516
0.008221    0.038103  -0.0096434   -0.052843     0.51622     0.25443   -0.010943
0.0043233    0.030308  -0.0060706   -0.050569     0.41001     0.23364   -0.014191
-0.0096434   0.0069217  0.00075039   -0.044398     0.24695     0.20505   -0.021012
-0.027508    -0.03303   0.0075714   -0.033354    0.028684       0.169   -0.028482
-0.046347   -0.081751    0.010495   -0.025559    -0.22629      0.1245    -0.03238
-0.062587    -0.12138   0.0036737   -0.025559    -0.49198    0.072858   -0.030106
-0.077528    -0.13242   -0.010618   -0.036927    -0.73981    0.019589   -0.022636
-0.086623    -0.10546   -0.026858   -0.055441    -0.93794   -0.028482   -0.012892
-0.088896   -0.046671   -0.035628   -0.073631     -1.0643   -0.072331  -0.0044465
-0.0837    0.017965   -0.033354   -0.085324     -1.1192    -0.11391  0.00075039
-0.074605    0.063113   -0.026209   -0.088247     -1.1224    -0.15516  0.00042559
-0.064536    0.078704   -0.018413   -0.079802     -1.1033    -0.19154  -0.0031473
-0.050569    0.070909  -0.0099683   -0.060638     -1.0828    -0.21947  -0.0034721
-0.031406    0.053044  0.00010078   -0.034978     -1.0682    -0.23506   0.0033489
-0.007045    0.028684    0.014392   -0.013541     -1.0578    -0.24935    0.016341
0.016991  -0.0031473    0.027709 -0.00087364     -1.0588    -0.27046    0.025111
0.032906   -0.038227    0.033881   0.0026992     -1.0711    -0.30262    0.022188
0.03518   -0.068758    0.028684  0.00010078     -1.0679     -0.3364   0.0056225
0.030633    -0.08305    0.015367  -0.0060706     -1.0136    -0.35849   -0.016464
0.022188    -0.07428 -0.00087364   -0.011592    -0.88208    -0.36044   -0.032055
0.01764   -0.046996   -0.013541  -0.0099683    -0.68264    -0.33867   -0.035953
0.021863   -0.012567   -0.020362  0.00010078    -0.47737    -0.29677   -0.027183
0.034206    0.020564   -0.023935    0.012443    -0.36271    -0.24708    -0.01484
0.055318    0.045249   -0.026209    0.021863    -0.40201    -0.20031  -0.0047713
0.081627    0.059216   -0.025559    0.027385    -0.56636    -0.16523    0.003024
0.10599     0.06084   -0.020687    0.029333    -0.74826    -0.14541   0.0069217
0.11638     0.05207  -0.0093186    0.029333    -0.81874    -0.13794   0.0046481
0.10859    0.036154   0.0023744    0.030633    -0.70408    -0.13697  -0.0028225
0.088124    0.015692    0.011469    0.029658     -0.4202    -0.13242   -0.012567
0.065387  -0.0031473    0.015692    0.028359   -0.047971     -0.1217    -0.01614
0.05142   -0.014191    0.017965    0.031932     0.29925    -0.09929  -0.0099683
0.049147   -0.014516    0.023812    0.039727     0.51849    -0.06616   0.0036737
0.053369   -0.007045    0.032906    0.047847     0.57014   -0.024585    0.017316
0.057267 -0.00054884    0.038428    0.051745     0.47822    0.015367    0.025436
0.058241    0.003024     0.03583    0.050771     0.30217    0.048497    0.026085
0.05142   0.0017248    0.027709    0.047847     0.11541    0.069934    0.022188
0.036154 -0.00022403    0.019914    0.040702   -0.013541    0.079354    0.021538
0.016341  -0.0028225    0.010495     0.02706   -0.054142    0.075781     0.02641
-0.0021729  -0.0041217  -0.0041217   0.0091954   -0.018413    0.064088    0.033556
-0.014516   0.0017248   -0.019712  -0.0083442     0.06084    0.050121     0.03453
-0.022311    0.020564   -0.030756   -0.022311     0.14886    0.032906    0.025761
-0.029132    0.046223   -0.028482   -0.034329     0.22065    0.015042     0.01017
-0.031081    0.070259   -0.013866    -0.04115     0.26579   0.0043233   -0.007045
-0.025884      0.0852   0.0062721   -0.035303     0.28561   0.0072465   -0.016464
-0.012892      0.0865    0.023487   -0.019063     0.27976    0.025111  -0.0093186
0.0043233    0.080003    0.033881   0.0036737     0.25507    0.047198   0.0085458
0.020564    0.071883    0.032906    0.021863     0.22812    0.063763    0.029333
0.032906    0.067011     0.02706    0.030957     0.21155     0.06831    0.044599
0.037454    0.066686    0.021863    0.033881     0.21188    0.062464    0.048172
0.033881    0.065387    0.013093    0.032257     0.21967    0.054019    0.038103
0.023487    0.056292  -0.0031473    0.033881     0.22617    0.046873    0.022512
0.0088706    0.040377   -0.022311    0.037778     0.22487    0.047847    0.010495
-0.010293    0.022837   -0.035628    0.044599     0.21967    0.054344   0.0062721
-0.028482   0.0095202   -0.038227    0.048497      0.2135    0.062789   0.0075714
-0.045372 -0.00087364   -0.030106    0.050771       0.207    0.064413   0.0095202
-0.056416  -0.0099683   -0.015815    0.052395     0.20473    0.062464   0.0078962
-0.059014   -0.021337  -0.0015233     0.05272     0.20863    0.061165  -0.0018481
-0.056416   -0.037577   0.0088706    0.049147     0.21382    0.065712    -0.01484
-0.055116   -0.054142    0.011794    0.041027      0.2135    0.076755   -0.030756
-0.051868    -0.06551   0.0091954    0.033231     0.20278    0.089423   -0.046347
-0.037902   -0.064861   0.0088706    0.028034     0.18427    0.099817   -0.056416
-0.0096434   -0.052843    0.012443     0.02706     0.16185     0.10242   -0.059989
0.022837   -0.028807    0.018615     0.02706     0.14399    0.098842   -0.058365
0.051096   0.0026992    0.026735    0.031282     0.13327    0.091696   -0.051219
0.071234    0.034206    0.034855    0.033881     0.12515    0.083901     -0.0405
0.07773     0.05142    0.039402    0.033556     0.11606     0.07708   -0.034978
0.066686    0.050771    0.038753    0.029333     0.10112    0.072858   -0.039851
0.03518    0.032906    0.034855    0.026735    0.083251     0.06961    -0.05739
-0.0089938   0.0023744    0.031282    0.027709    0.059216    0.068635   -0.081751
-0.051219   -0.033679    0.026735    0.029333    0.034206    0.072533   -0.099615
-0.079152   -0.064861     0.01829    0.027385    0.010819    0.083251    -0.10026
-0.090196   -0.076229   0.0059473    0.022188  -0.0076946    0.096244   -0.085648
-0.090845   -0.061937  -0.0063954    0.016341   -0.021661     0.10631   -0.063886
-0.086298   -0.029782   -0.014191    0.015367   -0.032705     0.11151   -0.041799
-0.081426   0.0043233   -0.011592    0.020564   -0.042124     0.11638   -0.019712
-0.079152    0.025111  -0.0024977    0.027385   -0.047646     0.12353  -0.0028225
-0.072981    0.029333   0.0017248    0.027709   -0.047646     0.13262   0.0072465
-0.055441    0.020888   -0.008669    0.023487   -0.038876     0.13555    0.015692
-0.024585   0.0085458   -0.029782    0.016991   -0.023935      0.1245    0.025111
0.0085458 -0.00054884   -0.054467    0.009845  -0.0024977     0.09397    0.033556
0.032257  -0.0031473   -0.073631    0.003024    0.037129    0.047523    0.037129
0.040052  0.00075039   -0.081751 -0.00022403     0.10501  -0.0060706    0.033556
0.03453   0.0091954   -0.075255  -0.0011985     0.20018   -0.054467    0.022188
0.028034     0.01829   -0.055441  -0.0018481     0.30412   -0.090521   0.0085458
0.02641    0.021213   -0.030756  -0.0031473     0.38175    -0.10871  -0.0024977
0.030633    0.014068   -0.010618  -0.0054209     0.40384    -0.11066  -0.0073698
0.036804   0.0010752  -0.0011985  -0.0099683     0.36518    -0.09929  -0.0044465
0.038753  -0.0089938  -0.0031473   -0.013866     0.28658   -0.084349   0.0052977
0.03453  -0.0089938   -0.013216   -0.016464     0.19466   -0.070382     0.01764
0.025111  -0.0034721   -0.026209    -0.01614     0.10794   -0.059664    0.029658
0.010819   0.0049729   -0.034654   -0.010293    0.036154   -0.049595    0.040377
-0.00087364   0.0088706   -0.034329 -0.00087364    -0.01614   -0.040825    0.047847
-0.012892   0.0062721   -0.024585    0.011469   -0.048296    -0.03238    0.050771
-0.025234  0.00010078   -0.010943    0.020239   -0.063237   -0.025559    0.047198
-0.038227   -0.008669 -0.00022403    0.020564    -0.06616   -0.019712     0.03518
-0.046996   -0.020037   0.0056225    0.015042   -0.062912   -0.010293    0.019589
-0.047971   -0.031081   0.0065969   0.0078962   -0.056416  0.00042559  0.00075039
-0.041799     -0.0405   0.0062721  0.00042559   -0.043099    0.010819   -0.015165
-0.030756   -0.046347   0.0059473  -0.0034721   -0.022311    0.017316    -0.02426
-0.023285   -0.044073   0.0072465  -0.0034721   0.0065969    0.019589   -0.022311
-0.02426   -0.034004   0.0043233 -0.00054884    0.040702     0.01829    -0.01614
-0.03238   -0.020037   -0.007045    0.003024    0.078055    0.011794   -0.015165
-0.043423   -0.010293   -0.023935   0.0065969     0.12223  -0.0015233   -0.023285
-0.049595  -0.0076946   -0.042449   0.0049729     0.17192   -0.021012   -0.036927
-0.046347    -0.01549   -0.056416  -0.0015233     0.21382     -0.0405   -0.047321
-0.031081   -0.032705   -0.061288  -0.0063954     0.23526   -0.055441    -0.04862
-0.008669   -0.051219   -0.054142  -0.0073698     0.22844   -0.060638   -0.036278
0.010495   -0.059339   -0.037577 -0.00022403     0.18751   -0.059014   -0.016464
0.015692   -0.045697   -0.014516    0.011469     0.10859   -0.059014   0.0023744
0.0033489  -0.0093186    0.011144    0.021538  -0.0054209   -0.070707    0.016341
-0.017114    0.036804    0.036479     0.02641    -0.14541   -0.096692    0.020888
-0.033354    0.078704    0.053369    0.025436    -0.30132    -0.13307    0.019589
-0.036927     0.10177    0.055968    0.019589    -0.46178    -0.17724    0.013418
-0.031081    0.095919    0.041676   0.0095202    -0.60696    -0.22239   0.0069217
-0.019712    0.061165    0.015042  -0.0037969    -0.71058    -0.26267   0.0010752
-0.007045    0.011794   -0.017114   -0.018738    -0.75605    -0.29028  -0.0024977
0.00075039   -0.032055   -0.042449   -0.032705    -0.74046     -0.2984  -0.0031473
0.0020496   -0.056741   -0.053492   -0.038551    -0.68557    -0.28573   0.0036737
-0.0063954   -0.061288   -0.050244   -0.034978     -0.6232    -0.25975    0.015692
-0.025234   -0.050569   -0.037577   -0.020037    -0.57513    -0.22986    0.026085
-0.054142   -0.035628   -0.015815   0.0026992    -0.54298    -0.20355    0.026085
-0.086948   -0.023935   0.0059473    0.027385    -0.51082    -0.18471   0.0091954
-0.11066   -0.023935    0.015042    0.042975    -0.46307    -0.17562   -0.020362
-0.11878   -0.042124   0.0091954    0.041027     -0.3861    -0.17692   -0.051219
-0.11326   -0.078178  -0.0093186    0.024137    -0.26429    -0.18114   -0.072981
-0.097991    -0.12105   -0.034329 -0.00054884   -0.096692    -0.17822    -0.07428
-0.075904    -0.15548   -0.058365   -0.018413    0.096893    -0.16068   -0.049595
-0.040825     -0.1675   -0.072981   -0.020687     0.27424    -0.12268   -0.008669
0.019914    -0.14249   -0.073306  -0.0080194     0.39767   -0.071357     0.03453
0.10729   -0.077853   -0.059014     0.01017     0.45223   -0.020037     0.06084
0.19628    0.010819   -0.035953    0.023487     0.44801    0.023812    0.063438
0.26027     0.10014   -0.014191     0.02641     0.41066    0.057592    0.044275
0.27554     0.16738   0.0017248     0.01764     0.37753    0.082277    0.016991
0.24501     0.19953   0.0088706 -0.00087364     0.37363     0.10079   -0.007045
0.18622     0.19369   0.0033489   -0.029132     0.40579     0.11866   -0.021012
0.11671     0.15601  -0.0096434   -0.057715     0.46425     0.13879   -0.019388
0.053694     0.10177   -0.029132   -0.075904     0.52921     0.15861  -0.0018481
0.0065969    0.050121   -0.043423   -0.079477     0.58703      0.1781    0.024461
-0.019388    0.014392   -0.049595   -0.068109     0.62536     0.19758    0.050446
-0.028482 -0.00087364   -0.045047   -0.046347     0.63575     0.21447    0.067336
-0.022636  -0.0015233   -0.034329   -0.024909     0.60392     0.22324    0.072533
-0.0037969  0.00075039   -0.024909   -0.014516     0.52661      0.2174    0.064413
0.022188  -0.0028225   -0.022636   -0.017764     0.41456     0.19531    0.043625
0.050121   -0.013866   -0.030431   -0.028482     0.28885     0.15763    0.016666
0.074157   -0.028482   -0.038876   -0.041799     0.17095     0.11183  -0.0050961
0.083576   -0.035303   -0.041799   -0.052518    0.073832    0.067011   -0.013541
0.06896   -0.028482   -0.036278   -0.055116  -0.0089938    0.029333  -0.0063954
0.02641  -0.0093186   -0.023935   -0.050244    -0.10514  -0.0031473    0.009845
-0.029132    0.013743   -0.007045   -0.042124    -0.23246   -0.037577    0.024137
-0.076229    0.030308    0.009845    -0.03238    -0.37992    -0.07493    0.030308
-0.10416    0.038428    0.020564    -0.02426    -0.51082    -0.10514     0.02641
-0.10968    0.037129    0.025436   -0.020037    -0.58228    -0.11651     0.01829
-0.097341    0.030308    0.022188   -0.021337    -0.56701    -0.10611   0.0062721
-0.07493    0.023162    0.017316   -0.021661    -0.46665   -0.080451  -0.0054209
-0.048296    0.017965    0.011144   -0.020037    -0.31626   -0.046671   -0.013541
-0.025559    0.013418   0.0020496    -0.01549     -0.1597   -0.015165   -0.016789
-0.012242    0.009845  -0.0076946  -0.0096434    -0.03173   0.0036737   -0.018088
-0.0060706   0.0069217   -0.008669  -0.0011985    0.052395    0.011144   -0.017764
-0.0073698   0.0056225   0.0033489   0.0085458    0.094945   0.0088706   -0.016789
-0.013541     0.01017    0.023162    0.016666     0.10534  0.00075039    -0.01484
-0.017114    0.023487    0.044599    0.023162    0.091372  -0.0067202   -0.013216
-0.012567    0.040052    0.062139    0.031282    0.063113   -0.011267    -0.01484
-0.0015233    0.050771    0.074482    0.039078    0.028684   -0.013866   -0.022636
0.0078962    0.050121     0.07773    0.040052    -0.01484   -0.021986   -0.033679
0.0075714    0.033556    0.066686    0.031282   -0.072981    -0.03303   -0.041799
0.0010752  -0.0021729    0.042975    0.014392    -0.15418   -0.039526   -0.039526
-0.0028225   -0.052518    0.012119  -0.0018481    -0.26527   -0.039201   -0.025884
0.0010752    -0.10838   -0.015165   -0.011592    -0.40623   -0.034329  -0.0024977
0.014392    -0.15191   -0.032055   -0.012242      -0.555   -0.022311    0.021213
0.027385    -0.17172   -0.039851  -0.0054209    -0.68492  -0.0041217    0.038428
0.028359     -0.1649   -0.038227   0.0033489    -0.78301    0.009845      0.0433
0.012119    -0.13242   -0.032055    0.012119    -0.85707    0.013093    0.038428
-0.016789     -0.0824    -0.02426    0.024137    -0.91975   0.0072465    0.028684
-0.041799   -0.029457   -0.014191    0.035505    -0.97075  0.00010078    0.022188
-0.049595    0.011144  -0.0044465    0.042651     -1.0013      0.0014    0.023162
-0.039526    0.033881   0.0043233      0.0433    -0.99511     0.01764     0.03518
-0.020687    0.045249    0.012443    0.039727    -0.93437    0.047198    0.054668
-0.0083442    0.055643     0.01894    0.036479    -0.80607    0.083901    0.073182
-0.0057458    0.066362    0.022837    0.036804    -0.60502     0.11573    0.080003
-0.0076946    0.075131    0.023487    0.038103    -0.33575     0.13457    0.071234
-0.0080194    0.079029    0.022188    0.039078   -0.015815     0.13879    0.050771
-0.0021729    0.080328    0.021213    0.038103     0.30704     0.13262     0.02706
0.011469    0.076431     0.01764    0.029983     0.58118     0.12288    0.008221
0.027709    0.067986    0.013418    0.014392     0.76892     0.11281   0.0033489
0.041351    0.053694   0.0078962  -0.0031473     0.85824     0.10079    0.010495
0.05272     0.03583    0.003024   -0.018738     0.86636    0.088448    0.019589
0.056942    0.020564  -0.0018481   -0.026858     0.82576    0.080003     0.02641
0.051745    0.016341  -0.0041217   -0.026209     0.76957    0.073507    0.029009
0.0433    0.023487  -0.0021729   -0.022636     0.72052    0.063438    0.026085
0.03453    0.037454   0.0059473   -0.018413      0.6848    0.050446    0.012119
0.025436    0.048822     0.01829   -0.015165     0.65524    0.038103  -0.0096434
0.018615    0.049796     0.02641   -0.013866     0.62633    0.029009   -0.028482
0.016666     0.03518    0.022188   -0.017114      0.5932    0.021213   -0.033354
0.020564   0.0072465   0.0043233   -0.019063      0.5539    0.013418   -0.018738
0.02641   -0.025559   -0.021012   -0.019388     0.50907   0.0078962   0.0049729
0.032906   -0.050244   -0.043099   -0.016464     0.45581   0.0062721    0.022512
0.036804   -0.054142   -0.053492   -0.011917     0.39604   0.0046481    0.024461
0.031282   -0.034978   -0.047321  -0.0067202     0.33563   0.0020496    0.013743
0.011469  -0.0024977   -0.027508  -0.0015233     0.28301  -0.0028225 -0.00054884
-0.015815    0.026735  -0.0018481   0.0072465     0.24306  -0.0054209  -0.0099683
-0.044073    0.044599    0.020888    0.021538     0.21545  -0.0047713   -0.010293
-0.061613    0.053369     0.03583    0.039078     0.19304  0.00075039  -0.0031473
-0.065186    0.054019    0.042001    0.056292     0.16803   0.0039985   0.0065969
-0.056091    0.045574    0.042651    0.067011      0.1336   0.0026992    0.013418
-0.040825    0.033231    0.036479    0.069934    0.084551  -0.0067202    0.013418
-0.026858     0.01894    0.028359    0.067986    0.020239    -0.02361   0.0062721
-0.020362   0.0069217     0.01894    0.065062   -0.062912   -0.046996  -0.0024977
-0.02361  -0.0024977    0.009845    0.062464     -0.1649    -0.06681  -0.0089938
-0.034329  -0.0093186    0.003024    0.058566    -0.27209   -0.081751   -0.010943
-0.045372   -0.012567   0.0017248    0.054019    -0.36628   -0.096042   -0.010293
-0.051219  -0.0099683   0.0072465    0.050121    -0.43352    -0.11391   -0.011917
-0.048296  0.00010078    0.017965    0.046873    -0.47022    -0.13534   -0.015815
-0.043423    0.015692    0.028034    0.044924    -0.47867    -0.15516   -0.021661
-0.038551    0.028359    0.033231    0.045249    -0.46632     -0.1675    -0.03303
-0.03173    0.033881    0.029983    0.044275    -0.44034    -0.17172   -0.050244
-0.018738    0.032906    0.016991    0.042326    -0.40331     -0.1688   -0.064536
-0.0031473    0.024137  -0.0028225    0.038103    -0.35394    -0.15646    -0.06551
0.010495   0.0078962   -0.021337    0.030957    -0.28995    -0.13924   -0.050569
0.014068   -0.013216   -0.035953    0.023487     -0.2146    -0.11813   -0.028482
0.0078962   -0.026858   -0.043099    0.021213    -0.14314    -0.09994   -0.011592
-0.0047713   -0.023935   -0.041799    0.021863   -0.094743   -0.088896  -0.0041217
-0.018413  -0.0021729   -0.032055    0.025111   -0.073955   -0.084674  -0.0041217
-0.028482    0.027385   -0.019712    0.028359   -0.069733   -0.084024  -0.0099683
-0.035303    0.057267   -0.010618    0.028034   -0.072656    -0.08305   -0.020687
-0.034329    0.080328  -0.0041217    0.024461   -0.073955   -0.084024   -0.033354
-0.025234    0.092021 -0.00087364    0.019264   -0.068434   -0.085973   -0.046996
-0.011917    0.090722  0.00075039    0.016016   -0.053492   -0.089221   -0.056741
0.0017248    0.076431  -0.0011985    0.015042    -0.03173   -0.091495   -0.057715
0.011144    0.055318  -0.0063954    0.014717  -0.0037969   -0.087597   -0.049595
0.015692    0.035505   -0.013541    0.013743    0.032257   -0.077203   -0.032705
0.01764     0.01764   -0.018738   0.0095202    0.079679   -0.064211    -0.01484
0.020564   0.0065969   -0.025234  0.00042559     0.13587   -0.056091  -0.0028225
0.020888   0.0036737   -0.030756  -0.0093186     0.18557   -0.056741   0.0010752
0.013418   0.0056225   -0.030106   -0.015815     0.20765   -0.062912  0.00010078
-0.0028225   0.0069217   -0.019388    -0.01549     0.18979   -0.072656  -0.0015233
-0.026533  -0.0024977  -0.0024977  -0.0083442     0.14204   -0.080776  -0.0015233
-0.054792   -0.028482    0.015367 -0.00054884    0.081627   -0.084999  -0.0021729
-0.081426   -0.072006    0.028034   0.0023744    0.027709   -0.079152  -0.0050961
-0.097341     -0.1295    0.024786   0.0010752   -0.007045   -0.060963   -0.014516
-0.093444    -0.19154   0.0072465 -0.00087364   -0.019388    -0.03173   -0.026858
-0.06616    -0.23701   -0.011917  0.00075039   -0.017439  -0.0024977   -0.034004
-0.018088    -0.24805   -0.023285   0.0062721   -0.013216    0.017316   -0.031406
0.041351    -0.21492   -0.026209    0.014392   -0.013866    0.031282   -0.015815
0.099167    -0.14736   -0.020362    0.021863   -0.016464    0.049147   0.0091954
0.14399   -0.063561  -0.0080194    0.032257   -0.011592    0.072533     0.03583
0.1625    0.014068   0.0069217    0.044924    0.013743    0.095269    0.058241
0.14951    0.075131    0.020239    0.054344    0.071883     0.11346    0.069934
0.11021     0.11833    0.030957    0.058241     0.15763     0.11963    0.065712
0.06019     0.13847    0.036804    0.054344      0.2489     0.11248    0.043625
0.012119     0.13295    0.033231    0.044924     0.31841    0.091696   0.0088706
-0.027833     0.10924    0.020888    0.032906     0.35966    0.059216   -0.029132
-0.050894    0.076755   0.0033489    0.019589     0.37428    0.021863   -0.060313
-0.056091    0.044275   -0.011592    0.008221      0.3444   -0.013866   -0.074605
-0.046347     0.01829   -0.025559 -0.00022403      0.2489    -0.04115   -0.069408
-0.025234   0.0046481   -0.037252  -0.0050961     0.10339   -0.059014    -0.04862
0.0069217   0.0062721   -0.047321  -0.0083442    -0.02426   -0.069408   -0.019712
0.046873    0.022837   -0.057065   -0.013866   -0.062262   -0.072331   0.0072465
0.090722    0.051096   -0.063237   -0.019063     0.01829   -0.067784    0.021538
0.1284    0.080003   -0.059664   -0.021986     0.16965   -0.055116    0.021863
0.14886    0.098517   -0.045697   -0.019712     0.30412   -0.037902    0.012443
0.14724     0.10696   -0.026858   -0.018413     0.34245   -0.018088   0.0010752
0.1284     0.11086   -0.011592   -0.022961     0.24468  -0.0021729  -0.0099683
0.09462     0.11183  -0.0076946   -0.032705    0.010819   0.0046481   -0.019388
0.050121     0.10599   -0.013216   -0.045372    -0.31431   0.0033489   -0.030431
0.0046481    0.091696    -0.02426   -0.055441      -0.669  0.00010078   -0.041799
-0.03238    0.065712   -0.039201   -0.064536    -0.99673   0.0026992   -0.048945
-0.050894    0.032257   -0.054142    -0.07428     -1.2403   0.0088706   -0.043748
-0.04927  -0.0037969   -0.061937   -0.081101     -1.3478    0.013093   -0.024909
-0.036602   -0.038227   -0.059989     -0.0837     -1.2959    0.009845   0.0062721
-0.022961   -0.064861    -0.04862   -0.081751     -1.0857  -0.0028225    0.040052
-0.015815   -0.080127   -0.026533   -0.075579    -0.76677    -0.02361    0.066686
-0.016464   -0.080451   0.0049729   -0.062262    -0.41793   -0.042124    0.080003
-0.023935   -0.069083    0.037129   -0.044723    -0.11553   -0.043099     0.07773
-0.035628   -0.052518    0.058891   -0.028807    0.090722   -0.018413    0.065712
-0.04862   -0.035303    0.063438   -0.018413     0.19466    0.029983    0.053044
-0.056741   -0.022311    0.051096   -0.012892      0.2161    0.086175    0.044275
-0.058689   -0.018738    0.033556   -0.010293     0.19823      0.1336    0.039727
-0.055116    -0.02361    0.022512  -0.0083442     0.18524     0.16153    0.037778
-0.043748   -0.035303    0.021863  -0.0060706     0.20993     0.16705    0.040052
-0.026858   -0.050569    0.024786  -0.0060706     0.27456     0.15309    0.044275
-0.0083442   -0.064536    0.021863   -0.010293     0.33985     0.12028    0.041027
0.0046481    -0.07428    0.009845   -0.020687     0.34894    0.076431    0.023162
0.0059473   -0.079802  -0.0076946   -0.039526     0.25378    0.030308  -0.0089938
-0.0037969   -0.081426   -0.025884   -0.061288    0.054993  -0.0096434   -0.051544
-0.018413   -0.081101   -0.040175   -0.079477    -0.19381   -0.036278   -0.092145
-0.028807   -0.081426    -0.04927   -0.090196    -0.41143   -0.046996    -0.12008
-0.030106   -0.083375    -0.04992   -0.089546    -0.53681   -0.041799    -0.12852
-0.025559   -0.088896   -0.041475   -0.081101    -0.54817   -0.025884     -0.1191
-0.021012   -0.094093   -0.030106   -0.070058     -0.4595  -0.0037969   -0.093769
-0.021986   -0.088896   -0.023935   -0.062912    -0.30944    0.014392   -0.059014
-0.027508    -0.06551   -0.025884   -0.060313    -0.14152    0.022512   -0.022636
-0.029457   -0.025884   -0.034329   -0.064211    0.015692    0.017965   0.0056225
-0.021337    0.016016   -0.045047   -0.071682     0.14659  0.00075039    0.025436
-0.0041217     0.05207   -0.056416   -0.076879     0.24988   -0.025884    0.042326
0.012443    0.078379   -0.062587   -0.075904     0.31906   -0.053492    0.063438
0.015367     0.09462   -0.061288   -0.071032     0.34992   -0.072331    0.090722
0.0017248     0.10014   -0.053817   -0.061613     0.33952   -0.079152     0.11606
-0.028482    0.092346   -0.043423   -0.045697     0.29957   -0.081426     0.12937
-0.062587    0.070909    -0.03303   -0.024909      0.2489   -0.086298     0.12255
-0.090521    0.037454   -0.027508  -0.0054209     0.19791   -0.088247     0.10112
-0.10384  -0.0011985   -0.026209     0.01017     0.15146     -0.0824    0.073507
-0.098316   -0.034978   -0.022636    0.024137     0.11216   -0.070382    0.049147
-0.079152   -0.055441   -0.011592    0.039727    0.079679   -0.058689    0.032257
-0.053817   -0.063561   0.0043233    0.055318    0.047847   -0.050244    0.019914
-0.033354   -0.063237    0.018615    0.066686    0.011144   -0.044073   0.0049729
-0.022636   -0.062912    0.024137    0.070259   -0.031081   -0.039851   -0.016464
-0.022961   -0.066485    0.021213    0.066362   -0.081101   -0.038876   -0.039526
-0.030106   -0.071357    0.015042     0.06019    -0.13502    -0.03303   -0.054142
-0.04115   -0.073631    0.009845    0.060515    -0.17854   -0.018413   -0.053492
-0.050569   -0.069083   0.0085458     0.06961    -0.18926   0.0062721   -0.038227
-0.055441   -0.055441    0.013743    0.083576    -0.14866    0.036154   -0.016789
-0.050569   -0.035628     0.02641    0.099817   -0.037252    0.061165   0.0026992
-0.03238   -0.013866    0.044275     0.11378     0.14432    0.075131    0.012443
-0.0021729   0.0088706     0.06019     0.12093     0.36811    0.080003    0.009845
0.032906    0.031932    0.069285     0.11736     0.58183    0.078704  -0.0037969
0.06831    0.049147    0.067661     0.10306     0.73222    0.071558    -0.02426
0.096893    0.056617    0.055968    0.082602     0.79393    0.053369   -0.042449
0.11313     0.05207    0.040377    0.063763     0.77607    0.032582   -0.052843
0.11248    0.037129    0.025436    0.054344      0.7111    0.021213   -0.051868
0.098517    0.015692    0.015367    0.054668     0.64192    0.028359   -0.042774
0.071558  -0.0083442   0.0088706    0.056942     0.59677    0.049472   -0.029457
0.032257    -0.03173   0.0039985    0.057267     0.58151    0.073507   -0.016789
-0.010293   -0.048945  -0.0031473    0.053694     0.59222    0.096569  -0.0089938
-0.055766   -0.057715   -0.014516    0.051745     0.61496     0.12093  -0.0034721
-0.10254   -0.056741   -0.025559    0.055643     0.63153     0.14302      0.0014
-0.14249    -0.04862   -0.033354    0.060515     0.62665     0.15211   0.0052977
-0.16685   -0.039851    -0.03238    0.065062     0.59093     0.14496   0.0072465
-0.17172   -0.039201   -0.023935     0.06831     0.51979     0.11995    0.008221
-0.15711   -0.046996   -0.014516    0.071558      0.4165    0.080653   0.0088706
-0.12592   -0.052518  -0.0076946    0.071558     0.27976    0.032906   0.0065969
-0.084674   -0.041475   -0.007045    0.065712     0.10079   -0.017114   0.0026992
-0.039201  -0.0080194   -0.011267    0.054993      -0.123   -0.065186  -0.0018481
-0.00022403    0.039727   -0.016464    0.042001    -0.36661    -0.10611  -0.0076946
0.024786      0.0852   -0.019712    0.030308    -0.58001    -0.13502   -0.014191
0.039402     0.11508   -0.015165    0.027385    -0.72227    -0.15158   -0.017114
0.047523     0.12158  -0.0050961     0.03453    -0.77294    -0.15743   -0.013216
0.047523     0.10696   0.0078962    0.045574    -0.74403    -0.15483  -0.0050961
0.037454    0.084876    0.017316    0.056617    -0.66803    -0.14476  0.00010078
0.022837    0.064088    0.022837     0.06019    -0.58553    -0.12592 -0.00054884
0.011469    0.050121    0.028034    0.054019    -0.52901    -0.10676  -0.0060706
0.0075714     0.04395    0.025111    0.036154    -0.51699   -0.091495   -0.016464
0.010495      0.0433    0.018615    0.009845    -0.55402   -0.084024   -0.024585
0.016666    0.042975   0.0085458    -0.01614    -0.62743   -0.078503   -0.024909
0.023812    0.042326  -0.0031473   -0.034654    -0.70441   -0.068109    -0.01614
0.030633    0.041351   -0.012567   -0.040175    -0.75215   -0.052843  -0.0031473
0.03453    0.037778    -0.01549   -0.034004    -0.74728   -0.035303    0.011144
0.03583    0.031932  -0.0099683   -0.022961    -0.67712   -0.021986    0.023487
0.036479    0.024786  0.00075039   -0.012242    -0.55045   -0.014191    0.031607
0.036804    0.021538    0.010819  -0.0028225    -0.39097  -0.0089938    0.036154
0.041027    0.023812    0.016666    0.003024    -0.22986  -0.0028225    0.035505
0.050121    0.028359    0.016341  0.00010078   -0.090521   0.0043233    0.031282
0.060515    0.029658    0.012119  -0.0080194    0.014068   0.0088706    0.026085
0.067986    0.028359   0.0039985   -0.019063    0.083251   0.0072465    0.020564
0.070909    0.025761  -0.0063954    -0.02426      0.1271 -0.00087364    0.012119
0.067986     0.02641   -0.015815   -0.020687     0.15309   -0.014191    0.003024
0.059865    0.029658   -0.021661   -0.012892     0.16608   -0.029457  -0.0057458
0.05207    0.035505   -0.020037  -0.0096434     0.16933     -0.0405  -0.0063954
0.048497    0.041027    -0.01549   -0.011267     0.17452   -0.043423   0.0052977
0.048822    0.044275  -0.0076946   -0.014516     0.18524   -0.037577    0.022512
0.048822    0.045249      0.0014   -0.014191     0.19823   -0.021986     0.03453
0.042651    0.046223    0.010495   -0.010618     0.19531  -0.0015233    0.037129
0.03453    0.050446    0.015367  -0.0099683     0.14432    0.013418     0.03453
0.028359    0.056617     0.01829   -0.012892    0.021538    0.010819    0.031282
0.025436    0.060515    0.017316   -0.014516    -0.14866   -0.010618    0.029009
0.024786    0.058241    0.013418   -0.011917    -0.30749   -0.042124    0.026735
0.028034     0.05142    0.011794  -0.0034721    -0.39811   -0.071032    0.020888
0.030957    0.041676    0.013743   0.0078962    -0.39974   -0.089871    0.013743
0.029983    0.034206    0.014068    0.014068    -0.31918   -0.095393   0.0075714
0.029333    0.027709    0.012443    0.010495    -0.19024   -0.086298   0.0023744
0.030633    0.022837   0.0088706  0.00042559   -0.056091   -0.064536  -0.0041217
0.035505    0.016991   0.0046481  -0.0073698    0.048497   -0.034978   -0.010293
0.034206    0.010495      0.0014  -0.0089938     0.10144  -0.0089938   -0.013866
0.026085   0.0046481  0.00010078  -0.0021729    0.094295   0.0039985   -0.013216
0.009845  0.00042559 -0.00022403   0.0072465    0.036804   0.0033489  -0.0080194
-0.007045  -0.0015233  0.00010078    0.013743   -0.044073  -0.0060706  -0.0018481
-0.021661   0.0023744 -0.00087364    0.012768     -0.1191   -0.015165    0.003024
-0.032705   0.0072465  -0.0034721   0.0062721    -0.16263   -0.022636   0.0069217
-0.042124    0.011794   -0.010293 -0.00054884     -0.1675   -0.025884   0.0072465
-0.050569    0.011469   -0.018738  -0.0083442    -0.13957   -0.027833  0.00010078
-0.058689  0.00075039   -0.028482   -0.017114   -0.096042   -0.028157   -0.012567
-0.061613    -0.01614   -0.033679   -0.025559   -0.050244   -0.026858   -0.026209
-0.054792   -0.027833   -0.034978   -0.029132   -0.011917   -0.027508   -0.034004
-0.034978   -0.024909   -0.030431   -0.029782    0.016016   -0.028482   -0.034329
-0.0028225   -0.008669   -0.024585   -0.026209    0.033556   -0.029782   -0.025884
0.030308    0.011469   -0.018088   -0.020687    0.042326   -0.030756  -0.0099683
0.054993    0.022837   -0.012567   -0.013541    0.048822    -0.03303   0.0075714
0.067336    0.020564   -0.010943  -0.0057458    0.054344   -0.036927     0.01894
0.06831    0.008221   -0.014191  -0.0015233    0.061814   -0.037577    0.017965
0.063113  -0.0099683   -0.019388   0.0017248    0.070584   -0.033679   0.0085458
0.055643   -0.020687   -0.019388   0.0052977    0.080328   -0.023285  -0.0011985
0.049147   -0.020362   -0.014516    0.012768    0.092671  -0.0076946  -0.0044465
0.039402   -0.011917  -0.0028225    0.022512     0.10859    0.012119   0.0036737
0.027385  -0.0018481    0.012443    0.031282     0.12645    0.028034    0.023162
0.014068   0.0069217    0.023487    0.035505     0.14659    0.038103    0.048497
0.0020496    0.011144    0.024137     0.03518     0.16965    0.038753    0.071234
-0.008669    0.009845    0.014068    0.029983     0.19596    0.031282    0.084551
-0.016464   0.0043233  0.00042559    0.021538     0.22357    0.019264    0.091047
-0.018738 -0.00087364  -0.0096434   0.0069217      0.2476   0.0069217    0.085525
-0.019388  -0.0041217   -0.015815   -0.012567      0.2619  -0.0021729    0.065712
-0.019063  -0.0080194   -0.019388   -0.030756     0.25637  -0.0076946    0.038753
-0.017764   -0.014191   -0.020362    -0.04115     0.22162  -0.0093186    0.010819
-0.016464   -0.022961   -0.017114   -0.044073     0.16088  -0.0099683   -0.010943
-0.017439    -0.03173  -0.0083442   -0.040825    0.089098  -0.0096434   -0.024585
-0.018738   -0.036602      0.0014   -0.032705    0.029658   -0.012242   -0.027508
-0.025559   -0.038876   0.0033489   -0.021986  -0.0044465   -0.020037   -0.023285
-0.038551   -0.038227  -0.0047713   -0.014516   -0.017114   -0.034978   -0.016789
-0.056091   -0.038551   -0.018413   -0.016464   -0.016789   -0.050244   -0.011267
-0.072656   -0.041799   -0.036602   -0.028157   -0.010943   -0.064536   -0.011267
-0.079477   -0.046671   -0.053492   -0.044398  -0.0034721   -0.078827   -0.018088
-0.07493   -0.051544   -0.065835   -0.056741  0.00010078   -0.090196   -0.031406
-0.060313   -0.056416   -0.071357   -0.062262   0.0033489   -0.092794   -0.042449
-0.044723   -0.060963   -0.073955   -0.060638     0.01017   -0.082076   -0.046347
-0.032055   -0.062912   -0.075904   -0.053492    0.023487    -0.05739   -0.044073
-0.019388   -0.052518   -0.075904   -0.045047    0.046223   -0.025884   -0.036278
-0.007045   -0.026533   -0.070707   -0.036278    0.074806   0.0069217   -0.028482
0.00075039    0.011469   -0.058365   -0.029132    0.095269    0.033556    -0.02426
-0.00022403    0.046873   -0.040175   -0.021337     0.10047    0.050121    -0.02426
-0.015815    0.065387   -0.021661   -0.013866    0.090722    0.053694   -0.028807
-0.046022    0.059541  -0.0089938   -0.010943    0.073507    0.044275   -0.040175
-0.081751    0.032582  -0.0024977   -0.013866    0.056942    0.028034   -0.054467
-0.11228  -0.0057458   0.0010752    -0.01549    0.043625    0.012119    -0.06681
-0.1308   -0.043099  0.00010078  -0.0093186    0.029658  0.00010078   -0.073955
-0.13307   -0.073955  -0.0047713   0.0017248    0.015367  -0.0034721   -0.072981
-0.123   -0.094743  -0.0073698    0.014068   0.0049729 -0.00054884   -0.066485
-0.10579    -0.10611  -0.0067202    0.020239    0.003024  0.00075039   -0.058365
-0.092794    -0.11098  -0.0031473    0.019264    0.009845  -0.0024977   -0.053817
-0.086948    -0.11293  0.00075039    0.013418    0.019914  -0.0096434   -0.051544
-0.086298    -0.11391   0.0049729   0.0046481    0.020888   -0.019712   -0.052518
-0.090196    -0.11456   0.0072465  -0.0021729   0.0085458   -0.029782   -0.057715
-0.09182    -0.11423   0.0043233  -0.0073698   -0.016464   -0.036602   -0.062587
-0.084674    -0.11358      0.0014  -0.0096434   -0.045047   -0.032705   -0.063886
-0.060313    -0.10676  -0.0024977   -0.011917   -0.056416   -0.012567   -0.059339
-0.020687   -0.086298  -0.0080194   -0.016464   -0.025559     0.01894   -0.052518
0.02706   -0.054142   -0.020362   -0.020362    0.061489    0.050446   -0.045047
0.066686   -0.020687   -0.039201   -0.022636     0.19239    0.071558   -0.036927
0.083576   0.0036737   -0.060638   -0.021337       0.347    0.080003   -0.028157
0.073182    0.017965   -0.073631   -0.014516     0.50388    0.080003   -0.023285
0.047523    0.029983   -0.069083   0.0039985     0.64582    0.081627   -0.019063
0.026085    0.054993   -0.040825    0.036804     0.75235    0.087149   -0.011917
0.020239    0.097218    0.012768    0.078379     0.80887    0.096893    0.003024
0.028684     0.15341    0.078704     0.11898     0.80108     0.10729    0.025436
0.039078     0.20895     0.14009     0.14756      0.7228     0.11736    0.054993
0.038103     0.24501     0.18004     0.16185     0.57111     0.12548    0.079354
0.016341     0.24566     0.18687     0.16121     0.33205     0.12678    0.090072
-0.02361     0.20408     0.15926     0.14594   -0.030756     0.11541     0.07773
-0.072006     0.12418     0.10469     0.11703    -0.53193    0.087474    0.044924
-0.11748    0.021538    0.041351    0.080328     -1.1189    0.052395   0.0043233
-0.14379   -0.078503   -0.012242    0.049796     -1.6801    0.022512    -0.02426
-0.13242    -0.14996   -0.043423    0.033881     -2.0709   0.0095202   -0.024909
-0.068758    -0.17367   -0.045697    0.034206     -2.1774    0.014392   0.0088706
0.036479    -0.14509   -0.026209    0.042326     -1.9689    0.028359    0.065062
0.15601   -0.078178  0.00010078    0.045249      -1.518    0.040052      0.1206
0.26579 -0.00054884    0.016991    0.038753    -0.95776    0.043625     0.15601
0.3457    0.059216    0.016016    0.021213    -0.43319     0.03518     0.16445
0.37883    0.084226  0.00075039  -0.0011985   -0.045047    0.015367     0.14659
0.35836    0.079679   -0.013541   -0.021661     0.17225  -0.0057458     0.11573
0.29438    0.062139   -0.018738   -0.034329     0.25962    -0.02426    0.082927
0.21317    0.042001   -0.012567     -0.0405      0.2999   -0.043748    0.059541
0.13717    0.024786  -0.0015233   -0.045372     0.37006   -0.072331    0.046223
0.079679    0.013418   0.0059473   -0.052193     0.49868    -0.11261    0.037778
0.042651   0.0059473   0.0069217   -0.058689     0.65589      -0.161    0.033231
0.019914  0.00075039   0.0056225   -0.062587     0.77996    -0.20713    0.030633
0.0023744 -0.00022403   0.0062721    -0.06616     0.79523    -0.24123     0.02706
-0.015815   0.0017248   0.0065969   -0.069733     0.64614    -0.26364    0.023487
-0.035628  -0.0037969   0.0033489   -0.072331     0.34245    -0.28086    0.020564
-0.049595   -0.018088  -0.0041217    -0.07428   -0.019063    -0.29872    0.016341
-0.052193   -0.035303   -0.017439   -0.075579    -0.31691    -0.32113   0.0065969
-0.045047   -0.041799   -0.034978   -0.082076    -0.46665    -0.34484   -0.011592
-0.029132   -0.030431   -0.053168   -0.092469    -0.46437    -0.36336   -0.037577
-0.0099683  -0.0083442   -0.068109    -0.10579    -0.38317    -0.36823   -0.064211
0.0046481    0.015692   -0.076554    -0.11228    -0.31236    -0.35556   -0.086298
0.0085458    0.034206   -0.077203    -0.11033    -0.29612    -0.33088   -0.098641
0.00042559    0.043625   -0.068109    -0.10286    -0.31854      -0.301    -0.09994
-0.012242    0.043625   -0.051868   -0.091495     -0.3338    -0.26689   -0.091495
-0.028482    0.030633   -0.034654   -0.076229     -0.2997    -0.22304   -0.080127
-0.047971   0.0069217   -0.024585    -0.05804     -0.2055     -0.1701    -0.06551
-0.067459   -0.019388   -0.019712   -0.037577   -0.062262    -0.10676   -0.042774
-0.078827   -0.038227   -0.014516    -0.01484    0.098193   -0.034004   -0.015165
-0.075904   -0.043099  -0.0060706   0.0075714     0.24241    0.039078    0.012119
-0.061288   -0.034004   0.0026992    0.025111     0.34602     0.10469    0.031282
-0.044723   -0.011917   0.0059473    0.037129     0.40124     0.15698    0.036154
-0.034978    0.014717   0.0026992    0.042975     0.41261     0.19596    0.029333
-0.032705    0.044599  -0.0054209    0.047523     0.38825     0.22259    0.021213
-0.034329    0.073507   -0.012242    0.052395     0.33887     0.24273    0.017965
-0.038876    0.094295   -0.015815    0.055643     0.27132      0.2554    0.018615
-0.044073    0.099492   -0.013541    0.057592     0.19239     0.25702    0.016666
-0.050894    0.084226  -0.0076946    0.054019     0.11995     0.24306    0.011144
-0.059664    0.054019  -0.0028225    0.044599    0.071234     0.21967   0.0088706
-0.069083    0.016016 -0.00054884     0.03583    0.052395     0.19563    0.015367
-0.076229    -0.01484  0.00042559    0.032257    0.055643     0.17907    0.027709
-0.076879   -0.026858   0.0056225    0.038428    0.070909     0.17095    0.041676
-0.073306   -0.018413    0.016991    0.050121    0.090722     0.16575    0.048822
-0.064536   0.0046481    0.031607    0.062464     0.10631     0.15958    0.046223
-0.055116    0.028034    0.040377     0.06961     0.11021     0.14626    0.031282
-0.051219    0.041351    0.038753     0.06896    0.096893     0.12223    0.009845
-0.054467    0.041676    0.031607    0.064737    0.073507    0.091047   -0.010293
-0.061288    0.032582    0.024786    0.062139    0.048172    0.064737   -0.023935
-0.064861    0.021538    0.022837    0.066686    0.039727    0.054019    -0.02426
-0.05739    0.014068    0.026735    0.078055    0.062464    0.057267   -0.010943
-0.036927   0.0088706    0.031607    0.090722     0.11443    0.063438   0.0078962
-0.0093186   0.0033489    0.037129    0.097868     0.17777    0.069285    0.022512
0.017316  -0.0050961    0.041027    0.096569     0.22974    0.070259    0.027709
0.03518    -0.01614    0.039402    0.088773      0.2502    0.061814    0.025761
0.043625   -0.025559    0.032582    0.078379     0.23429    0.043625    0.021213
0.040702   -0.029132    0.023487    0.070259     0.18751     0.01894    0.012443
0.030633   -0.026858    0.012119    0.065712      0.1232  -0.0044465   0.0020496
0.022837   -0.020037   0.0020496    0.063763    0.054019   -0.026533  -0.0060706
0.022188   -0.011592  -0.0041217    0.058891  -0.0041217   -0.044398   -0.013541
0.030308  -0.0047713  -0.0063954    0.051096   -0.042124   -0.055766   -0.021337
0.037129  -0.0011985  -0.0060706    0.039402   -0.057715   -0.059014   -0.028807
0.039727  -0.0015233  -0.0037969    0.030308   -0.053817   -0.056416   -0.036602
0.038103  -0.0060706  -0.0011985    0.028034   -0.037577   -0.053817   -0.041799
0.030633   -0.010943  0.00010078    0.033881   -0.020037    -0.04927   -0.042774
0.015692   -0.013541  -0.0024977    0.044924  -0.0099683   -0.046671   -0.039851
-0.0044465    -0.01484  -0.0073698     0.05142  -0.0099683   -0.045047   -0.034004
-0.025884   -0.017439  -0.0093186    0.046873   -0.017114   -0.044073   -0.025559
-0.038876   -0.021012  -0.0093186    0.033556   -0.026209     -0.0405   -0.013541
-0.040175   -0.023285  -0.0083442    0.016666   -0.034978   -0.032705  0.00010078
-0.030106   -0.025884   -0.011267      0.0014   -0.045697   -0.022311    0.009845
-0.01549    -0.03173   -0.018088   -0.011917   -0.056416   -0.012567    0.013418
-0.0018481   -0.039526   -0.026209   -0.019063   -0.061613  -0.0096434     0.01017
0.0072465   -0.043423   -0.032055   -0.017114   -0.059989   -0.015165  0.00010078
0.012768   -0.038551   -0.034329   -0.010293   -0.053817   -0.021661   -0.010943
0.014068   -0.026858    -0.03238  0.00075039   -0.050569   -0.022311   -0.014191
0.0088706   -0.014191   -0.029132    0.011469   -0.050244   -0.018413  -0.0083442
-0.00054884  -0.0024977   -0.023285    0.014392   -0.054467   -0.010618  0.00075039
-0.011267   0.0026992    -0.01549   0.0062721   -0.063561  -0.0015233   0.0085458
-0.017439  0.00010078  -0.0054209   -0.008669   -0.077853   0.0085458   0.0091954
-0.014516  -0.0060706   0.0020496   -0.021661   -0.096042    0.012768    0.003024
-0.0054209   -0.013216   0.0039985   -0.027183    -0.11391   0.0072465  -0.0063954
0.0059473   -0.018413  -0.0028225    -0.02426    -0.12657  -0.0044465   -0.018413
0.016016   -0.021986   -0.011592    -0.01614     -0.1334   -0.019712   -0.026858
0.024461   -0.021986   -0.019063  -0.0076946    -0.13697   -0.036602    -0.03173
0.024786   -0.017764   -0.021661  -0.0050961    -0.13827   -0.051868   -0.034004
0.020888   -0.010943   -0.021661  -0.0083442    -0.14152   -0.061613   -0.036602
0.016341  -0.0054209   -0.019063   -0.013541    -0.14639   -0.059339   -0.042124
0.012768   -0.007045   -0.021986   -0.017764    -0.14899   -0.050894    -0.04927
0.011469   -0.013541   -0.028807   -0.020362    -0.14444   -0.041799   -0.055116
0.016991   -0.019063   -0.036602   -0.020687    -0.13437   -0.039851   -0.055116
0.031607   -0.021337   -0.037902   -0.020687    -0.12138   -0.042124   -0.055116
0.046548   -0.019388   -0.032705   -0.022636    -0.11098   -0.039851    -0.05804
0.05142   -0.013541   -0.022961   -0.028482    -0.10026   -0.036278   -0.060313
0.042001  -0.0044465   -0.011592   -0.033679   -0.089871   -0.033354   -0.059664
0.023487   0.0085458  -0.0057458   -0.037577   -0.084024   -0.032055   -0.055766
0.0023744    0.022512  -0.0083442   -0.038876   -0.082725   -0.032055   -0.050569
-0.010293    0.032906   -0.015165   -0.036278   -0.081426    -0.03303   -0.046347
-0.011592    0.035505    -0.02426   -0.033354   -0.081426   -0.036927    -0.04115
-0.0063954    0.030957   -0.032705   -0.034329   -0.077853   -0.042774   -0.033679
0.00010078    0.020888   -0.035953   -0.037902   -0.072331   -0.047321   -0.028482
0.0043233   0.0088706   -0.031406   -0.039526    -0.06616   -0.049595   -0.027183
0.0043233  -0.0021729   -0.020687   -0.039851   -0.061288   -0.052843   -0.029132
-0.0021729  -0.0067202  -0.0083442   -0.038551   -0.056741   -0.057065   -0.031081
-0.0093186  -0.0063954 -0.00087364   -0.039526   -0.046022   -0.058365   -0.029457
-0.012892  -0.0044465  0.00010078   -0.038551    -0.02361    -0.05804   -0.025234
-0.0099683  -0.0054209  -0.0031473   -0.032705    0.015692   -0.059339   -0.020037
-0.0024977  -0.0076946  -0.0054209   -0.022311    0.067986   -0.064211   -0.015165
0.003024  -0.0060706  -0.0063954   -0.012242     0.11898   -0.073955   -0.012567
0.0046481   0.0052977  -0.0041217  -0.0034721     0.15536    -0.08305   -0.010943
0.0033489    0.023812  -0.0011985   0.0020496     0.16705   -0.087272  -0.0089938
-0.0015233    0.042651 -0.00054884   0.0023744     0.15373   -0.084349  -0.0060706
-0.0076946    0.054344  -0.0037969      0.0014      0.1219   -0.078827  -0.0011985
-0.013216    0.055643  -0.0099683  0.00010078    0.080978   -0.069733   0.0049729
-0.015165    0.048497   -0.014516  0.00042559    0.032582   -0.056416     0.01017
-0.017439    0.036804    -0.01614   0.0062721   -0.024585   -0.039201    0.015367
-0.019388    0.025761   -0.011917    0.016016   -0.095068   -0.023935    0.021863
-0.020037    0.017965  -0.0054209    0.028034    -0.17497   -0.014516    0.029983
-0.019712    0.012768   0.0010752    0.033231     -0.2461   -0.013216    0.037778
-0.019063     0.01017   0.0056225    0.028359    -0.29612  -0.0096434    0.044275
-0.016464    0.009845   0.0078962    0.015692    -0.31529  0.00075039    0.049472
-0.0099683    0.011469     0.01017    0.003024    -0.30359     0.01829    0.055968
-0.0037969    0.015367    0.011794  -0.0050961    -0.27079     0.03583    0.060515
-0.0015233    0.019914    0.009845  -0.0099683    -0.23409    0.051096    0.059216
-0.0034721    0.020564   0.0039985   -0.012892    -0.20031    0.064413    0.052395
-0.0083442     0.01764  -0.0050961    -0.01484    -0.17107    0.077405    0.042975
-0.011267    0.012443    -0.01549    -0.01484    -0.14574    0.092346     0.03453
-0.011267   0.0069217   -0.023285   -0.011917    -0.12755     0.10079    0.030957
-0.0054209   0.0049729    -0.02426  -0.0063954    -0.11845    0.096244    0.032582
0.0036737   0.0075714   -0.021337  -0.0024977    -0.11878    0.080653    0.035505
0.013743    0.008221   -0.017439  -0.0034721    -0.11715    0.058566    0.038103
0.020239   0.0049729    -0.01549   -0.011592    -0.10903     0.03583    0.036154
0.019589  -0.0037969    -0.01484   -0.023935   -0.089871    0.016341    0.029658
0.01764    -0.01549   -0.018413   -0.036278   -0.059664  0.00075039    0.021213
0.020564   -0.026533   -0.019063   -0.041475   -0.016789   -0.012242    0.016341
0.019914   -0.033354   -0.012892   -0.034329     0.03583   -0.020362    0.015692
0.010819   -0.034654 -0.00087364   -0.017764    0.096569   -0.023935    0.016341
-0.007045   -0.030106    0.012768  0.00042559     0.15796   -0.026209    0.015367
-0.028807   -0.021012    0.020888    0.012443     0.20278   -0.028807    0.013093
-0.047646   -0.010618    0.020239    0.013743     0.21805   -0.030756    0.013093
-0.053817   0.0026992    0.014392    0.011144      0.2044    -0.03303    0.012119
-0.045047    0.013743   0.0056225   0.0075714     0.17355   -0.034654   0.0078962
-0.023285    0.022512  -0.0034721   0.0043233     0.13912   -0.033679   0.0046481
0.0075714    0.030633   -0.008669   0.0020496     0.10826   -0.026858   0.0039985
0.041027    0.037129  -0.0080194   0.0065969    0.088773    -0.01614    0.009845
0.066686    0.038428  -0.0031473    0.015692    0.082277  -0.0050961     0.01894
0.073832    0.031282   0.0046481    0.028359    0.089098  -0.0011985     0.02706
0.059541    0.014717   0.0091954    0.038103     0.10209  -0.0060706    0.031282
0.03518  -0.0031473   0.0069217    0.043625     0.11281   -0.018088    0.034206
0.011144   -0.011592 -0.00054884    0.043625     0.11898   -0.035628    0.037129
-0.0031473   -0.007045   -0.012242    0.037778     0.12288   -0.055766    0.037454
-0.0076946  0.00075039   -0.023935    0.029009     0.12353   -0.071032    0.036154
-0.017439   0.0033489   -0.031081     0.01829     0.11508   -0.075904    0.037129
-0.040825  -0.0018481   -0.032705   0.0088706    0.092346   -0.070382    0.036479
-0.081751   -0.013216   -0.024909   0.0017248    0.055643   -0.060963    0.030308
-0.13112   -0.024909   -0.011917 -0.00087364    0.011144   -0.050569    0.017965
-0.17594   -0.026858   0.0072465   0.0020496   -0.036602   -0.043748   0.0043233
-0.2042   -0.020687     0.02706    0.008221   -0.084024   -0.036927  -0.0093186
-0.2068   -0.008669    0.040052     0.01017    -0.12268   -0.030431   -0.021012
-0.18082   0.0026992    0.043625   0.0043233    -0.14509   -0.024909   -0.030431
-0.13827    0.011144     0.03453  -0.0050961    -0.14411   -0.021661   -0.036278
-0.089871    0.014717    0.012443   -0.011267    -0.11878   -0.023935   -0.039851
-0.043423    0.016341   -0.010618  -0.0096434   -0.069733   -0.028157   -0.039526
0.0023744    0.021213   -0.026209  -0.0015233   -0.007045   -0.024909    -0.03173
0.046873    0.030957   -0.027833    0.011144    0.055318  -0.0073698   -0.012567
0.091372    0.045249   -0.017439    0.022837     0.11378    0.025436    0.017316
0.12937    0.058891   0.0010752    0.031932     0.16413    0.067011     0.05142
0.15309    0.066686     0.01764    0.040052     0.20116     0.10956    0.080328
0.15081    0.067336    0.026735    0.050121     0.21805     0.14464     0.10014
0.12288    0.064413    0.029658    0.062464     0.21675     0.16445     0.10469
0.078055    0.056617    0.029983    0.073507     0.20668     0.16673    0.095269
0.032582     0.04395    0.026735    0.076106     0.19726     0.14984    0.077405
-0.00054884    0.023162    0.020564    0.066686     0.19531     0.11671    0.058241
-0.013216  -0.0041217    0.012768    0.050771     0.20505    0.078704    0.042651
-0.0063954   -0.030431   0.0085458    0.034206     0.22292    0.046873    0.029983
0.011144   -0.042774   0.0085458    0.024137     0.24143    0.029333     0.01894
0.027709   -0.030756    0.011469    0.024461     0.24468    0.023487   0.0039985
0.03583  0.00010078    0.016016    0.032257     0.22389    0.024461    -0.01549
0.030957    0.038428    0.021213    0.040377     0.19271    0.028034   -0.036927
0.017965     0.06831    0.022512    0.044275      0.1768    0.033881   -0.054792
-0.00022403    0.074806    0.015367    0.037778     0.18979    0.045249   -0.067459
-0.019063     0.05272 -0.00087364    0.023162     0.23169    0.054668   -0.078178
-0.03303   0.0072465   -0.019388   0.0075714     0.27976    0.055643   -0.093444
-0.041475   -0.046671   -0.031406  -0.0060706     0.30282    0.046873    -0.11326
-0.044723   -0.089546   -0.034004    -0.01549     0.27651    0.029333    -0.13307
-0.042774    -0.10871   -0.025884   -0.017439     0.20018   0.0078962    -0.14249
-0.033679    -0.10579   -0.010943   -0.016789     0.09397   -0.011917    -0.13632
-0.022636   -0.094743   0.0020496   -0.021012   -0.010293   -0.030431    -0.11488
-0.013866    -0.09117  0.00010078   -0.034654   -0.082725   -0.050244   -0.084674
-0.0057458    -0.10546   -0.022311   -0.057065    -0.10676   -0.065835   -0.053817
0.0095202     -0.1334   -0.059014   -0.081751   -0.093769   -0.068758   -0.025884
0.032906    -0.15938   -0.094093    -0.10351   -0.076554   -0.051219   0.0036737
0.061165    -0.16653    -0.11423    -0.11196   -0.090196   -0.015815     0.03453
0.088124    -0.13859    -0.10936    -0.10091    -0.15288    0.032906    0.064088
0.10469   -0.073306   -0.077853   -0.073631    -0.25455     0.08585    0.087149
0.10501    0.017316   -0.026858   -0.037902    -0.36466     0.13392     0.10371
0.097868     0.10891    0.025761  -0.0041217    -0.45301     0.16933     0.11378
0.090072     0.17257    0.062139    0.016666    -0.49685     0.17874     0.11638
0.074482     0.18654    0.070584    0.023162    -0.49068     0.15244     0.10729
0.0433     0.14724    0.054668     0.01764    -0.43612    0.094945    0.091372
-0.0044465    0.067336    0.022188   0.0056225    -0.33965    0.020888    0.075781
-0.059014   -0.026209   -0.018738  -0.0044465    -0.20583   -0.055766    0.070909
-0.10319    -0.10416   -0.057715  -0.0089938   -0.048945     -0.1243     0.07773
-0.11975    -0.14444    -0.08305  -0.0076946     0.06831    -0.18049    0.087799
-0.099615    -0.13892   -0.086298  -0.0034721    0.060515    -0.22759    0.091047
-0.052518   -0.090845   -0.067134   0.0033489    -0.10481    -0.26754    0.082602
0.0095202   -0.012242   -0.036278    0.013418    -0.37408    -0.30002    0.065387
0.071558     0.07708  -0.0031473    0.023812    -0.63327    -0.32211    0.045574
0.1206     0.15861    0.024137    0.032257    -0.76157    -0.33023    0.029983
0.14659     0.22032    0.043625    0.037129    -0.70278    -0.32438    0.019589
0.14789     0.25443    0.054344    0.039727     -0.4962    -0.30717    0.014392
0.12807      0.2619    0.053369    0.040702    -0.26364    -0.27858   0.0072465
0.098842      0.2476    0.045249    0.038103    -0.13275    -0.24578  -0.0067202
0.067986      0.2187    0.035505    0.028359    -0.16945    -0.21622   -0.028157
0.038103     0.18264    0.023487    0.010819     -0.3718    -0.19316   -0.053168
0.0088706     0.14302    0.008221  -0.0089938    -0.65991    -0.17042   -0.073955
-0.019388    0.097218   -0.010618   -0.022636    -0.91878    -0.14444   -0.084024
-0.039201    0.049147   -0.028157   -0.023285     -1.0464    -0.10968   -0.079802
-0.043099   0.0020496   -0.034329   -0.014191    -0.99089   -0.067134   -0.062262
-0.032055    -0.03303   -0.027833  0.00010078    -0.75573   -0.025559   -0.043748
-0.011267    -0.04862   -0.013216    0.015042    -0.39746   0.0065969   -0.027183
0.013743   -0.044398  0.00010078    0.024786   -0.017764    0.025111   -0.010293
0.03583   -0.027508   0.0091954    0.029009     0.27684    0.032582   0.0062721
0.046548  -0.0083442    0.014392    0.029009     0.43534    0.039078     0.01829
0.04395   0.0033489    0.015042     0.02641     0.46945    0.046873     0.01829
0.031282    0.003024    0.011469    0.022188      0.4282    0.060515   0.0056225
0.01829  -0.0073698   0.0010752    0.016666     0.37168    0.078704   -0.017114
0.011794   -0.024585   -0.013216     0.01017     0.32783    0.099492   -0.040825
0.010819   -0.046022   -0.023935   0.0052977     0.28593     0.11508   -0.064861
0.0059473   -0.072331   -0.030106   0.0033489     0.23559     0.11995   -0.087272
-0.014191   -0.095068   -0.030106 -0.00022403     0.19466     0.11248    -0.11163
-0.055441    -0.10709   -0.027508  -0.0089938     0.19856    0.097218    -0.13664
-0.11001    -0.10806   -0.026858   -0.028482     0.28073    0.079029    -0.15711
-0.16133    -0.10091   -0.035953   -0.053817     0.44769    0.063438    -0.16685
-0.19478   -0.085324   -0.051868   -0.075904     0.67538    0.058891    -0.16133
-0.20258   -0.064211   -0.062587    -0.08305     0.91573    0.071234    -0.14379
-0.18342   -0.039201   -0.062912   -0.073631      1.1158    0.096893     -0.1217
-0.14314   -0.016789   -0.056416   -0.052843      1.2285     0.12678   -0.097017
-0.095393  -0.0060706   -0.047971   -0.030431      1.2191     0.15341   -0.070058
-0.051868   -0.008669   -0.038227   -0.012567      1.0694     0.16965   -0.043423
-0.020687   -0.018738   -0.027508  -0.0021729      0.8027       0.169   -0.021661
-0.0021729   -0.030431   -0.014516 -0.00022403     0.48374     0.14594  -0.0076946
0.0072465    -0.04115  -0.0031473  -0.0060706     0.19726     0.10729  -0.0050961
0.010819   -0.048945 -0.00022403   -0.014191   0.0085458    0.064413   -0.010943
0.013743   -0.051868  -0.0054209   -0.020687   -0.061613    0.028034   -0.020037
0.012768   -0.049595   -0.013866   -0.024585   -0.038551   0.0049729   -0.027833
0.0010752   -0.045047   -0.020037   -0.025559    0.029983  -0.0063954   -0.027833
-0.021337   -0.039526   -0.025234   -0.021337    0.093321  -0.0073698   -0.021986
-0.051219    -0.03303   -0.027183   -0.010943     0.11801  -0.0024977   -0.011917
-0.077528   -0.028157    -0.02361   0.0017248    0.095594   0.0039985  -0.0018481
-0.090845   -0.026533   -0.011592    0.017965    0.031932   0.0072465   0.0036737
-0.089221   -0.028807   0.0039985    0.038428   -0.059664   0.0075714   0.0020496
-0.080127   -0.032705    0.019264    0.056292     -0.1662   0.0017248  -0.0060706
-0.071032   -0.034978    0.031932    0.065712    -0.26949   -0.012892    -0.01484
-0.064861   -0.035628    0.038428    0.062789    -0.36141   -0.027833   -0.019712
-0.062912   -0.034978    0.040052     0.05272    -0.43644   -0.039201   -0.015165
-0.063561   -0.029782    0.039402    0.042001    -0.49198   -0.044723 -0.00087364
-0.059339   -0.018738    0.039078    0.035505    -0.52349   -0.046347    0.013743
-0.046996  -0.0018481    0.038103    0.033881    -0.52706   -0.048296    0.024461
-0.030106    0.014717    0.036479    0.037778     -0.4975   -0.050244     0.02641
-0.012242    0.025111    0.036154      0.0433    -0.43352   -0.050894    0.019264
0.0020496    0.027385    0.035505    0.047198     -0.3416   -0.047321   0.0069217
0.013418     0.02641    0.032257    0.049796    -0.23474   -0.042124  -0.0083442
0.022188     0.02706    0.031607    0.053369    -0.13307   -0.036927   -0.023285
0.028034    0.029658    0.032257    0.056292    -0.04992   -0.032055   -0.033354
0.035505    0.030957    0.029658    0.054668   0.0026992   -0.027833   -0.033354
0.040052    0.025111    0.025111    0.048497    0.026085   -0.024909   -0.024585
0.040052    0.015042    0.020564    0.039078    0.029983    -0.02426   -0.011592
0.033231   0.0065969    0.017316    0.030308    0.024137   -0.025884   0.0020496
0.024137   0.0056225    0.012119    0.023812    0.013418   -0.027508    0.013093
0.016341   0.0078962   0.0059473    0.020888   0.0046481    -0.03303    0.022188
0.010495   0.0085458 -0.00054884    0.020239 -0.00022403   -0.039526    0.027709
0.0052977   0.0062721  -0.0063954    0.022837  -0.0021729   -0.044073    0.030633
0.0014   0.0033489  -0.0096434    0.026735  -0.0054209   -0.043748    0.032582
0.00042559   0.0017248  -0.0089938    0.033556  -0.0089938   -0.038227    0.033881
-0.00087364   0.0036737  -0.0060706      0.0433   -0.017764   -0.027833    0.036804
-0.0060706   0.0065969  -0.0021729    0.053044   -0.030756   -0.019063    0.039727
-0.01484    0.009845   0.0046481     0.06019   -0.042124   -0.014191    0.037129
-0.023285    0.010819    0.013093     0.06019   -0.047646   -0.011592    0.030308
-0.026533   0.0043233    0.021863    0.054019    -0.04927   -0.012567    0.024786
-0.02361  -0.0047713     0.02641    0.042001   -0.050244   -0.012892    0.024461
-0.01614   -0.012892    0.024786    0.029983   -0.051544   -0.011917    0.028684
-0.0060706   -0.018738    0.019589    0.021213   -0.050244  -0.0089938    0.033556
0.0052977   -0.021012    0.011794    0.016666   -0.044398  -0.0080194    0.036479
0.014392   -0.021012   0.0065969    0.015042   -0.033679   -0.012242    0.035505
0.017316   -0.017114   0.0043233    0.015692   -0.022636   -0.021337    0.031607
0.019914   -0.010293    0.003024    0.017965   -0.015815   -0.030756    0.022837
0.025111  -0.0028225  -0.0028225    0.022512   -0.019063   -0.036278    0.015042
0.030308   0.0026992   -0.013216    0.022512   -0.031081   -0.034004     0.01017
0.032582   0.0049729   -0.021337    0.016016   -0.047321   -0.028482   0.0091954
0.031282    0.003024    -0.02361   0.0033489    -0.05804   -0.021661    0.009845
0.02706 -0.00087364   -0.019388   -0.007045   -0.057715   -0.015165    0.011469
0.019914  -0.0024977    -0.01614   -0.012892   -0.051219  -0.0057458    0.013093
0.01017  -0.0015233    -0.01614   -0.016789   -0.044073   0.0039985    0.016991
0.0017248 -0.00022403   -0.017114   -0.019712   -0.037902   0.0091954    0.022512
0.0010752 -0.00022403   -0.018738   -0.020037   -0.033679   0.0078962    0.029658
0.0095202  0.00042559   -0.019063    -0.01484   -0.033354   0.0010752    0.037454
0.025111      0.0014   -0.017114   -0.010943   -0.040175   -0.008669     0.04395
0.041351   0.0036737    -0.01484   -0.014191   -0.054142   -0.019712    0.047847
0.055318     0.01017   -0.010293   -0.021661   -0.071032   -0.026209    0.053694
0.061814     0.01764  -0.0073698   -0.030106   -0.084674   -0.023935     0.06019
0.062464    0.020564  -0.0037969    -0.04115   -0.092794    -0.01484    0.067336
0.062789    0.019264   0.0017248   -0.051219   -0.096042  -0.0054209    0.075781
0.06896    0.016341   0.0075714   -0.054792   -0.095068   0.0017248      0.0865
0.080003     0.01829    0.009845    -0.04862   -0.090196   0.0069217    0.099492
0.092346    0.023812   0.0039985   -0.036278   -0.079152    0.010495     0.10729
0.095269    0.029658  -0.0073698   -0.026858   -0.065186   0.0088706     0.10761
0.084551    0.029333   -0.016789   -0.023935   -0.051544  0.00010078    0.099817
0.067336    0.023487   -0.018738   -0.029457     -0.0405    -0.01484    0.087799
0.048822    0.014068   -0.012567   -0.036927   -0.033679   -0.028807     0.07773
0.032257   0.0020496  -0.0021729   -0.042449   -0.030756   -0.035628    0.070584
0.016666  -0.0083442   0.0036737   -0.042449   -0.036278   -0.036602    0.064737
0.0039985    -0.01549   0.0059473   -0.037902   -0.054142   -0.038227    0.056617
-0.0037969   -0.020687   0.0059473   -0.027183   -0.076554   -0.040825    0.045249
-0.0041217    -0.02361   0.0049729   -0.012892   -0.090521   -0.046022    0.033556
0.0026992   -0.023285   0.0043233  0.00075039   -0.089871   -0.056416    0.025436
0.013418   -0.019388   0.0017248    0.011144   -0.080127   -0.066485    0.021538
0.020888   -0.008669  -0.0060706    0.017965   -0.073955   -0.069408    0.021213
0.021213   0.0069217   -0.017114    0.016341   -0.077528   -0.068758    0.017316
0.012768    0.024137   -0.020687   0.0072465   -0.084349   -0.067459    0.008221
-0.0037969    0.041351   -0.014516   -0.007045   -0.085648   -0.067134  -0.0063954
-0.021012    0.055318   0.0010752   -0.017764   -0.078503   -0.063886   -0.020687
-0.032705    0.060515    0.016666   -0.022311   -0.063886   -0.053817   -0.030106
-0.036278    0.054668    0.024137   -0.020037   -0.045372   -0.040825   -0.029782
-0.031406    0.040377    0.022188   -0.013216   -0.023935   -0.029457   -0.020362
-0.021661    0.024786    0.009845  -0.0057458  -0.0015233   -0.021012  -0.0060706
-0.0073698    0.013093  -0.0089938 -0.00022403    0.019914   -0.016464   0.0069217
0.011144   0.0052977   -0.030756   0.0039985    0.042975   -0.020037    0.014068
0.030957      0.0014    -0.04862   0.0043233    0.070584   -0.027508    0.014717
0.048172   0.0023744   -0.056741  -0.0034721     0.10209   -0.038227   0.0078962
0.059541   0.0091954   -0.056416    -0.01484      0.1349   -0.047646  -0.0060706
0.067986    0.024461   -0.052193   -0.022636      0.1664   -0.055441   -0.024909
0.072533    0.042975   -0.047646   -0.025884     0.19044   -0.057715   -0.044723
0.06896    0.058241   -0.042124   -0.025559     0.19563   -0.059989   -0.063886
0.055968    0.062789   -0.037577   -0.022961      0.1742   -0.064536   -0.079152
0.034206    0.059865   -0.036278   -0.019063     0.12678   -0.070058   -0.087597
0.0075714    0.051745   -0.034329   -0.012892    0.066037   -0.074605   -0.086623
-0.020687    0.039402   -0.028157  -0.0054209   0.0023744   -0.075579   -0.077528
-0.043099    0.022837   -0.013541  -0.0015233    -0.04862    -0.07493   -0.068109
-0.05804   0.0020496   0.0017248  -0.0031473   -0.074605   -0.072981   -0.063561
-0.065186    -0.01484    0.013093   -0.010293   -0.072006   -0.070382   -0.065186
-0.067459   -0.024909    0.017316   -0.019063   -0.044723   -0.069083   -0.068758
-0.068758   -0.028482    0.014392   -0.025234 -0.00022403    -0.06551   -0.068434
-0.070058   -0.030431   0.0036737   -0.026533    0.050446   -0.056416   -0.062262
-0.068109   -0.038551    -0.01484   -0.025234    0.091372   -0.046022   -0.053817
-0.059014   -0.051868   -0.038227   -0.021661     0.11346   -0.034004   -0.044398
-0.044073   -0.069083    -0.05804   -0.017114     0.11508   -0.020037   -0.037577
-0.030756   -0.085648   -0.066485   -0.012242     0.10306  -0.0076946   -0.035953
-0.029132    -0.09182   -0.059014  -0.0034721    0.087474   0.0069217   -0.032705
-0.042449    -0.08305    -0.04115    0.014717    0.076431    0.027385   -0.018413
-0.068109   -0.066485   -0.018413    0.039078    0.074806    0.053369    0.012119
-0.096692   -0.048945   0.0036737    0.062139    0.082927    0.082927     0.05142
-0.11001   -0.033354     0.01764    0.073832    0.088124     0.10924    0.085525
-0.097341   -0.018088    0.021538    0.073832    0.062789     0.12548    0.099817
-0.055116  -0.0057458    0.019914    0.066362  -0.0054209     0.13002    0.092021
0.0043233   0.0052977    0.015042     0.06084    -0.11163     0.12613    0.072533
0.062789     0.01829    0.008221    0.060515    -0.23181     0.12125    0.050446
0.10371    0.033881   0.0036737    0.062139    -0.34095     0.11963    0.034206
0.12385    0.050446   0.0088706    0.059216    -0.41793     0.11768    0.025436
0.12613    0.067011    0.024461     0.05142    -0.45918     0.11021    0.023487
0.11281     0.08585     0.04395    0.041676     -0.4647    0.093645    0.021863
0.091372     0.10274    0.058241    0.032906    -0.43254    0.073507    0.015367
0.065062     0.11281     0.06019    0.030957    -0.36693    0.054668 -0.00022403
0.033556     0.10631     0.05142    0.031607    -0.28638    0.043625   -0.017764
-0.00022403    0.082277    0.033556    0.029658    -0.20388    0.042001   -0.032055
-0.027833    0.047523    0.009845    0.029658    -0.12527     0.05272   -0.037252
-0.041799    0.014392    -0.01549    0.031932   -0.048296    0.075781   -0.028482
-0.037902  -0.0063954   -0.030431    0.036804    0.034855     0.10956  -0.0057458
-0.015165   -0.011917   -0.034329    0.042975      0.1245     0.13912    0.025436
0.019914  -0.0050961   -0.024909    0.049147     0.21642     0.14724    0.056292
0.05142   0.0049729  -0.0093186    0.051096      0.2999     0.12548    0.074482
0.067011    0.016341   0.0069217    0.048497     0.36389    0.079029    0.072533
0.064737    0.029658    0.016991    0.037454     0.40189    0.017965    0.048822
0.045899    0.037454     0.01829     0.01894     0.40611   -0.045372    0.011794
0.014392    0.031932   0.0049729  0.00010078     0.35934    -0.10254   -0.024585
-0.024585   0.0072465   -0.019388   -0.015815     0.23883    -0.14379   -0.048945
-0.06681   -0.029457   -0.045697   -0.029132    0.053694    -0.16945   -0.060313
-0.10903   -0.063886    -0.06616   -0.037577    -0.14834    -0.18309    -0.06616
-0.15321   -0.084999   -0.071682   -0.036602    -0.30359    -0.18731   -0.069408
-0.19154   -0.089546   -0.060638   -0.023935    -0.37278    -0.18471   -0.070058
-0.2107   -0.084024   -0.040825  -0.0047713    -0.34387    -0.17562   -0.070382
-0.20355   -0.076554   -0.021012    0.012443    -0.23668     -0.1623   -0.068434
-0.17822   -0.073631   -0.010293    0.021863   -0.097017    -0.14509   -0.064211
-0.14216   -0.073306   -0.010618    0.024461    0.029658    -0.12268   -0.057065
-0.10644   -0.071357   -0.015815    0.022512     0.11995    -0.10124   -0.045047
-0.07493   -0.061613   -0.016464    0.020239     0.17355   -0.086298   -0.023285
-0.048296   -0.042124  -0.0067202    0.022837      0.2057   -0.081101   0.0078962
-0.023285   -0.022636    0.013743    0.030633     0.23234   -0.084999    0.044275
0.0017248   -0.012567    0.037129    0.040052     0.25443    -0.10189    0.076106
0.029333   -0.013541    0.050121     0.04395     0.26514    -0.13729    0.098193
0.059541   -0.019712    0.047198    0.036804     0.23948    -0.19413     0.10306
0.081952   -0.019388    0.028684    0.019914     0.14951    -0.26559    0.092021
0.087474   -0.007045    0.003024  -0.0021729  -0.0041217    -0.34127     0.06831
0.076106    0.014068   -0.019388   -0.022311    -0.18114    -0.40136    0.042651
0.053044     0.03583    -0.03238   -0.037252    -0.32178    -0.43319    0.016341
0.023487     0.05207   -0.034004   -0.044398    -0.38739    -0.43092   -0.013216
-0.0083442    0.057267   -0.025884   -0.043099     -0.3861    -0.39714   -0.048296
-0.039201    0.049472   -0.013541   -0.037577    -0.35914    -0.34257   -0.090196
-0.065835    0.033231  -0.0034721   -0.033354    -0.34582    -0.27631    -0.12852
-0.0837    0.016016      0.0014   -0.039201    -0.35102    -0.20128    -0.14834
-0.088896   0.0065969   0.0017248   -0.052843    -0.34744    -0.11975    -0.14541
-0.082076    0.015367  -0.0015233   -0.062587    -0.30229   -0.034004      -0.123
-0.062912      0.0433  -0.0037969   -0.062262    -0.19608    0.051096   -0.089221
-0.03173    0.078379  -0.0028225   -0.052843   -0.041799     0.13165   -0.047971
0.00010078     0.10436   0.0036737   -0.041475     0.11736     0.19563   -0.008669
0.024786     0.11021    0.011144   -0.033354     0.24143     0.23689    0.018615
0.036804    0.093645    0.016341   -0.026858     0.30574     0.25507    0.025436
0.040052    0.066037    0.016016   -0.022636     0.31094     0.26125    0.017316
0.039078    0.042001    0.014068   -0.019063     0.28008     0.26709  0.00010078
0.041027    0.029009    0.016016   -0.016789     0.25085     0.27749   -0.017114
0.049796    0.026735     0.02641   -0.017439     0.25832     0.29243   -0.027508
0.06831    0.027385    0.038103   -0.022961     0.31614     0.30445    -0.03173
0.098193    0.022837    0.038428   -0.028157     0.42755     0.31062   -0.032705
0.13295    0.008221    0.023812    -0.03303      0.5919     0.30639   -0.030431
0.16348   -0.013541  -0.0037969    -0.03173     0.79588     0.29762    -0.02361
0.1742   -0.029782   -0.033679    -0.02361      1.0093     0.28561   -0.010943
0.15763   -0.030431   -0.050894  -0.0060706      1.1869     0.27099   0.0049729
0.11151   -0.013866    -0.04862    0.017316      1.2711      0.2515    0.020239
0.044275    0.010819   -0.030431    0.041676      1.2061     0.22844     0.03518
-0.027508    0.034855  -0.0083442    0.062464     0.97647     0.19499    0.047198
-0.080776    0.048172    0.011794    0.076106     0.62341     0.14756    0.049147
-0.10514    0.044924    0.025111    0.080653      0.2174    0.088773    0.040702
-0.10221    0.023487    0.026735    0.073182    -0.15841    0.027385    0.024137
-0.081751  -0.0099683     0.01764    0.057267    -0.44489   -0.022636   0.0049729
-0.052518   -0.045047   0.0033489    0.041027    -0.63717    -0.04992   -0.010618
-0.020037   -0.070382   -0.007045    0.028359    -0.75897   -0.051219   -0.018738
0.008221    -0.07493  -0.0067202    0.019589    -0.83628   -0.025884   -0.015165
0.02641   -0.060638  0.00042559    0.015367    -0.89864    0.017965  -0.0031473
0.029009   -0.037252   0.0078962     0.01764    -0.96523    0.064737    0.013093
0.020888    -0.01549     0.01017    0.020564     -1.0201     0.10177    0.028034
0.0069217 -0.00087364   0.0039985     0.01894     -1.0425      0.1219     0.03518
-0.0076946   0.0033489   -0.008669    0.010819     -1.0188     0.12613    0.034206
-0.018413  -0.0024977   -0.021337  -0.0041217    -0.94671     0.11703    0.026085
-0.024909    -0.01614   -0.029457   -0.019712    -0.84115    0.098193    0.013418
-0.027833   -0.032705   -0.031081   -0.032055     -0.7226    0.075131   0.0010752
-0.024909   -0.045047   -0.030431   -0.038227    -0.60404    0.055318   -0.011592
-0.020037   -0.049595   -0.029457   -0.039526    -0.47899    0.040052   -0.022961
-0.015815    -0.04927    -0.03238   -0.039201    -0.32016    0.023487   -0.031406
-0.016789   -0.046022   -0.036602   -0.037902    -0.11293    0.003024   -0.034329
-0.02426    -0.04115   -0.038551   -0.034004     0.12515   -0.018413    -0.03173
-0.032055   -0.035303   -0.034654   -0.023285     0.33952   -0.034654   -0.022311
-0.034329   -0.029132   -0.024909  -0.0067202     0.47724   -0.043099   -0.012242
-0.029782   -0.019063   -0.011592   0.0085458     0.51362   -0.045047  -0.0057458
-0.019388  -0.0047713      0.0014     0.01894     0.44931   -0.042449  -0.0021729
-0.0041217    0.012443    0.011794    0.022512     0.31744   -0.037252      0.0014
0.010819    0.029009    0.016991    0.022188     0.16933   -0.026533   0.0049729
0.019264    0.038103    0.016341    0.021538    0.051745   -0.015165   0.0085458
0.020239    0.040377    0.011469    0.020239   -0.016464  -0.0089938    0.013093
0.01829    0.039727   0.0039985    0.019264   -0.038551   -0.008669    0.017965
0.015367    0.042651  -0.0041217    0.015692   -0.035628   -0.012242    0.019264
0.012768    0.049147  -0.0093186    0.012443   -0.029782   -0.017764    0.016341
0.0065969    0.055968  -0.0089938    0.012768   -0.029457   -0.028157   0.0039985
0.00010078    0.061165  -0.0063954    0.017316   -0.028807   -0.041799   -0.015815
-0.0073698     0.06084  -0.0031473    0.026085   -0.022636   -0.058365   -0.034329
-0.017114    0.054993  -0.0015233    0.032906   -0.008669   -0.077203   -0.046671
-0.028157    0.042001  -0.0028225    0.035505   0.0078962   -0.093119   -0.052193
-0.038876    0.022837  -0.0054209    0.033881    0.020239    -0.10741    -0.04862
-0.041799   0.0026992  -0.0054209    0.029983    0.024137    -0.11651   -0.037577
-0.033354    -0.01549   -0.008669    0.028034    0.024786     -0.1191   -0.022636
-0.013866    -0.03173   -0.019063    0.029658    0.028359    -0.11488  -0.0076946
0.008221   -0.042774    -0.03173    0.033231    0.036479    -0.10384   0.0052977
0.024461   -0.043423   -0.037577    0.034855    0.047198     -0.0837    0.011794
0.030633   -0.028807   -0.031081    0.037454    0.060515   -0.053817    0.013093
0.029983  -0.0044465   -0.016789    0.039727    0.081627   -0.021012    0.013418
0.029009    0.023487  -0.0050961    0.037129     0.11443   0.0036737    0.014392
0.030308    0.046873   0.0026992    0.030308     0.15373    0.012443    0.010495
0.030957    0.057917   0.0065969    0.019914     0.18914   0.0052977   0.0026992
0.02641    0.055968   0.0069217    0.010495     0.21188  -0.0096434  -0.0083442
0.011144    0.040702  0.00042559   0.0039985     0.22129   -0.020362   -0.017114
-0.011267    0.014717   -0.012567 -0.00022403     0.22454   -0.018738   -0.020362
-0.032705   -0.020037   -0.028157  -0.0011985     0.22584  -0.0021729    -0.01614
-0.047646   -0.052193   -0.035628 -0.00054884     0.23461    0.020564  -0.0028225
-0.045372   -0.068109   -0.031081      0.0014      0.2554    0.037778    0.019264
-0.027183   -0.062912   -0.015165   0.0023744     0.29048    0.042326    0.044275
-0.0057458   -0.042449   0.0036737  -0.0011985     0.33075     0.03518     0.06896
0.0075714   -0.019063     0.01894  -0.0083442     0.36843    0.019264    0.090397
0.009845  -0.0044465    0.025761   -0.012892     0.39247  -0.0031473     0.10339
0.0056225  -0.0015233    0.023812   -0.011917     0.39702   -0.022636     0.10209
0.0039985  -0.0057458    0.013418  -0.0076946     0.38337   -0.038551    0.091047
0.011469  -0.0076946  -0.0011985  -0.0031473     0.34505   -0.051544    0.075456
0.025111  -0.0034721   -0.010943  -0.0011985     0.27099   -0.065186     0.06019
0.038428    0.010819  -0.0096434  -0.0015233     0.14691     -0.0837    0.046873
0.048822    0.029658  0.00010078  -0.0050961   -0.040825    -0.10936    0.038103
0.057267    0.044924    0.011144   -0.012892    -0.29093    -0.14054    0.033556
0.064737    0.051096    0.015367   -0.021661    -0.57253    -0.17594    0.031607
0.067661    0.048497     0.01017   -0.024585    -0.83595    -0.20615    0.030308
0.058891    0.041676 -0.00087364   -0.022961     -1.0406    -0.22597    0.024786
0.027709    0.032906   -0.012567   -0.022636     -1.1663    -0.22889    0.015042
-0.018738    0.024461   -0.022961   -0.025559      -1.215     -0.2146    0.003024
-0.062912    0.016666   -0.029132   -0.027508     -1.2131    -0.18699  -0.0076946
-0.086623   0.0085458   -0.027833   -0.025884     -1.1841    -0.15483    -0.01549
-0.085648  -0.0011985   -0.019388   -0.022636     -1.1338     -0.1269   -0.022636
-0.068434   -0.010943  -0.0089938   -0.020037      -1.049    -0.10546   -0.028807
-0.046347   -0.019712  -0.0028225   -0.022311      -0.923    -0.09117   -0.037252
-0.026858   -0.029782  -0.0044465   -0.028482    -0.75735   -0.080451   -0.046022
-0.01614   -0.040175   -0.013541   -0.036602    -0.56994   -0.072331   -0.055116
-0.014191   -0.046671    -0.02361   -0.043423    -0.38122   -0.066485   -0.060638
-0.017114   -0.046996   -0.026858   -0.046347    -0.21037   -0.062912   -0.058689
-0.019712     -0.0405   -0.019712   -0.042124   -0.071682   -0.060963   -0.046996
-0.021012    -0.03173  -0.0083442   -0.029132    0.032257   -0.056416   -0.027508
-0.017764   -0.026209      0.0014   -0.010618     0.10891   -0.046996  -0.0057458
-0.013216   -0.030431   0.0059473    0.010495      0.1625    -0.03303    0.012443
-0.012892   -0.039201   0.0036737    0.034855     0.19823   -0.014191    0.023487
-0.018413   -0.044073  -0.0028225    0.056617     0.22422   0.0059473    0.026735
-0.025234   -0.038551  -0.0089938     0.06831     0.25053    0.021213    0.025761
-0.030106   -0.023285  -0.0076946    0.064737     0.28073    0.027385    0.025111
-0.027508  -0.0044465  -0.0011985    0.050121     0.31516     0.02706    0.024786
-0.018413     0.01017   0.0085458    0.032582     0.33855    0.023162    0.021213
-0.0057458    0.012768    0.011794    0.021538     0.33952    0.019914    0.016341
0.0065969   0.0023744   0.0088706    0.018615     0.31322    0.016666    0.012443
0.016991    -0.01484   0.0049729    0.022188     0.26904    0.013743    0.010495
0.021863    -0.03303    0.003024    0.027709     0.22292    0.011469    0.010495
0.016666   -0.045047   0.0036737    0.029658     0.18622    0.012443   0.0078962
-0.0044465    -0.04992   0.0020496    0.028359     0.16965    0.020888   0.0043233
-0.03173    -0.04862 -0.00022403    0.022512     0.18751    0.038753    0.003024
-0.050894   -0.040175  0.00075039    0.021213     0.24988    0.067011   0.0056225
-0.05739   -0.025234   0.0088706    0.025761     0.34764     0.10404    0.010819
-0.055441  -0.0076946     0.01894     0.03583      0.4571     0.14269    0.014392
-0.047971   0.0078962    0.024137    0.045249     0.54643     0.17192    0.016016
-0.041799    0.016666    0.022512    0.048497     0.60359     0.18167    0.013743
-0.036602    0.017965    0.010819    0.041351      0.6416     0.16835   0.0095202
-0.028482    0.012443  -0.0054209    0.025111     0.67343     0.13684   0.0069217
-0.018088   0.0056225   -0.018413   0.0056225     0.70493    0.098842   0.0033489
-0.0050961  0.00042559   -0.023285  -0.0083442     0.73611    0.066362  -0.0021729
0.0065969  -0.0018481   -0.019063   -0.013216     0.76112    0.045249  -0.0060706
0.017965  -0.0034721   -0.012242   -0.010618     0.75398    0.035505  -0.0083442
0.028684  -0.0083442  -0.0063954  0.00010078     0.68122    0.033231  -0.0067202
0.040702   -0.015165  -0.0050961    0.014392     0.51037    0.034855  -0.0044465
0.05142    -0.02361  -0.0080194    0.023162      0.2515    0.028684  -0.0063954
0.059865   -0.022961   -0.012892    0.022512   -0.034978    0.011469   -0.015815
0.066037   -0.013866   -0.017114    0.014717    -0.26592   -0.010943   -0.029457
0.067011 -0.00054884   -0.017114    0.003024    -0.38642   -0.033679   -0.038227
0.061814    0.010495   -0.016789   -0.010943    -0.38512    -0.04927   -0.041799
0.053044    0.017965   -0.017764   -0.022961     -0.2932   -0.053817   -0.037252
0.043625    0.021863    -0.01614   -0.029782    -0.16068    -0.04862   -0.023935
0.039402    0.020888   -0.013216   -0.031406   -0.033679   -0.039201   -0.012242
0.038428    0.016991  -0.0063954   -0.026858    0.056292   -0.035303   -0.008669
0.039078    0.012443  0.00042559   -0.019388    0.099817    -0.04115   -0.012242
0.037778    0.011794   0.0023744   -0.010618     0.10599   -0.053492   -0.019063
0.037778    0.016016  -0.0028225  -0.0037969     0.10144   -0.061288   -0.023935
0.041676    0.022837   -0.011267  0.00075039     0.11281   -0.055441   -0.027183
0.049472    0.028359   -0.017439   0.0052977     0.14561   -0.038551   -0.025559
0.056942    0.030957   -0.019388    0.014068     0.18167   -0.017114   -0.018738
0.063438    0.030308   -0.019063     0.02641     0.19044  -0.0031473   -0.008669
0.067336    0.027709   -0.018413    0.038103     0.15049  -0.0054209   0.0017248
0.068635    0.027385   -0.016464    0.039402    0.058241    -0.02426    0.009845
0.065712    0.029009   -0.014191    0.029009   -0.065186   -0.052518    0.012443
0.055643    0.031282   -0.012892    0.012768    -0.19803   -0.084674   0.0059473
0.041676    0.030633   -0.010943  -0.0011985    -0.31821    -0.11391  -0.0096434
0.031282    0.022837  -0.0063954  -0.0060706    -0.40136    -0.14152   -0.025559
0.02706   0.0085458 -0.00022403   -0.008669     -0.4176    -0.16523   -0.035953
0.021213  -0.0080194   0.0043233   -0.010943    -0.34842    -0.18147   -0.035303
0.0072465   -0.021661   0.0052977   -0.011917    -0.20908    -0.18991   -0.023935
-0.013216   -0.028807   0.0023744   -0.011592   -0.037252    -0.18731  -0.0057458
-0.028157   -0.027183  -0.0041217   -0.010293     0.11833    -0.17335     0.01764
-0.031081   -0.020687  -0.0099683  -0.0063954     0.21545    -0.14964    0.040377
-0.026209  -0.0099683   -0.010618   0.0036737     0.23721    -0.12203    0.054668
-0.018088  0.00075039  -0.0057458    0.014717     0.19791   -0.096042    0.056942
-0.014191   0.0091954  -0.0011985    0.022837      0.1245   -0.073631    0.046873
-0.01549    0.011144  -0.0034721     0.02706    0.047523   -0.054792    0.030957
-0.019388   0.0065969   -0.012567    0.027709   -0.014516   -0.038876    0.013093
-0.021661  -0.0028225   -0.022636    0.025111   -0.049595   -0.030756  -0.0011985
-0.023935   -0.012242   -0.026858    0.020239   -0.068434   -0.032705   -0.012567
-0.029457   -0.017764   -0.021661    0.014392   -0.081426   -0.043748   -0.019712
-0.035628   -0.016789   -0.010618   0.0075714   -0.097341   -0.056416   -0.021661
-0.035953   -0.011267   0.0010752   0.0017248    -0.11813   -0.062912   -0.022311
-0.026858  -0.0067202    0.009845  -0.0057458    -0.13502   -0.054792   -0.021661
-0.0099683  -0.0047713    0.013093   -0.013866    -0.13957    -0.03173   -0.018088
0.008221  -0.0080194     0.01017   -0.018088    -0.13112 -0.00022403    -0.01484
0.023487   -0.013541   0.0033489   -0.018413    -0.11098    0.030308   -0.012892
0.032257   -0.012892  -0.0031473    -0.01549   -0.084674     0.06084   -0.012567
0.031282  -0.0031473  -0.0057458   -0.010618   -0.061288    0.092671   -0.011592
0.019589    0.016991  -0.0050961  -0.0080194   -0.045047      0.1258  -0.0083442
-0.00022403    0.040052  -0.0047713  -0.0099683   -0.037252     0.15244  -0.0067202
-0.023285    0.055968   -0.007045    -0.01549   -0.034654     0.16738   -0.011267
-0.041475    0.059216   -0.013216   -0.022311   -0.034329      0.1703   -0.021986
-0.053168    0.048822   -0.018088   -0.032055   -0.035303      0.1638   -0.034654
-0.060963    0.031282   -0.016464   -0.040175   -0.038876     0.15861   -0.041475
-0.067459    0.016666  -0.0063954   -0.042774   -0.043748     0.15991   -0.039851
-0.072981    0.011144    0.011794   -0.036927   -0.047321     0.16965   -0.026533
-0.078503    0.016991    0.032582    -0.02426   -0.048296     0.18004  -0.0060706
-0.082076    0.032582    0.049147  -0.0080194   -0.049595     0.18557    0.013093
-0.080776    0.048822     0.06019    0.010495   -0.051868     0.18199    0.023812
-0.070707    0.061489    0.062789    0.025436   -0.056416      0.1664    0.024137
-0.054142    0.068635    0.054344    0.032257   -0.062587     0.14529    0.016991
-0.034654    0.067661    0.038103    0.028684   -0.072006     0.12093     0.01017
-0.020687     0.06019    0.016016     0.01764   -0.087922     0.09462   0.0052977
-0.018088    0.050121  -0.0060706   0.0020496    -0.11196    0.064413  -0.0063954
-0.024585    0.037129   -0.021012   -0.014191    -0.14346    0.031932   -0.029782
-0.03173    0.024461   -0.026533   -0.030106    -0.18666  -0.0037969   -0.064536
-0.034329    0.014717   -0.023935   -0.041799    -0.24091   -0.036927    -0.10254
-0.034004     0.01017   -0.017439   -0.045697     -0.2958   -0.060638     -0.1308
-0.029782   0.0095202  -0.0099683   -0.039526    -0.33802   -0.069733    -0.13989
-0.023285   0.0085458   -0.007045   -0.025884    -0.35232   -0.065186    -0.12755
-0.014516 -0.00022403  -0.0099683  -0.0099683     -0.3377   -0.050894    -0.10156
-0.0050961   -0.019388   -0.017114   0.0046481    -0.30229   -0.040175   -0.075255
0.0049729   -0.048296   -0.028807    0.016991    -0.25715    -0.04115   -0.053492
0.015042   -0.078503     -0.0405    0.025761    -0.21005   -0.047646   -0.035303
0.024137   -0.097017   -0.046022    0.027709    -0.16328   -0.052843   -0.016464
0.028359   -0.097991   -0.043099    0.028359    -0.11163   -0.045697   0.0056225
0.022512   -0.079477   -0.033354    0.033881   -0.060313   -0.026533    0.033556
0.0095202   -0.042449   -0.020362    0.043625   -0.015815  -0.0060706     0.06019
-0.007045   0.0020496  -0.0044465    0.053694     0.01894   0.0062721    0.075131
-0.020362     0.04395    0.011144    0.061814    0.041351   0.0078962    0.074806
-0.02361     0.07773    0.021863    0.066362    0.054668   0.0046481    0.068635
-0.017114     0.10274    0.028684    0.067661    0.063113   0.0062721    0.064413
-0.0083442     0.12028    0.033881    0.069934    0.066362    0.013418    0.062464
-0.007045      0.1349    0.039402    0.074482    0.062464    0.025436    0.059541
-0.01484     0.14269    0.041676     0.07773    0.051745    0.039727    0.055643
-0.027508     0.13587     0.03518    0.071558    0.038753    0.050771    0.053044
-0.036278     0.10729    0.016016    0.048497    0.023162     0.05142    0.047523
-0.03173    0.065062  -0.0089938    0.013093   0.0075714    0.039402    0.038428
-0.012567    0.022837   -0.030106   -0.022311   -0.010943    0.021538    0.025111
0.015367  -0.0041217   -0.045047   -0.045697   -0.020687    0.009845    0.012443
0.044599   -0.012567   -0.049595   -0.049595  -0.0034721    0.011144   0.0091954
0.064088   -0.008669   -0.045697   -0.035303    0.047198    0.028359     0.01764
0.064737  -0.0034721   -0.038551  -0.0099683      0.1219     0.05272    0.035505
0.042651  -0.0024977   -0.029132    0.011794     0.20473    0.073182    0.053369
-0.00054884  -0.0031473   -0.020037    0.022512     0.27424    0.080978    0.063113
-0.051544  -0.0041217   -0.013866    0.015367     0.31322     0.07773    0.064413
-0.095717  -0.0073698  -0.0096434  -0.0041217     0.31127    0.064737     0.06084
-0.1217   -0.013216   -0.007045   -0.025884     0.24825    0.049147    0.059541
-0.13275    -0.02361  -0.0047713   -0.040175    0.092671     0.03583    0.060515
-0.13242   -0.038227  -0.0047713   -0.043099    -0.16685    0.023487    0.060515
-0.12138   -0.048945  -0.0054209   -0.037252    -0.49003    0.003024    0.055968
-0.095068   -0.053168   -0.007045   -0.027833    -0.78658   -0.031081    0.048172
-0.04992   -0.045047  -0.0089938   -0.019388    -0.95711     -0.0837    0.037454
0.009845   -0.025234   -0.010293   -0.013216    -0.94346    -0.15223    0.022837
0.075131   0.0020496  -0.0047713   -0.007045    -0.76222    -0.22239   0.0072465
0.12678    0.028359   0.0026992  -0.0063954    -0.47996    -0.28313   -0.012242
0.15568    0.047847   0.0072465   -0.010943    -0.16035    -0.32178   -0.037577
0.15991    0.056942   0.0046481   -0.016464     0.14334    -0.33543   -0.062912
0.14334    0.054993  -0.0037969   -0.018738     0.39377    -0.32828   -0.082076
0.10826    0.042975    -0.01484   -0.018088     0.57274    -0.30879   -0.088247
0.058241    0.025111   -0.025884   -0.015165     0.67408    -0.28021   -0.085324
0.0049729   0.0059473   -0.031406  -0.0093186     0.69389    -0.24935   -0.078178
-0.036278   -0.010293   -0.030431  -0.0031473     0.63802    -0.21849   -0.067784
-0.051219   -0.020362   -0.020362   0.0026992     0.52889    -0.18536   -0.052193
-0.035628   -0.019712  -0.0031473   0.0062721     0.40449    -0.14281   -0.029457
0.0046481  -0.0093186    0.014392   0.0078962     0.29633   -0.089221   0.0020496
0.053694   0.0046481    0.022512   0.0085458     0.22682   -0.030106    0.039402
0.092021   0.0085458    0.016016    0.009845     0.20278     0.02706    0.076106
0.11151  -0.0093186  -0.0041217    0.016666      0.2122    0.070584     0.10794
0.11573   -0.047646   -0.029457    0.030633     0.22454    0.093321      0.1336
0.10794   -0.087922   -0.046996    0.051096     0.19044    0.095594     0.14854
0.093645    -0.10806   -0.045697    0.071883    0.073832    0.080003     0.14919
0.076106   -0.091495   -0.023285      0.0852    -0.11261    0.053044     0.13912
0.06019    -0.04115     0.01017    0.084551    -0.30327    0.024461      0.1232
0.045574     0.02641    0.039078    0.071234    -0.42377   0.0033489     0.10436
0.033881    0.084876    0.049796    0.049796    -0.43904  -0.0050961    0.083576
0.028034     0.11638    0.042001    0.024137    -0.35654  -0.0021729    0.059865
0.025436     0.11508    0.025111  -0.0015233    -0.22077   0.0049729    0.037454
0.024137    0.090072     0.01017   -0.023935    -0.09182   0.0095202    0.021863
0.022512    0.053369 -0.00054884   -0.039526   -0.019063   0.0039985    0.014392
0.018615    0.016991  -0.0073698   -0.046671   -0.028157   -0.011592    0.012443
0.009845   -0.011592   -0.013866   -0.046671    -0.12982   -0.039526    0.011794
-0.0047713    -0.03238   -0.020037   -0.046347    -0.32146   -0.078178   0.0056225
-0.021661   -0.044073   -0.024585   -0.048296     -0.5852    -0.11715  -0.0054209
-0.032705   -0.046996   -0.024909   -0.050244    -0.87818    -0.14801   -0.016789
-0.035303   -0.044398   -0.022636   -0.047971     -1.1468     -0.1597   -0.022636
-0.034654   -0.042124   -0.016789   -0.039851     -1.3365    -0.14346   -0.021986
-0.033354   -0.040825  -0.0099683   -0.029782     -1.4073    -0.10091   -0.018413
-0.031406   -0.041475  -0.0057458   -0.022311     -1.3388   -0.043099   -0.010618
-0.027183   -0.044723  -0.0063954   -0.021661     -1.1377    0.015692  -0.0021729
-0.022636   -0.048945   -0.012242   -0.028482    -0.83043    0.058241  -0.0015233
-0.01549   -0.054792   -0.021337   -0.041475    -0.45755    0.071558  -0.0099683
-0.0063954    -0.06616   -0.030431   -0.056741   -0.059014    0.056292   -0.022961
-0.0031473   -0.082076   -0.036602   -0.070058     0.31971    0.030308   -0.035628
-0.008669    -0.09994     -0.0405   -0.076229     0.64127    0.013093   -0.042774
-0.01484    -0.10741   -0.042449   -0.073631     0.87513    0.012768   -0.043423
-0.018088   -0.096367   -0.040825   -0.061613     0.99921    0.029658   -0.035953
-0.022636   -0.066485   -0.033354   -0.043099      1.0008    0.053044   -0.021661
-0.034004   -0.024585   -0.020362   -0.022311     0.89495    0.073832   -0.011267
-0.051868    0.012768  -0.0041217  0.00075039     0.71403    0.079679   -0.011917
-0.069733    0.032906    0.012768    0.027709     0.48634    0.070584   -0.023285
-0.081751    0.030633    0.024461    0.048172     0.24663    0.050771   -0.038551
-0.086623   0.0059473    0.026735     0.05272    0.030633    0.027709   -0.050569
-0.079802   -0.027508    0.016016    0.043625    -0.14281   0.0052977   -0.057065
-0.063886   -0.057065  -0.0041217    0.027709    -0.26299    -0.01549   -0.061288
-0.044398   -0.072331   -0.026858    0.013093    -0.32276   -0.027833   -0.063886
-0.025884   -0.076229   -0.043748   0.0026992    -0.32471   -0.026533   -0.063886
-0.0099683   -0.070382   -0.050569  -0.0018481    -0.27696   -0.015165   -0.064861
0.0056225   -0.055766    -0.04862   0.0020496    -0.19738  -0.0041217   -0.062587
0.022188   -0.028807   -0.040825    0.013093    -0.10449  -0.0021729   -0.055766
0.036479   0.0091954   -0.030106    0.025111   -0.019388   -0.010618   -0.040175
0.041351     0.05272   -0.014516    0.036154    0.042001    -0.02361   -0.014191
0.031282    0.092021   0.0049729    0.042975    0.074806   -0.034978    0.011794
0.0065969     0.11866    0.021863    0.045249    0.091372   -0.040175    0.026735
-0.025234     0.12613    0.034206    0.044275     0.10989   -0.040825    0.029009
-0.051544     0.11606    0.039078    0.042326     0.14724   -0.040825     0.01764
-0.059989    0.093645    0.035505      0.0433     0.20181   -0.043423 -0.00022403
-0.047321    0.065712    0.025111    0.048497     0.26157   -0.049595   -0.017439
-0.022961    0.036154    0.016341    0.057917     0.31127   -0.053817   -0.028482
0.0020496   0.0091954     0.01764    0.067011     0.34115    -0.04992   -0.031081
0.01894  -0.0096434     0.02641    0.071883     0.34667   -0.039201   -0.030106
0.027385   -0.015815    0.038753     0.06961     0.33465   -0.021986   -0.030756
0.037454  -0.0096434    0.046548    0.062139     0.31744  -0.0015233   -0.037577
0.050771    0.003024    0.045899    0.053369     0.30802    0.013418   -0.048296
0.066362    0.016016    0.038428    0.045574     0.31516    0.019914   -0.060638
0.080328    0.021538     0.02641    0.038428     0.33433    0.020239    -0.06681
0.09397    0.016341    0.015042    0.032257     0.35674    0.022512   -0.055441
0.10566   0.0033489   0.0062721    0.030633     0.37136    0.031607   -0.028482
0.10794   -0.008669   0.0046481    0.032906     0.36583    0.042651   0.0065969
0.093321   -0.014191   0.0091954    0.035505     0.34375    0.050446    0.038753
0.061489   -0.012242    0.016341    0.039078     0.32816    0.050121    0.059865
0.016016  -0.0050961    0.019589    0.045249     0.34375    0.042001    0.065062
-0.035953   0.0017248    0.021538    0.054668     0.39702    0.030308    0.059216
-0.090196   0.0062721    0.020239    0.065387     0.47205    0.020564    0.048822
-0.13859   0.0056225    0.016016    0.071558      0.5422    0.019589    0.036804
-0.17562 -0.00022403    0.011469    0.074806     0.58281    0.033881    0.027385
-0.20063   -0.010293    0.012443    0.073182      0.5854    0.054668    0.016991
-0.21525   -0.021986    0.016666    0.068635     0.54675     0.06896   0.0069217
-0.2159   -0.033354    0.021538    0.061814     0.47984    0.071883  -0.0041217
-0.19738   -0.039526    0.025111     0.05272     0.40091    0.065387   -0.017764
-0.1597   -0.039526    0.027709    0.043625     0.32556    0.055643   -0.030106
-0.10838   -0.031406    0.027385    0.032906     0.26547    0.047523   -0.036927
-0.052843   -0.017764    0.022512    0.022837     0.22194    0.039402   -0.039201
-0.0063954 -0.00054884    0.017316    0.013418     0.18719    0.028359   -0.037252
0.02641    0.015692    0.013093   0.0078962     0.14951    0.010819   -0.034654
0.045899    0.024786   0.0069217   0.0069217     0.10339   -0.012892    -0.03303
0.059216    0.023812 -0.00022403   0.0085458     0.05272   -0.040175   -0.034654
0.069285    0.011794  -0.0050961    0.008221   0.0020496   -0.065186   -0.039526
0.075131  -0.0067202  -0.0099683   0.0069217   -0.050244     -0.0824   -0.045372
0.074482    -0.02361   -0.017764   0.0026992    -0.10416   -0.087272   -0.048945
0.059541   -0.031406   -0.026858  -0.0028225     -0.1636   -0.078503   -0.051219
0.027709   -0.027183   -0.034978   -0.008669    -0.23116   -0.059014   -0.053168
-0.023935   -0.010618   -0.035953   -0.011917    -0.30132   -0.034978   -0.053817
-0.088247    0.014068   -0.027508   -0.010943    -0.36433   -0.011267    -0.04927
-0.14964    0.041676   -0.010943  -0.0080194    -0.41046   0.0095202   -0.038551
-0.19283    0.067011    0.009845  -0.0089938    -0.43612    0.026085   -0.025884
-0.20128    0.075781    0.027709   -0.014516    -0.44164    0.040702   -0.018413
-0.17367    0.057917    0.031282   -0.022961    -0.43254    0.047847   -0.016789
-0.12105    0.014068    0.016991   -0.029457    -0.41338    0.045574   -0.019063
-0.059339   -0.039201   -0.012892   -0.034329    -0.38934    0.036479   -0.022961
-0.0015233   -0.080127   -0.047971   -0.034654    -0.35816    0.025111   -0.025234
0.047847   -0.093444   -0.076879   -0.033679    -0.31789    0.015692    -0.02361
0.087474   -0.080776   -0.091495    -0.03238    -0.27274   0.0095202   -0.017764
0.12093   -0.057715    -0.09117   -0.033679    -0.22726   0.0036737  -0.0067202
0.14042   -0.037902   -0.079802   -0.035628    -0.18147      0.0014    0.008221
0.14172   -0.023935   -0.062262   -0.036278    -0.13762   0.0069217     0.02706
0.12093   -0.013216   -0.037577   -0.033354   -0.098316    0.020564    0.051096
0.075781   0.0017248   -0.012892   -0.026533   -0.062912    0.036804    0.074806
0.014717    0.019589    0.008221    -0.01614    -0.03303    0.053044    0.093321
-0.044723    0.038753    0.023812  -0.0044465   -0.011592    0.064413     0.10209
-0.091495    0.054019    0.030633   0.0075714  0.00010078     0.06831    0.099817
-0.11553    0.063113    0.026735    0.016991   0.0033489    0.063113    0.086824
-0.11586    0.062789     0.01829     0.01894   0.0033489    0.046873    0.069285
-0.10026    0.052395    0.011469    0.010819   0.0039985    0.024786    0.051745
-0.079477    0.032906   0.0062721  0.00010078   0.0088706  0.00075039     0.03518
-0.063237   0.0072465   0.0020496  -0.0093186    0.016666   -0.021012    0.021863
-0.054467   -0.021012 -0.00087364   -0.019063    0.022837   -0.038227    0.010819
-0.046347   -0.056091  -0.0057458   -0.026858    0.025111   -0.050894  0.00042559
-0.029457    -0.10026   -0.019712   -0.031081     0.01894   -0.060638   -0.012242
-0.0041217    -0.14574   -0.046022   -0.033354    0.003024    -0.06616   -0.025234
0.02706    -0.17692   -0.078178   -0.031081   -0.027508   -0.067784   -0.032055
0.055968    -0.17562    -0.10221   -0.025234   -0.069083   -0.064211   -0.030106
0.076431    -0.13892    -0.10644   -0.012242    -0.11651   -0.053168   -0.019063
0.083901   -0.073955   -0.086948   0.0020496    -0.16815   -0.037577  -0.0041217
0.079354      0.0014   -0.050244    0.016666    -0.22694   -0.019388    0.014068
0.071558    0.071558  -0.0037969     0.02641      -0.301   0.0020496    0.032257
0.066362     0.12872    0.036479    0.030308    -0.39714    0.023812    0.050121
0.067986     0.17095    0.059541    0.027385    -0.51472    0.045574     0.06896
0.076106     0.19628    0.066686    0.017316    -0.63522    0.062789    0.087474
0.089098     0.20181    0.063438   0.0056225    -0.73169    0.072208     0.10079
0.10274     0.18751    0.056292  -0.0024977    -0.77944     0.06831     0.10306
0.10794     0.15926    0.046873  -0.0034721    -0.76255     0.06084    0.093645
0.10047     0.12872    0.036479  -0.0057458    -0.68654    0.056617    0.073832
0.084876     0.10306    0.025111   -0.012242    -0.57026    0.056617    0.048172
0.06896    0.085525    0.014392   -0.022311    -0.43384    0.059865    0.024461
0.060515    0.076106   0.0036737    -0.03238    -0.30165    0.062789   0.0072465
0.063438    0.074482  -0.0018481   -0.037577    -0.19089    0.061165  -0.0021729
0.071558     0.07708   0.0023744   -0.036927    -0.10676    0.057592  -0.0024977
0.078704    0.081952    0.015367   -0.032705   -0.046671    0.056617   0.0010752
0.0865     0.08585    0.028034   -0.027508  -0.0067202    0.055968   0.0020496
0.099817    0.081627    0.030957    -0.02361    0.023162    0.049472  -0.0067202
0.11833    0.067336     0.01829   -0.026209    0.050121    0.035505   -0.021986
0.13457    0.044275  -0.0099683   -0.034004    0.084226     0.01764   -0.039851
0.13814    0.011469   -0.046996   -0.044073     0.13035   0.0036737    -0.05739
0.1206   -0.029132   -0.084024   -0.048945     0.18232  -0.0037969   -0.072656
0.079679   -0.077203    -0.10903   -0.045047     0.23104  -0.0063954   -0.084349
0.024461     -0.1217    -0.11228   -0.033354     0.27294  -0.0073698   -0.086298
-0.030106    -0.15029   -0.090845   -0.018738     0.30964  -0.0093186   -0.073306
-0.076229    -0.15386   -0.055116  -0.0041217     0.34212   -0.012242   -0.044398
-0.10579    -0.13177   -0.019388   0.0072465     0.36843   -0.012567  -0.0044465
-0.11261    -0.09182   0.0072465    0.014068     0.38532   -0.011917    0.036479
-0.095068   -0.044398    0.022837    0.018615     0.39539  -0.0096434    0.068635
-0.05804  -0.0044465    0.029009    0.022188     0.40773   -0.010293    0.083251
-0.015165    0.015692    0.025436     0.02706     0.42592    -0.01484    0.080003
0.020888    0.012119    0.012119    0.029658     0.44996   -0.020687    0.063763
0.044275  -0.0063954  -0.0050961    0.028034     0.47237   -0.026858    0.040702
0.056942   -0.027508   -0.017439    0.020888     0.48147   -0.029457    0.020239
0.062789     -0.0405   -0.021337    0.011794     0.47172   -0.028807    0.011144
0.062139   -0.047321   -0.021337   0.0010752     0.44834   -0.026533   0.0095202
0.050771   -0.054792   -0.026209   -0.013541     0.42495   -0.024585   0.0052977
0.030308   -0.062587   -0.037902   -0.029132     0.41585   -0.025234  -0.0093186
0.0049729   -0.062912   -0.048296   -0.042124     0.42268   -0.033679   -0.035303
-0.016789   -0.047971   -0.051219   -0.049595     0.42852   -0.054792   -0.070382
-0.026209   -0.018738   -0.046671   -0.048945     0.40059   -0.090196    -0.10514
-0.022961     0.01764   -0.035303   -0.046022     0.30412     -0.1334    -0.13307
-0.015165    0.050446   -0.020037   -0.042449     0.11476    -0.17627    -0.14509
-0.014191    0.067986  -0.0057458    -0.03303    -0.15256    -0.21297    -0.13437
-0.022311    0.067011   0.0033489    -0.01614    -0.44489    -0.23603    -0.10156
-0.032055     0.05272   0.0091954   0.0056225    -0.70051    -0.24545   -0.057065
-0.030106    0.033556    0.011144    0.024461    -0.87168    -0.25098    -0.01614
-0.0080194    0.017965    0.011469    0.031607    -0.94866    -0.26234   0.0088706
0.023162     0.01017     0.01017    0.025436     -0.9636      -0.288    0.013743
0.047523   0.0062721   0.0065969    0.010819    -0.94736    -0.32795    0.003024
0.054993  0.00042559  -0.0024977  -0.0073698    -0.89215    -0.37115   -0.015165
0.044275  -0.0041217   -0.013216   -0.022961    -0.78658    -0.40786   -0.034654
0.024461  -0.0054209   -0.021337   -0.026533    -0.65471    -0.42929    -0.04992
0.0033489  -0.0021729   -0.022636   -0.015165    -0.54168    -0.43189   -0.059664
-0.01549   0.0017248   -0.015165   0.0026992    -0.46957     -0.4124   -0.060963
-0.035953 -0.00054884  -0.0018481    0.021538    -0.41858    -0.37245    -0.05739
-0.059989  -0.0093186    0.013743    0.036804    -0.33835    -0.31886   -0.053817
-0.085973   -0.025234    0.026735    0.047198    -0.19024    -0.25975   -0.051219
-0.10774   -0.045047    0.031932    0.054668    0.021863    -0.19803   -0.043099
-0.1178   -0.062587    0.024786    0.058891     0.25118    -0.13729   -0.022636
-0.11391    -0.06681   0.0075714    0.058566     0.43924   -0.078178   0.0088706
-0.090845   -0.051219   -0.012892     0.05142     0.55097   -0.021986    0.043625
-0.050569   -0.017439   -0.027833    0.039402     0.57728    0.026085    0.070909
-0.0054209    0.029333    -0.03303    0.027709     0.53441    0.063438    0.076755
0.029983    0.074482   -0.030431    0.017316     0.45288    0.092346    0.059541
0.053694     0.10436   -0.022311   0.0065969     0.36259     0.11573    0.029333
0.063438     0.11248    -0.01549  -0.0021729     0.28853     0.13522  0.00075039
0.056617     0.10306   -0.011592  -0.0057458     0.23559     0.14886    -0.02361
0.03583    0.084876  -0.0080194  -0.0057458     0.19726     0.15438   -0.043099
0.0056225    0.066686  -0.0015233   -0.007045     0.15666     0.14886   -0.058689
-0.025559     0.05142   0.0069217   -0.013866    0.099817     0.13165   -0.072006
-0.053168    0.037454    0.016341   -0.025559    0.022837     0.10794   -0.085324
-0.073631    0.020564    0.025111   -0.034978   -0.056091     0.08585   -0.093769
-0.082725   0.0049729    0.028034   -0.037902    -0.10903    0.071234   -0.092469
-0.077853  -0.0037969    0.024786   -0.037902    -0.11683    0.067011   -0.084674
-0.061288 -0.00087364    0.018615    -0.04115   -0.076554     0.06961   -0.077203
-0.036278    0.012768    0.011469   -0.047971  -0.0024977    0.076431   -0.071357
-0.0054209    0.033231   0.0059473   -0.050244    0.088773    0.086824   -0.060313
0.028684    0.051096 -0.00054884   -0.042774     0.17874     0.10371   -0.039201
0.057592    0.055318   -0.011267   -0.027833     0.24988     0.12807   -0.008669
0.073832    0.036154   -0.026858  -0.0080194     0.29048     0.16088    0.023487
0.071883   -0.011267   -0.048945   0.0091954     0.30282     0.19304    0.049472
0.054019   -0.077203   -0.070058    0.019589     0.29145      0.2135    0.064413
0.024461    -0.13989   -0.084349    0.021863     0.26449      0.2161    0.066686
-0.0096434    -0.17562   -0.085973    0.021213     0.22974     0.20376    0.053694
-0.034004    -0.16782   -0.075579    0.024461     0.19401     0.18362    0.028034
-0.042449    -0.12203   -0.055116    0.032257     0.16543     0.16283 -0.00022403
-0.034329   -0.059989   -0.032705      0.0433     0.15698     0.14204   -0.020037
-0.019712  -0.0047713   -0.015815    0.049796     0.17387     0.12353    -0.02361
-0.0047713    0.029009  -0.0067202    0.053369     0.20765     0.10989   -0.014516
0.0017248    0.038428  -0.0034721    0.055968     0.23851     0.10079  -0.0041217
0.00010078    0.032582      0.0014    0.054993     0.24468    0.093645    0.003024
-0.0080194    0.027709    0.012119    0.055318     0.22129    0.082277   0.0046481
-0.018413    0.035505    0.026085    0.057592     0.17517    0.068635   0.0043233
-0.026858    0.050771    0.037129    0.057267     0.10989    0.053369   0.0020496
-0.029782    0.065712    0.041676    0.051745    0.032582    0.045899   0.0020496
-0.024585    0.065387    0.041351    0.044599   -0.053817    0.051096   0.0072465
-0.019063     0.04395    0.039727      0.0433    -0.15223    0.070259    0.021863
-0.024909   0.0075714    0.037129    0.045899    -0.26462    0.092671    0.039727
-0.04862   -0.035303    0.033556      0.0433     -0.3861     0.10729    0.053369
-0.080776   -0.073306    0.028359    0.032582      -0.504     0.10924    0.054993
-0.11033   -0.095068    0.022188    0.020888    -0.58845     0.10599    0.047523
-0.1269   -0.091495    0.016991    0.016016    -0.58878     0.10436    0.042326
-0.1282   -0.061937    0.011794    0.018615    -0.47249     0.11313    0.046548
-0.1178   -0.016464   0.0069217    0.029009    -0.24708     0.13067    0.061814
-0.10059    0.026735   0.0036737    0.042975    0.037129     0.15049    0.085525
-0.081101    0.047847   0.0020496    0.057592     0.31809     0.16445     0.10761
-0.057065    0.042975   0.0033489    0.069934        0.55     0.16608     0.11768
-0.025559    0.023487   0.0033489    0.074157     0.72702     0.15341     0.10664
0.022512   0.0062721 -0.00054884     0.06896     0.85759      0.1219    0.080003
0.083901   0.0046481   -0.007045    0.050446      0.9362    0.076431    0.048172
0.14594    0.017965   -0.018738    0.021863     0.93782    0.021213    0.024137
0.18524    0.039727    -0.03173  -0.0057458     0.83908   -0.036927    0.011794
0.18492    0.054019   -0.044073   -0.021986     0.61594   -0.090521   0.0088706
0.14789    0.049147   -0.051219   -0.027183     0.26872    -0.13275    0.010819
0.094295    0.028359    -0.04992   -0.021337    -0.15581    -0.15548    0.016341
0.042001  0.00075039   -0.040175  -0.0067202    -0.57773    -0.15646     0.02706
-0.0018481   -0.021337   -0.021986    0.012443    -0.92593    -0.13892    0.040377
-0.042774   -0.033679 -0.00087364    0.028684     -1.1569    -0.11423    0.056617
-0.084024   -0.034654     0.01764    0.037129     -1.2602   -0.094093    0.073507
-0.11748   -0.022961    0.028684     0.03453     -1.2592   -0.089221    0.084876
-0.13664  -0.0054209    0.036804    0.022837     -1.1854    -0.10481     0.08585
-0.13437    0.013418    0.046548   0.0065969     -1.0727    -0.13242    0.073507
-0.11228    0.028034    0.054993  -0.0054209    -0.93405    -0.16003    0.053044
-0.078503    0.033556    0.057592   -0.010943    -0.76222    -0.17367     0.03518
-0.044398    0.027709    0.056292  -0.0067202    -0.55207     -0.1649     0.02641
-0.012242    0.016991    0.052395   0.0036737    -0.30977    -0.13372    0.027385
0.017316   0.0091954    0.046873    0.013093   -0.062262   -0.088572    0.032257
0.05142    0.011469    0.037129    0.015692     0.15016   -0.043748    0.036479
0.09462     0.02641    0.021863   0.0069217     0.29243  -0.0037969    0.040702
0.14626    0.050121   0.0026992  -0.0089938     0.35544    0.024137    0.044599
0.19693    0.075131   -0.016789   -0.021661     0.34894    0.038428    0.046223
0.23071    0.098193   -0.026533   -0.025234     0.28821    0.042975    0.046223
0.23234     0.11833   -0.019712   -0.017764     0.18816    0.041676     0.04395
0.19336      0.1284 -0.00022403  -0.0028225    0.073832    0.038753    0.041676
0.12385     0.12645    0.024461    0.013743   -0.034978    0.039727    0.042975
0.045574     0.11248    0.042651    0.023812    -0.11975    0.039402    0.045899
-0.01549    0.091047    0.048497     0.01894    -0.17107    0.033231    0.048822
-0.042124    0.064737    0.041027   0.0020496    -0.19251    0.019589    0.047847
-0.042124    0.032582    0.024786   -0.016789    -0.19056 -0.00022403      0.0433
-0.031081  -0.0063954   0.0072465   -0.027183    -0.17237   -0.027183    0.036154
-0.029457   -0.044398  -0.0063954    -0.02361    -0.14509   -0.058689    0.026085
-0.045047   -0.071032   -0.012242   -0.007045    -0.11261   -0.091495     0.01829
-0.075904   -0.079152  -0.0063954    0.014392   -0.075255    -0.12463    0.017965
-0.11358   -0.072656   0.0095202    0.032906   -0.039526    -0.15873    0.029009
-0.14899   -0.059014    0.028684      0.0433   -0.011592    -0.19608     0.04395
-0.1714   -0.046671    0.042651    0.043625   0.0059473    -0.23409    0.053694
-0.1753   -0.037902    0.049472    0.036479    0.014717    -0.26429    0.051096
-0.15873   -0.030756    0.047847    0.025111    0.016341    -0.27664    0.037454
-0.12527   -0.022311    0.039727    0.011469    0.012443    -0.27274    0.021538
-0.084674   -0.011917    0.027385  0.00042559   0.0065969     -0.2578    0.011144
-0.045372  -0.0034721    0.012443   -0.007045   0.0020496    -0.23863    0.011794
-0.013541  0.00042559 -0.00087364   -0.010618   0.0036737    -0.21557    0.016991
0.0059473   0.0020496   -0.010943   -0.011267    0.014392    -0.18634    0.016991
0.010495 -0.00022403   -0.013541  -0.0099683    0.038753    -0.15321   0.0033489
0.0014  -0.0080194   -0.011267   -0.008669    0.076755    -0.11813   -0.023935
-0.014191   -0.022636   -0.007045  -0.0093186     0.12515   -0.085324   -0.055116
-0.03173   -0.039526  -0.0034721   -0.013541     0.17939   -0.052518   -0.080127
-0.043423   -0.052518  -0.0050961   -0.017764     0.23331   -0.021661   -0.095068
-0.046022   -0.059989   -0.013541   -0.021012     0.28203   0.0036737   -0.097991
-0.041475   -0.060963   -0.026858   -0.021012     0.32718    0.026085   -0.093769
-0.036602   -0.057065   -0.044073   -0.021337     0.36941    0.053044   -0.090845
-0.038227   -0.051868    -0.05739    -0.02426     0.41456    0.082277   -0.096042
-0.045047   -0.046671   -0.063886   -0.029782     0.46068     0.11313    -0.10514
-0.049595   -0.043423   -0.060313    -0.03303     0.50842     0.14561    -0.11131
-0.047646   -0.039201   -0.049595   -0.031406     0.55422     0.17874    -0.11391
-0.037902   -0.036927   -0.034978   -0.025559       0.588     0.20798    -0.11748
-0.023935   -0.037902   -0.021986   -0.019063     0.59547     0.22747    -0.12138
-0.011917   -0.044398   -0.013541   -0.019712     0.57079     0.23266    -0.12463
-0.0047713   -0.054467   -0.013216   -0.027183     0.51525     0.22389    -0.12235
0.00010078   -0.063237   -0.021661   -0.036278     0.43859     0.20473    -0.11228
0.0020496    -0.06681   -0.036278   -0.043423     0.34635     0.17907   -0.097341
0.0036737   -0.064211   -0.051868   -0.047321     0.23559     0.15244   -0.079802
0.0075714   -0.057065   -0.066485   -0.048945     0.10209     0.12807   -0.062262
0.013418    -0.04862   -0.072006   -0.046996   -0.061613     0.10794   -0.044723
0.016666   -0.042449    -0.06681   -0.039851    -0.24026    0.087799   -0.025884
0.013743   -0.036927   -0.054142   -0.029457    -0.40006    0.067336   -0.010618
0.0052977   -0.030106    -0.04115   -0.019063    -0.50952    0.046223  -0.0031473
-0.0054209   -0.020362   -0.032705   -0.013541     -0.5524    0.020564   -0.008669
-0.017764   -0.010943   -0.026533   -0.013216    -0.53063  -0.0099683   -0.021661
-0.027833  -0.0034721   -0.016789   -0.012242    -0.46243   -0.043099   -0.035953
-0.031081  -0.0011985  -0.0060706  -0.0050961    -0.36921   -0.070382   -0.046022
-0.022311  0.00010078   0.0023744   0.0052977    -0.27241   -0.089871   -0.047321
-0.0067202   0.0023744   0.0069217    0.015042    -0.18699    -0.09929   -0.037252
0.0075714   0.0049729   0.0056225    0.016666    -0.12235    -0.10221   -0.021661
0.016666   0.0085458  -0.0037969    0.011469   -0.082076    -0.10319  -0.0093186
0.023812    0.010819   -0.018088  0.00042559   -0.084024    -0.10903  -0.0047713
0.034206    0.010495   -0.028482   -0.011917    -0.14834    -0.12657   -0.007045
0.045249    0.009845    -0.03173   -0.022636    -0.27339    -0.15646   -0.013541
0.05272   0.0072465   -0.030106   -0.029782     -0.4254    -0.18991   -0.020037
0.054993    0.003024   -0.029782   -0.028157    -0.54915    -0.21687   -0.029457
0.054019 -0.00054884   -0.034004   -0.018413    -0.59949    -0.23116   -0.036927
0.047198  -0.0028225   -0.042124  -0.0063954    -0.56149    -0.22856   -0.038227
0.037778  -0.0037969   -0.046347      0.0014    -0.45333    -0.20843    -0.03303
0.029658  -0.0024977   -0.040175   0.0026992    -0.30684    -0.17822    -0.02361
0.024786   0.0010752   -0.028157  -0.0018481    -0.15613    -0.14346   -0.015815
0.022188   0.0049729   -0.018088  -0.0089938   -0.027183    -0.10579   -0.011267
0.018615   0.0085458   -0.014516   -0.014191    0.071234   -0.071357  -0.0080194
0.016341    0.012119   -0.018088    -0.01484     0.13522   -0.043423  -0.0034721
0.016341     0.01894   -0.022311  -0.0054209     0.16933   -0.023285   0.0017248
0.01764     0.02706   -0.020687    0.015042     0.18394   -0.011592   0.0062721
0.018615    0.032906   -0.011917    0.037778     0.18524  -0.0063954   0.0075714
0.020239    0.036479  -0.0021729    0.056292     0.18102  -0.0011985   0.0049729
0.024786    0.037778   0.0039985    0.067011     0.17387   0.0043233      0.0014
0.031607    0.037129   0.0017248    0.067336     0.16413    0.013093 -0.00054884
0.037129     0.03583  -0.0050961    0.058566     0.16023     0.01829  0.00075039
0.037778    0.031932   -0.012242    0.046223     0.16868    0.018615   0.0052977
0.033881    0.026085   -0.016789    0.037454     0.18719     0.01829    0.013418
0.027709    0.020888   -0.019388    0.034206     0.20538    0.022512    0.020239
0.025111    0.023162   -0.018738     0.03583     0.20148    0.034206    0.020564
0.030308    0.032582    -0.01614    0.042001     0.14756    0.048497    0.016666
0.037778    0.046873   -0.011917    0.050771    0.029009    0.060515    0.010495
0.038428    0.058891  -0.0031473    0.062464    -0.14346    0.065387   0.0046481
0.032257    0.063438    0.012443    0.069934    -0.32731    0.065062  0.00010078
0.018615    0.062139    0.028359     0.06831    -0.48256    0.059216  0.00075039
0.0049729    0.056942    0.036804    0.055968     -0.5852    0.051745   0.0056225
-0.0037969     0.05142    0.037454    0.039078    -0.63652    0.043625    0.013093
-0.0034721    0.045899    0.033556    0.025111    -0.65016    0.038103    0.022188
0.0043233    0.043625    0.029009    0.017965    -0.62873    0.040377    0.031282
