-0.23441   -0.086948   -0.086948    -0.29125      1.1187   -0.046671   -0.048945
-0.1191   -0.094743   -0.094743    -0.25715      1.0473   -0.020037  -0.0018481
-0.0083442   -0.093444    -0.09117    -0.19933     0.94367    0.015367    0.033231
0.082602    -0.08305   -0.075579     -0.1308     0.82056     0.05142    0.050121
0.14334    -0.06616    -0.04992   -0.069408     0.69584    0.078704    0.054019
0.16445   -0.040825   -0.016789   -0.027508     0.58216    0.092021    0.055968
0.14756   0.0010752    0.023487  -0.0021729     0.48894    0.094295    0.066037
0.10404    0.051745    0.063113    0.017316     0.40903    0.091696    0.081303
0.049147    0.093321    0.089098    0.031932     0.32816    0.086175    0.099167
0.008221     0.10924    0.086175    0.042651     0.23559    0.075781     0.11411
-0.0047713    0.091696    0.051745     0.05272      0.1271    0.061814     0.12353
0.012443    0.047198  0.00042559    0.062139   0.0091954     0.04395     0.12028
0.046873 -0.00054884   -0.044073    0.071234    -0.10449    0.023487     0.10274
0.083576   -0.027833   -0.064211    0.078379    -0.19478   0.0036737    0.070909
0.11606   -0.017764   -0.050569    0.084551    -0.24935   -0.012242    0.036804
0.14107    0.033881  -0.0089938    0.096244    -0.26267   -0.022311    0.009845
0.15276     0.10859    0.044599     0.11281    -0.23409    -0.03238   -0.007045
0.14821     0.18362    0.093321     0.12743    -0.17465   -0.047321   -0.015815
0.1362     0.23754     0.11931     0.13425    -0.10059   -0.063561    -0.01549
0.12743     0.25995     0.12028       0.131   -0.022961   -0.077203  -0.0041217
0.13002     0.23948     0.10177      0.1245    0.049796   -0.086623    0.016016
0.14139     0.17225    0.070259     0.11768     0.10501   -0.097341     0.03518
0.15373    0.077405    0.031932     0.10859     0.13165    -0.11131    0.041351
0.16803  -0.0093186  -0.0083442    0.093645      0.1258    -0.12755    0.031282
0.18589    -0.05739   -0.045372    0.075781    0.092346    -0.13892    0.015367
0.20311   -0.052193   -0.076879     0.06019    0.054668    -0.13762     0.01017
0.21415 -0.00022403   -0.098965     0.05272    0.029658    -0.11261     0.02706
0.21382    0.071558    -0.11228    0.056292    0.022512    -0.06551    0.063763
0.20083     0.13035      -0.123    0.067661    0.025436  -0.0093186     0.10339
0.17907     0.15406    -0.13372     0.07773    0.025436    0.039727     0.12807
0.15309     0.13912    -0.14606    0.078379   0.0091954     0.06831     0.13035
0.1258    0.097218    -0.15418    0.067336   -0.038876    0.075131     0.11216
0.10047    0.046223    -0.15321    0.049472    -0.12885    0.065712    0.081303
0.076106    0.003024    -0.13762    0.034855    -0.24513    0.055643    0.053044
0.052395   -0.021986    -0.11131    0.030308    -0.35491    0.055968    0.039402
0.026085   -0.025234   -0.077203    0.032906    -0.42377    0.075781    0.046548
-0.0018481   -0.011267   -0.040825    0.036479    -0.43254     0.11671    0.072533
-0.030431    0.012443   -0.007045    0.037129    -0.38772     0.16868     0.10469
-0.056091    0.036154     0.01829    0.030308    -0.30684     0.21902     0.13295
-0.075904    0.047847    0.029658    0.015042    -0.20583       0.258     0.15601
-0.085973    0.045249    0.031932  -0.0041217    -0.09929     0.28496      0.1742
-0.087922    0.032906     0.02706   -0.021661  0.00010078      0.2973     0.18719
-0.082725    0.017316    0.015692   -0.042774    0.086824     0.28788     0.19044
-0.073955   0.0026992  -0.0021729   -0.075904     0.15698     0.25313     0.18037
-0.06616  -0.0073698   -0.020362    -0.12008     0.20993     0.19661     0.15991
-0.060313   -0.015815   -0.038551     -0.1701     0.24695     0.12223     0.13262
-0.059339   -0.025234    -0.05739    -0.22207     0.26579    0.029658     0.10436
-0.063886   -0.034978   -0.074605    -0.27046     0.25767   -0.077528    0.078704
-0.069083   -0.042124   -0.086948    -0.31074     0.21642    -0.19154    0.055643
-0.072656   -0.048945   -0.090196    -0.34257     0.14204    -0.30359    0.029658
-0.068434   -0.054142   -0.085973    -0.36303    0.042975    -0.39909  -0.0031473
-0.053168   -0.056091   -0.079477     -0.3783   -0.065835     -0.4686   -0.037577
-0.025234    -0.04862   -0.073631    -0.38804    -0.16555     -0.5053   -0.059664
0.011794   -0.028157   -0.067784     -0.3848    -0.23961    -0.50627   -0.062587
0.047198   0.0017248   -0.060963    -0.36044    -0.28053    -0.48126   -0.051219
0.06961    0.028684   -0.050894    -0.31399    -0.28768    -0.44683   -0.038551
0.067986    0.037454   -0.039201    -0.25455    -0.26819    -0.41208   -0.036278
0.041351    0.024137    -0.02361    -0.18894    -0.23344    -0.37505   -0.047321
0.0017248  -0.0034721  -0.0034721    -0.12105    -0.19836    -0.33445   -0.069083
-0.033354   -0.035953    0.022512   -0.050894    -0.18536    -0.28768   -0.095068
-0.059339   -0.069733    0.051096     0.01894    -0.21525    -0.23668    -0.12138
-0.077203    -0.10124    0.073182    0.087149    -0.29905    -0.19024    -0.14801
-0.089871    -0.12592    0.083251     0.15049    -0.42702    -0.16068    -0.17984
-0.094743    -0.13632    0.079679     0.20635    -0.56149    -0.14639     -0.2107
-0.083375    -0.13177    0.065062     0.25248    -0.65276    -0.13145    -0.22532
-0.047971    -0.11456    0.045574     0.28203    -0.66413   -0.097017    -0.20713
0.003024   -0.084674    0.029658     0.28983    -0.58942   -0.038876    -0.14931
0.05142   -0.041799    0.021213     0.27359     -0.4556    0.033556   -0.061613
0.083576    0.014392    0.020239     0.24046    -0.30359    0.098193    0.031282
0.098517    0.080003    0.027709     0.19531    -0.16847     0.13847    0.099817
0.10047     0.14334    0.035505     0.14659   -0.069083     0.15179     0.12937
0.098842     0.19174    0.041027    0.095594  -0.0089938     0.14789     0.12125
0.099167      0.2187    0.045574    0.046873     0.02641     0.14074    0.088773
0.10209     0.22454    0.050121    0.011794    0.053369     0.13425    0.048497
0.10274     0.21058    0.055318   0.0046481    0.085525      0.1258    0.017316
0.097868     0.18427    0.061489    0.030957     0.12255     0.11411   0.0059473
0.090397     0.15016    0.066362    0.075456     0.15309     0.10014    0.016016
0.078704     0.11183    0.069934     0.11866      0.1664    0.086824     0.03453
0.063113    0.067661    0.067661     0.14789     0.16056    0.074806    0.053369
0.042326    0.019914    0.061489     0.15828     0.13977    0.065062    0.072533
0.016666   -0.019712    0.056292     0.15179     0.11313    0.061489    0.094295
-0.013216   -0.035303    0.055643      0.1336    0.088773    0.065387     0.11411
-0.051868   -0.017114    0.063438     0.11833    0.070584    0.073832     0.12093
-0.09117    0.032582    0.077405     0.11248    0.062789    0.078379     0.10859
-0.12008    0.095269    0.091047     0.11151     0.06961    0.070909    0.075781
-0.13372     0.14626    0.096569     0.10242    0.086175     0.05207    0.030633
-0.13502      0.1677    0.091372    0.082927     0.10079    0.029658   -0.012567
-0.13242     0.16218    0.080328    0.055968     0.10859    0.011469   -0.044723
-0.12657     0.13295    0.072533     0.01829     0.11151   0.0020496   -0.065835
-0.12203    0.087799    0.070909   -0.030431     0.11216  -0.0024977   -0.078827
-0.11975    0.034206    0.075131     -0.0824     0.11216   -0.011267   -0.085648
-0.11845   -0.021661     0.07773      -0.123     0.11443   -0.027508    -0.09117
-0.10968   -0.069408    0.076431    -0.14606     0.11963    -0.04862   -0.097666
-0.086948    -0.10351    0.069934    -0.14769     0.13002   -0.067784    -0.10254
-0.051219    -0.12495     0.06019    -0.13242     0.14269   -0.072981   -0.097991
-0.0050961    -0.13697    0.045574    -0.10416     0.15666   -0.063561   -0.080776
0.043625    -0.13404    0.029333   -0.069733     0.16705    -0.04115   -0.053168
0.08585    -0.10611     0.01764    -0.03303     0.17225   -0.017114   -0.025884
0.11118   -0.053817    0.013743   0.0065969      0.1755 -0.00054884  -0.0089938
0.10696     0.01017    0.019589    0.049147     0.18459   0.0065969  -0.0080194
0.070259    0.064413    0.032582    0.095919     0.20278   0.0075714   -0.019712
0.008221    0.091372    0.051096     0.14269     0.22454    0.014392    -0.03238
-0.06616    0.086175     0.06961     0.18427     0.23948    0.036479   -0.039526
-0.13827    0.050771    0.078704     0.21415     0.24013    0.069934   -0.044398
-0.19283   -0.012892    0.073832     0.22227     0.22617     0.10209   -0.050244
-0.21914    -0.10384    0.051745      0.2083     0.20246     0.12515   -0.056416
-0.21687    -0.21297    0.015042     0.18037      0.1768     0.13457   -0.059664
-0.19283    -0.32113   -0.029782     0.15211     0.15698     0.13197   -0.061288
-0.15386    -0.40234   -0.078503      0.1258     0.14496     0.11411   -0.063886
-0.10838    -0.42735     -0.1204    0.096244     0.14042    0.081952   -0.075579
-0.072656    -0.37927    -0.14216    0.057917     0.13912    0.039402    -0.10091
-0.056091    -0.27046    -0.13892     0.01829      0.1362  -0.0034721    -0.14379
-0.046347    -0.14054    -0.11813  -0.0096434     0.13132   -0.029132    -0.19543
-0.026533    -0.01484     -0.0837   -0.013866       0.131   -0.022311    -0.24383
0.012768     0.10566    -0.03303   0.0065969     0.14496    0.025111    -0.27501
0.066037     0.24241    0.031607    0.042651     0.17452     0.11313    -0.28476
0.11476     0.39409     0.10014    0.078704      0.2122     0.22454    -0.27274
0.13587     0.51849     0.14756    0.097543     0.25215     0.32621    -0.24935
0.12125     0.54838     0.14756    0.089423      0.2934     0.39052    -0.22044
0.086175     0.43404    0.091372    0.058566      0.3366     0.40871    -0.18017
0.053369     0.18751  -0.0018481    0.020564     0.36876      0.3798    -0.12787
0.041027    -0.10709    -0.09929  -0.0089938     0.34764     0.30834   -0.073306
0.055318    -0.33153    -0.16815    -0.02426     0.20765     0.20116   -0.022636
0.092671    -0.40006    -0.19219   -0.032055   -0.071682    0.073507    0.029658
0.14367    -0.30132    -0.17302   -0.032055     -0.4228    -0.04927    0.098517
0.19921    -0.10124    -0.12657   -0.022311    -0.72552    -0.14314     0.19239
0.24695     0.10209   -0.075579      0.0014     -0.8876    -0.19446     0.30964
0.27261     0.23721   -0.034329    0.037778    -0.89702    -0.21492     0.43209
0.25735     0.28268  -0.0037969    0.081952    -0.83108    -0.22142     0.53214
0.18784     0.25767    0.014717     0.12483    -0.81224    -0.23344     0.58638
0.067986     0.19336    0.019589     0.15244    -0.91845    -0.26234     0.58573
-0.077528     0.11736    0.011794     0.15861     -1.1276    -0.31204     0.53701
-0.21005    0.052395  -0.0067202     0.14529     -1.3381    -0.38057     0.45483
-0.29515    0.021863   -0.029782     0.11995     -1.4414    -0.45885     0.36226
-0.31236    0.031932   -0.048945    0.088448     -1.3953    -0.52901     0.28366
-0.26039    0.069934   -0.052843    0.057267     -1.2498    -0.57481     0.23461
-0.1662     0.11118   -0.038876    0.031932     -1.0786    -0.59332     0.21675
-0.06681     0.13457   -0.022311     0.01894     -0.9217    -0.59495     0.22162
0.0078962     0.13165  -0.0080194    0.017965    -0.76677    -0.59722     0.23169
0.054344     0.10696  0.00042559    0.024786    -0.57026    -0.60664     0.23104
0.075131    0.067986      0.0014    0.033231    -0.30197    -0.61508     0.20928
0.074157    0.022837  -0.0057458    0.033881    0.017316    -0.61151     0.16738
0.054668   -0.020037   -0.015165    0.021538     0.33043    -0.57611     0.11021
0.024137   -0.055116   -0.024585   -0.012567     0.57046    -0.49523    0.045249
-0.0050961   -0.081101   -0.034329   -0.066485     0.69421     -0.3705   -0.020362
-0.02361   -0.097017   -0.046022    -0.12917     0.69259    -0.22077   -0.079152
-0.027833    -0.10514   -0.056416    -0.18504     0.59417   -0.076879    -0.12722
-0.020687    -0.10514   -0.062262    -0.22207     0.44314    0.033231    -0.16458
-0.008669   -0.095068   -0.062262    -0.23603     0.28463    0.097543    -0.18959
0.0023744   -0.081426   -0.056416    -0.22629     0.15893     0.11768    -0.20258
0.0095202   -0.068109   -0.046022    -0.20485      0.0852     0.10729    -0.20518
0.012119   -0.059339   -0.036278    -0.18309    0.067661    0.081303    -0.19901
0.014392   -0.056741   -0.034004    -0.16945     0.10177    0.056617    -0.18699
0.022188   -0.056091   -0.037252    -0.16198     0.16965    0.044275    -0.17042
0.034206   -0.053168   -0.040175    -0.15841     0.25085    0.046548    -0.15288
0.044275   -0.050244   -0.037252    -0.16198     0.32036    0.054344    -0.13794
0.047847   -0.046996   -0.028807    -0.17692      0.3733    0.063438    -0.12917
0.042326   -0.044398   -0.020037    -0.20355     0.41391    0.076431     -0.1243
0.031607   -0.044073   -0.012892    -0.24026     0.44249    0.096893    -0.12105
0.01894   -0.047321  -0.0096434    -0.28216     0.44996     0.12743     -0.1191
0.0091954   -0.054792  -0.0093186    -0.32341     0.43047     0.16933    -0.12105
0.0039985   -0.062587   -0.012567    -0.35296     0.38532     0.21317    -0.12625
0.0020496   -0.070382   -0.018738    -0.36206     0.32426      0.2502    -0.13242
0.0056225   -0.073631   -0.025234    -0.34907     0.25572     0.27651    -0.13632
0.014068   -0.071032   -0.027183    -0.31594     0.18459     0.29275    -0.14119
0.022837   -0.063886   -0.022311    -0.26819     0.12158     0.30055    -0.14704
0.020888   -0.056741   -0.014516      -0.212    0.087799     0.30607    -0.15093
0.011144   -0.052518  -0.0063954    -0.16035    0.098193     0.31289    -0.14964
-0.0041217   -0.050244  -0.0011985    -0.11878     0.15438     0.32296    -0.14606
-0.019712   -0.048296   0.0010752   -0.086948     0.24825      0.3431    -0.13892
-0.032705   -0.047321   0.0023744   -0.060638     0.36096      0.3746     -0.1321
-0.038227   -0.047971   0.0056225   -0.035953      0.4623     0.40903     -0.1243
-0.035628   -0.047321   0.0095202   -0.011267     0.51882     0.43404    -0.11423
-0.029132   -0.045047    0.016016    0.013418     0.51005     0.43404   -0.098316
-0.020362     -0.0405    0.025436    0.036804     0.43534     0.40579   -0.075579
-0.013866   -0.033679    0.033231    0.054993     0.31516     0.35869   -0.048945
-0.0096434   -0.025559    0.041027    0.067011     0.18427     0.30834   -0.022636
-0.010293   -0.018088    0.047847    0.077405    0.079679     0.26742  -0.0044465
-0.013866   -0.013866    0.049796    0.092996    0.026735     0.23948  0.00075039
-0.017439   -0.012892    0.047523     0.11346    0.029009     0.22162  -0.0080194
-0.020037    -0.01484    0.041676     0.13457     0.06896     0.20343   -0.023285
-0.021337   -0.020037    0.031282     0.15438     0.12158     0.17615   -0.035953
-0.019388    -0.02426    0.022188      0.1742     0.16478     0.13392   -0.045372
-0.01614   -0.022311    0.019264     0.19726     0.17972    0.083901    -0.04992
-0.012242    -0.01614    0.019264     0.22227     0.15666    0.035505   -0.049595
-0.012892  -0.0083442    0.016341     0.24566     0.10047  -0.0031473   -0.044073
-0.018088  -0.0011985   0.0088706     0.26384    0.029983   -0.027508    -0.03303
-0.025559   0.0046481  -0.0015233     0.27814   -0.030756   -0.042449   -0.017114
-0.028807   0.0088706   -0.012567      0.2947    -0.06616   -0.045697   0.0017248
-0.023285   0.0095202   -0.025234     0.30899    -0.07493   -0.036278    0.019914
-0.0076946    0.011144   -0.037577     0.31809   -0.063561   -0.010293    0.039078
0.012119    0.017316   -0.046671     0.31744   -0.039851    0.031282    0.062789
0.030633    0.028034   -0.050894     0.30834   -0.011917    0.086824    0.093645
0.041351    0.037778    -0.04992     0.29308   0.0085458     0.14951     0.12645
0.045249    0.046873   -0.045372     0.27196    0.016991     0.21252     0.15276
0.045574    0.053044   -0.041475     0.24403   0.0088706     0.26677     0.16218
0.0433    0.058891   -0.042449     0.20505  -0.0096434     0.30672     0.15373
0.03583    0.060515   -0.051219     0.15406    -0.02426     0.32491     0.12937
0.022837    0.058241   -0.063886     0.09462   -0.025884     0.32198    0.096569
0.0085458    0.055643   -0.072006    0.033556   -0.012567     0.30087    0.063438
-0.00087364    0.054019   -0.072006   -0.022636    0.013743     0.26027    0.032582
-0.0037969    0.049472   -0.063237   -0.067784    0.041351      0.2057   0.0062721
-0.0031473    0.044275    -0.04992    -0.10189    0.055643     0.14334   -0.010293
-0.00054884    0.038428   -0.039526    -0.13047    0.047523    0.079354   -0.016464
-0.0024977    0.030957    -0.03238    -0.16263    0.020239    0.025436   -0.015165
-0.0093186    0.019264   -0.030431    -0.19868   -0.018738    -0.01614   -0.007045
-0.022311   0.0062721   -0.028807    -0.23279   -0.060963   -0.050894   0.0033489
-0.036602  -0.0034721   -0.020687    -0.25195    -0.10286   -0.091495    0.014068
-0.044723  -0.0083442  -0.0057458    -0.24773    -0.13827    -0.14899    0.024461
-0.040175  -0.0057458    0.015692    -0.22597     -0.1623    -0.22402    0.032906
-0.026533   0.0010752    0.037454    -0.19251    -0.17107    -0.30717    0.037129
-0.011917   0.0095202    0.054019    -0.15386    -0.16393    -0.38934     0.03453
-0.00022403    0.015367    0.062464    -0.11423    -0.14411      -0.466    0.021538
0.011144     0.01894    0.061489   -0.080776    -0.11813    -0.52998    0.003024
0.021213    0.023162    0.055318   -0.056741   -0.097666    -0.57351   -0.010943
0.029658    0.027709    0.050771   -0.040175   -0.083375    -0.58488   -0.017439
0.03583    0.031932    0.049796   -0.028157   -0.074605    -0.55305   -0.016789
0.040702     0.03583     0.05207   -0.013541   -0.072006    -0.48191   -0.011592
0.042651    0.038753    0.058241   0.0072465   -0.075904    -0.38642   -0.007045
0.038753    0.041351     0.06896    0.036804   -0.081101    -0.28476  -0.0047713
0.029658    0.043625    0.082277    0.073182   -0.081751    -0.19186  -0.0011985
0.014717    0.046548    0.093645     0.11086   -0.076554    -0.12268   0.0062721
-0.0018481     0.05142    0.097218     0.14626   -0.065835   -0.079802    0.011794
-0.011917    0.054993    0.095269     0.17452   -0.049595   -0.057715    0.013093
-0.01614    0.054019    0.088448     0.19336   -0.028157   -0.048296    0.010819
-0.01614    0.051096    0.078379     0.19921   -0.011592   -0.044073   0.0072465
-0.018413    0.050121    0.067986     0.18881   -0.011267   -0.036602   0.0026992
-0.022311    0.048172     0.06019     0.16575   -0.027833    -0.02426  -0.0034721
-0.025884    0.044599    0.054344     0.14139   -0.055766  -0.0096434   -0.008669
-0.028157    0.040377     0.04395     0.12255   -0.087272      0.0014   -0.010618
-0.032055    0.034206    0.022512     0.10794    -0.11456    0.008221  -0.0089938
-0.038876    0.024461   -0.011592    0.091372    -0.13242   0.0085458  -0.0067202
-0.047646    0.015367   -0.046022    0.068635    -0.13827   0.0049729  -0.0076946
-0.053492   0.0062721   -0.072981    0.043625    -0.13567  -0.0024977   -0.013541
-0.055116  -0.0034721   -0.085324    0.011469    -0.12885   -0.011267   -0.021661
-0.055441   -0.010943   -0.085973   -0.024909    -0.12105   -0.020362   -0.028157
-0.054792   -0.019712   -0.085973   -0.061937    -0.11163   -0.027183   -0.032055
-0.055116   -0.029132   -0.088247   -0.091495    -0.09929   -0.030431   -0.032055
-0.054792   -0.040175    -0.09117    -0.11358   -0.087922   -0.031406   -0.025559
-0.054142   -0.052518   -0.093769    -0.13145   -0.081751   -0.031406   -0.012242
-0.052518   -0.062262   -0.096692    -0.14639   -0.081426   -0.032705   0.0065969
-0.048945   -0.067784   -0.096692    -0.15776   -0.084674   -0.031406    0.022188
-0.046671   -0.069733   -0.095068    -0.16945   -0.089221   -0.027833    0.029983
-0.048945   -0.067134   -0.096692    -0.17984   -0.093444   -0.024909    0.028359
-0.059989   -0.062912    -0.10189    -0.18764   -0.099615   -0.027183    0.019589
-0.078827   -0.058689    -0.10676    -0.18666    -0.11001   -0.036602   0.0056225
-0.099615   -0.055766    -0.10319    -0.17172    -0.12592   -0.053492   -0.007045
-0.11845   -0.055766   -0.089871    -0.14476    -0.14379   -0.076879   -0.017114
-0.13437   -0.058689   -0.070707    -0.10644    -0.15808   -0.098641   -0.025884
-0.14574   -0.066485   -0.053817   -0.060313    -0.16263    -0.11131    -0.03303
-0.14606   -0.082076   -0.047321   -0.016464    -0.15776    -0.11553   -0.038876
-0.12982    -0.10319   -0.051219     0.01764    -0.14801    -0.11358   -0.044073
-0.097991    -0.11618   -0.058689    0.030633    -0.13989    -0.10838   -0.044398
-0.054467    -0.10903   -0.061613    0.027385    -0.13275    -0.10124    -0.04115
-0.0037969   -0.076554   -0.051219    0.014068    -0.12527   -0.088247   -0.034978
0.046223   -0.031081   -0.028157 -0.00054884    -0.11228   -0.076879   -0.027183
0.087799   0.0088706  0.00042559   -0.012567   -0.086948   -0.075579   -0.020037
0.11313    0.029983    0.026085   -0.022961   -0.055441   -0.081751    -0.01549
0.12028     0.02706    0.038428   -0.035953   -0.034329   -0.088896   -0.019712
0.11606   0.0052977    0.035505   -0.052193   -0.031081   -0.090196   -0.032705
0.10664   -0.023285    0.021538   -0.062262   -0.044073   -0.085973   -0.049595
0.097868   -0.047646   0.0072465   -0.059014   -0.057065   -0.078503   -0.063561
0.092346   -0.053492   0.0010752   -0.038551   -0.056416   -0.078503   -0.072656
0.087474   -0.034004   0.0056225   -0.008669   -0.034978   -0.093444   -0.079477
0.083901   0.0036737    0.015367    0.022512   0.0039985    -0.12463   -0.087597
0.08585    0.045249     0.02706     0.05207    0.053694    -0.15711   -0.099615
0.092671    0.072533    0.033881    0.079029     0.10469    -0.17659    -0.11033
0.099492     0.06896    0.035505     0.10631     0.15796    -0.17465    -0.10806
0.094945    0.031607    0.029983     0.13197      0.2083    -0.15353   -0.086948
0.06961   -0.029782    0.022837     0.15016     0.24988    -0.11586   -0.050894
0.024786   -0.089871    0.028684     0.16283     0.27391    -0.05804  -0.0067202
-0.024585    -0.11066    0.057267     0.17452     0.27034    0.017316    0.037778
-0.065835   -0.075255     0.10599     0.18751     0.23721    0.097218    0.075131
-0.089871   0.0046481     0.15991     0.19596     0.17842      0.1716     0.10144
-0.092469    0.098517     0.20051     0.19856     0.10079     0.23883      0.1219
-0.07493     0.17322     0.21772     0.19563    0.015367      0.2999     0.14496
-0.043099      0.2148     0.21025     0.18979   -0.065835     0.34894      0.1755
-0.0096434     0.22454     0.18329     0.18914    -0.13242     0.37883      0.2096
0.014068     0.21285     0.14496     0.19434    -0.16782      0.3798     0.23721
0.025761     0.19141     0.10144     0.20311    -0.16425     0.34797     0.24501
0.032906     0.16965    0.054344     0.20668    -0.12203      0.2895     0.22844
0.046873     0.16121    0.010495     0.19823   -0.046996     0.22032     0.20083
0.074482     0.17485   -0.020362     0.17874     0.05207     0.16283     0.18427
0.11248     0.20408   -0.032055     0.16121     0.16088     0.13457     0.19596
0.14691     0.22812   -0.026209     0.15568      0.2593     0.13425     0.23299
0.16998     0.22519  -0.0089938     0.16056     0.32751     0.14594     0.27944
0.18557     0.19076    0.011144      0.1651     0.35219     0.15503     0.31581
0.20343     0.13425    0.028034     0.14919     0.34212     0.14984     0.33595
0.22584    0.080978    0.036804     0.10014     0.31744     0.13197     0.34277
0.24176    0.048172    0.032582    0.025111     0.29633     0.11086     0.34894
0.23299    0.038753    0.013743   -0.052843     0.27879    0.094945     0.36583
0.18946    0.043625    -0.01549     -0.1217     0.23754    0.084551     0.39344
0.11671    0.048172   -0.045697    -0.17789     0.11898    0.068635     0.42105
0.032582    0.043625   -0.067459    -0.22402    -0.11293    0.029983      0.4282
-0.040175    0.030308   -0.077203     -0.2552    -0.44326   -0.036602     0.40091
-0.087597   0.0091954   -0.078827    -0.27306    -0.79698    -0.12268     0.32978
-0.10741   -0.014516   -0.072331    -0.28118     -1.0828    -0.20485     0.22844
-0.10546   -0.038876   -0.058365    -0.28703     -1.2423     -0.2591     0.11768
-0.088247   -0.061613   -0.036278    -0.28963     -1.2569    -0.26916    0.016341
-0.068434   -0.076229   -0.008669    -0.27761       -1.15    -0.23603   -0.064536
-0.052843   -0.077203     0.01764    -0.23928    -0.96783    -0.17432     -0.1204
-0.042124   -0.064861     0.03453    -0.17789    -0.74988    -0.10416    -0.14801
-0.032055   -0.045372    0.038103    -0.10871    -0.51017   -0.049595    -0.15776
-0.022636   -0.026858    0.029658   -0.043423    -0.24058   -0.021337    -0.16198
-0.017439   -0.019388    0.015692    0.014068    0.058241   -0.020687    -0.16523
-0.012567   -0.021661   0.0072465    0.060515     0.36648   -0.042124    -0.17075
-0.0034721   -0.028482   0.0062721    0.095919     0.64777   -0.071682    -0.17757
0.0078962    -0.03303    0.013418     0.12125     0.84915   -0.097341    -0.18147
0.016991   -0.036278    0.020239     0.14237     0.91866     -0.1178    -0.18504
0.01894     -0.0405    0.020888     0.16283     0.81212    -0.13859    -0.18991
0.0088706   -0.050894    0.012443     0.18037     0.53376    -0.16328    -0.19478
-0.0089938   -0.069733  -0.0044465     0.19011     0.14789    -0.19413    -0.19933
-0.028482    -0.09182   -0.024909     0.18687    -0.24253    -0.22337    -0.19771
-0.044398    -0.11033   -0.046996     0.16835     -0.5446    -0.23961    -0.18894
-0.048296    -0.11975   -0.072981     0.13522    -0.70311    -0.23668    -0.17432
-0.038876     -0.1217    -0.10644    0.091372     -0.7122    -0.21979    -0.16133
-0.019712    -0.11651    -0.14087    0.039078    -0.60664    -0.19673    -0.15581
0.0020496    -0.10611    -0.16815   -0.020362    -0.44099     -0.1727    -0.15808
0.014717   -0.095717    -0.18049   -0.084999    -0.27826    -0.15353    -0.16523
0.010495   -0.088572    -0.17627    -0.14931     -0.1662    -0.13957    -0.17302
-0.0076946   -0.087922     -0.1623    -0.20355    -0.10936    -0.12982    -0.17822
-0.037252   -0.089871    -0.14541    -0.23603   -0.084349    -0.11618    -0.17952
-0.072006   -0.090196    -0.13275    -0.23993    -0.05804   -0.093444    -0.17465
-0.10156   -0.084999    -0.12592    -0.21622  -0.0047713   -0.062912     -0.1662
-0.11683   -0.071682    -0.12203    -0.17594    0.078055   -0.034654    -0.15873
-0.11586   -0.052193    -0.11715    -0.13275      0.1742   -0.014516    -0.15581
-0.10189   -0.034004    -0.10676   -0.094093      0.2554  -0.0037969    -0.15613
-0.081426   -0.024909    -0.09182   -0.063561     0.30282  0.00075039    -0.15288
-0.062587   -0.033679   -0.076879   -0.047971     0.30282   0.0078962    -0.14606
-0.053168   -0.060638   -0.059989   -0.051544      0.2489    0.019589    -0.13729
-0.058365   -0.091495   -0.038551   -0.069083     0.13782    0.032582     -0.1308
-0.077853    -0.11651   -0.010293   -0.085973   -0.014516    0.045899     -0.1308
-0.10579    -0.13599    0.019589   -0.089546    -0.16588    0.054993    -0.13469
-0.14054    -0.15873    0.044275   -0.071032    -0.26819    0.056617    -0.14314
-0.18601    -0.18764    0.058566   -0.027833    -0.29093     0.05207    -0.16003
-0.2448    -0.22012    0.067986    0.028359    -0.23863    0.039727    -0.18699
-0.30587    -0.24773    0.073832    0.080978    -0.13924    0.011469    -0.22239
-0.35037    -0.26169    0.078704     0.11151   -0.021661   -0.026209    -0.25942
-0.36173    -0.25195    0.082277     0.10794    0.094945   -0.062912    -0.28476
-0.33283    -0.22661    0.077405    0.074806     0.20668   -0.086948    -0.28995
-0.26039    -0.19576    0.061165    0.029333     0.31062   -0.095393    -0.27501
-0.14704    -0.15288    0.033556   -0.016789     0.40481   -0.086298    -0.24415
0.0036737   -0.080776    0.003024   -0.061613     0.48049   -0.060638     -0.2055
0.17452    0.024461   -0.019712    -0.10189     0.52856    -0.03238    -0.16555
0.33433     0.15276    -0.02426    -0.12917     0.54805  -0.0063954    -0.12333
0.45061     0.27749   -0.014191    -0.13827      0.5448    0.013743   -0.074605
0.49478     0.37623   0.0043233    -0.12657     0.52304    0.032582   -0.019712
0.46295     0.42982    0.024137   -0.098641     0.48796    0.054668     0.03453
0.37428     0.43242    0.040702   -0.062912     0.44346     0.07773      0.0852
0.26384     0.38565    0.055318   -0.030106     0.38857    0.096893     0.12255
0.16543      0.3051    0.066037  -0.0089938     0.32978     0.10566     0.14334
0.097868      0.2109    0.071558 -0.00022403     0.27261     0.10436     0.14529
0.061165      0.1232    0.073182 -0.00022403     0.22097    0.096244     0.13295
0.042975    0.057267     0.06961  0.00042559     0.17939    0.083901     0.11281
0.02641    0.016991    0.061165   0.0078962     0.14626    0.073832    0.091372
0.0043233 -0.00087364    0.048172    0.023487     0.11151    0.070584    0.073182
-0.019388  -0.0067202    0.033881    0.040052    0.055318    0.083576    0.058241
-0.036602  -0.0067202    0.020564     0.05142   -0.027833     0.11443    0.048172
-0.037902  -0.0063954    0.011794     0.05142     -0.1217     0.15861    0.042975
-0.023285   -0.007045   0.0088706    0.041027    -0.19348     0.19726    0.047198
0.0010752   -0.011592   0.0088706     0.02706    -0.21427     0.21642    0.057267
0.025761   -0.018413   0.0069217    0.016991    -0.17497      0.2083    0.067336
0.042975   -0.022311  0.00075039    0.018615   -0.081751     0.17647    0.069285
0.046223   -0.015165  -0.0063954    0.033556    0.037778     0.12807    0.065062
0.031607   0.0039985  -0.0073698    0.061165     0.15438    0.073507    0.057267
0.0033489    0.029009   0.0020496    0.093645     0.24306    0.019264    0.046223
-0.027833    0.054019    0.022512      0.1258     0.29405   -0.028482    0.030308
-0.046996    0.076755    0.047198     0.15406     0.31419   -0.072331     0.01017
-0.051219    0.089423     0.06961     0.18232     0.31289    -0.11293  -0.0093186
-0.045372    0.088448    0.083901     0.20928      0.3012    -0.14606   -0.020687
-0.035303    0.077405    0.090072     0.23071     0.29113    -0.16295   -0.018413
-0.026209    0.063763    0.086175     0.24825     0.28171    -0.15808  -0.0060706
-0.016789    0.054668    0.076431     0.25637     0.26969    -0.12917    0.008221
-0.0067202     0.05207    0.064088     0.25637     0.25085   -0.080451    0.021538
0.00075039    0.050771    0.050446     0.25313     0.22454   -0.020037    0.033556
-0.00054884    0.048822     0.03453     0.24988     0.19174    0.046223    0.041351
-0.008669    0.043625    0.016991     0.24858     0.15568     0.12515    0.046548
-0.021986    0.033881 -0.00087364     0.24241     0.12158     0.21935    0.050121
-0.036602    0.020564   -0.016789     0.22649    0.089423     0.31971     0.05207
-0.051544   0.0023744   -0.030756     0.19791    0.055968     0.40643    0.054344
-0.063886   -0.016789     -0.0405     0.15731    0.023162      0.4649    0.054993
-0.068434   -0.034978    -0.04115     0.11313  -0.0067202     0.48634    0.048172
-0.067459   -0.051219    -0.03173    0.078704   -0.030431      0.4714    0.038428
-0.063237   -0.062262    -0.01484    0.060515    -0.04927      0.4243    0.028034
-0.061613   -0.061613   0.0095202    0.057592   -0.068758     0.34764     0.01894
-0.063561   -0.047646    0.033881    0.061814   -0.097991     0.24533    0.012443
-0.06616   -0.027833    0.053694     0.06831    -0.13794      0.1258   0.0078962
-0.064211  -0.0099683    0.065712    0.070259    -0.18212      0.0014   0.0072465
-0.055766  0.00075039    0.070909    0.063763    -0.22207    -0.11456   0.0091954
-0.042774   0.0059473    0.069934    0.049796    -0.25195    -0.21232   0.0085458
-0.029457    0.008221     0.06019    0.030308    -0.26722    -0.29028   0.0075714
-0.017439   0.0095202    0.041027    0.012119    -0.26332    -0.34907   0.0085458
-0.0073698    0.011794    0.016341   0.0036737    -0.24221    -0.38837    0.011469
0.003024    0.015367  -0.0067202   0.0062721    -0.21557    -0.41046     0.01829
0.017316    0.020239   -0.026858    0.015042    -0.19868     -0.4202    0.031282
0.033556    0.023487     -0.0405    0.018615    -0.20063    -0.42507    0.051096
0.048497    0.023812   -0.047646    0.011144    -0.21622    -0.42767    0.074157
0.055318    0.019589   -0.048945  -0.0021729    -0.23344    -0.43287     0.09462
0.050446    0.013743   -0.050894   -0.014191    -0.24188    -0.44131     0.10891
0.037778    0.010819   -0.055766   -0.021337    -0.24188    -0.44911     0.11541
0.024137    0.011469   -0.059664   -0.025884    -0.23344    -0.45073     0.11671
0.011469    0.012768   -0.063237   -0.034004    -0.22434    -0.44294     0.11541
-0.00054884    0.012768   -0.068434   -0.047646    -0.21914    -0.42215     0.11411
-0.0093186    0.011469   -0.072656   -0.069733    -0.21167    -0.38772     0.11313
-0.012567   0.0075714   -0.072331   -0.099615    -0.19219    -0.33478     0.11118
-0.0083442   0.0052977   -0.064536    -0.12917    -0.15451    -0.26104     0.10826
0.0020496   0.0049729   -0.050894    -0.14704    -0.10286    -0.17107     0.10664
0.015692   0.0065969   -0.036278    -0.14996   -0.046347    -0.07428     0.10469
0.029009   0.0056225   -0.029132    -0.14509   0.0033489    0.012768    0.099817
0.040052   0.0020496    -0.03173    -0.13632    0.036479    0.080978    0.093321
0.046548  -0.0031473   -0.038551    -0.12365    0.044924     0.12905    0.087474
0.045249   -0.008669   -0.044073    -0.10416    0.029333     0.15958    0.083576
0.036479  -0.0099683   -0.045697   -0.076879   -0.012892     0.17777    0.079354
0.024461  -0.0080194   -0.044073   -0.044723   -0.075579     0.18654    0.072858
0.012768  -0.0089938   -0.041799   -0.010618    -0.15191     0.19206    0.067336
0.0062721   -0.015815   -0.039526    0.022188    -0.22304     0.19563    0.064413
0.0069217   -0.021986   -0.037902    0.054993    -0.27274     0.19628    0.057917
0.011794   -0.024909   -0.040175      0.0852    -0.29028     0.19661    0.045899
0.016991   -0.020362   -0.046347     0.10924    -0.27371     0.19791    0.027385
0.015692    -0.01484   -0.056416     0.11931    -0.23214     0.19239   0.0085458
0.0052977   -0.012242   -0.070058     0.11151    -0.17887     0.17842  -0.0057458
-0.0093186    -0.01484   -0.082725     0.08585    -0.12917     0.16153  -0.0083442
-0.021986   -0.018738   -0.090196    0.041351    -0.09182     0.14854 -0.00087364
-0.025234   -0.020687   -0.088896   -0.018738    -0.06681     0.14399   0.0088706
-0.020037   -0.022311   -0.078827   -0.092145    -0.04992     0.14269    0.014717
-0.011267   -0.025559   -0.067134    -0.17465   -0.037902     0.13977    0.010819
-0.0047713   -0.030431   -0.063237    -0.26169    -0.02426      0.1336  -0.0028225
-0.0034721   -0.036602   -0.069083    -0.35004  -0.0047713     0.12385   -0.020362
-0.0080194   -0.039851   -0.082725    -0.43352    0.024461     0.11411   -0.034654
-0.015815   -0.041799   -0.095068    -0.49718    0.059216     0.10761   -0.040825
-0.022961   -0.043748   -0.097666    -0.52869    0.089748     0.10469   -0.039851
-0.026209   -0.043748   -0.089546    -0.52219     0.10794     0.10436   -0.034004
-0.026533   -0.039526   -0.076879    -0.47639     0.11281     0.10729   -0.027183
-0.026209   -0.030106   -0.064536    -0.39714     0.10501     0.11378    -0.02361
-0.021986   -0.018413   -0.052518    -0.29905    0.090722      0.1206   -0.021661
-0.018088  -0.0067202     -0.0405     -0.2016    0.084226     0.12093   -0.019388
-0.013216   0.0010752   -0.031081    -0.12333    0.099167     0.11216   -0.017764
-0.0063954   0.0059473    -0.02426   -0.072331     0.14691     0.09462   -0.020037
0.0043233   0.0088706   -0.019712   -0.043099     0.23266    0.077405   -0.026533
0.012443    0.011144   -0.017114   -0.026209      0.3418    0.062789   -0.034004
0.016991    0.011469    -0.01484   -0.013216     0.44639    0.049796   -0.037902
0.019264   0.0095202   -0.012567  -0.0015233     0.51297    0.038753   -0.036927
0.023487   0.0062721  -0.0076946    0.014392     0.51947    0.031932    -0.03173
0.029658   0.0072465   0.0020496    0.037454     0.46652    0.023162   -0.023285
0.034206    0.011794    0.016666    0.065062     0.36389    0.014392   -0.013216
0.036154    0.017965    0.037129    0.093321     0.23136    0.011144 -0.00022403
0.03583    0.023162    0.056617     0.11898    0.088773    0.015042    0.019589
0.033556    0.027709     0.06961     0.14107    -0.04862    0.023162     0.04395
0.031607    0.032582    0.071883     0.15893     -0.1675    0.029333    0.062789
0.030633    0.033881    0.066037     0.17225    -0.26234    0.029333    0.067011
0.028684    0.031607    0.057267     0.18102    -0.34452    0.022837    0.052395
0.023162    0.023162    0.048822     0.18784    -0.44099   0.0091954    0.025761
0.014717    0.011794    0.042001     0.19369    -0.57643   -0.017764  -0.0015233
0.0059473      0.0014    0.039727     0.19986    -0.74501   -0.059989   -0.021337
-0.0047713  -0.0047713    0.044599     0.20603    -0.90286    -0.10384   -0.031406
-0.01614  -0.0054209    0.054019     0.21025    -0.99543    -0.13827   -0.034978
-0.024909 -0.00054884    0.060515      0.2083    -0.98731    -0.15451   -0.035303
-0.029132   0.0062721    0.060515     0.19791    -0.87266    -0.15646   -0.032705
-0.024909    0.011469    0.050446     0.18394    -0.67712    -0.14931   -0.023935
-0.018738    0.014392    0.031607     0.17452    -0.43547    -0.13047  -0.0073698
-0.013866    0.014392    0.010495      0.1768    -0.18212   -0.092794    0.010495
-0.0096434    0.012768  -0.0024977     0.18167    0.053044   -0.039201    0.021213
-0.0050961    0.009845  -0.0028225     0.17225     0.24468    0.011469    0.020239
-0.0044465   0.0062721   0.0026992     0.13814     0.37006    0.033881   0.0026992
-0.013216   0.0023744    0.010495    0.083576     0.39507    0.022188   -0.031081
-0.029782  0.00042559    0.012768    0.016016     0.29178   -0.017439   -0.079152
-0.050244  0.00010078   0.0046481   -0.050244    0.084551   -0.070058    -0.13112
-0.064211  -0.0021729   -0.011917    -0.10968    -0.13469    -0.12398    -0.17887
-0.068109   -0.008669   -0.026209     -0.1636    -0.25552    -0.16653    -0.20843
-0.064861   -0.016464   -0.029457    -0.21362    -0.22434    -0.18569    -0.21037
-0.060638   -0.020362   -0.021986    -0.25357   -0.075255    -0.17789    -0.18504
-0.061937   -0.020362  -0.0076946    -0.27761     0.10177    -0.14736    -0.14444
-0.068434   -0.019063   0.0069217    -0.28476     0.21967    -0.10676    -0.10384
-0.07428   -0.017764    0.019589    -0.27664     0.23526   -0.073955    -0.07428
-0.074605   -0.016789    0.029009    -0.26039     0.14724   -0.061613    -0.05739
-0.069083  -0.0099683     0.03583    -0.24058  -0.0067202   -0.078178   -0.052518
-0.064861  -0.0037969      0.0433    -0.21947      -0.174    -0.12138   -0.055116
-0.067784  -0.0028225     0.05142    -0.19348    -0.31204    -0.18049   -0.060963
-0.080776   -0.017114    0.055968    -0.15808    -0.39389    -0.24318   -0.065186
-0.097666   -0.047971    0.058566    -0.11261    -0.40981     -0.2971   -0.061288
-0.11423   -0.092794    0.059541   -0.060963    -0.36726    -0.33835   -0.046347
-0.12592    -0.13989    0.063763   -0.011267    -0.28508    -0.36726   -0.020687
-0.13534    -0.18212    0.071883    0.031607    -0.18114    -0.39519   0.0078962
-0.13404    -0.21037    0.076431    0.065062    -0.06616    -0.43124    0.028684
-0.10806     -0.2172     0.06896    0.086175    0.047198    -0.47347    0.038428
-0.038227    -0.19803    0.040702    0.090072     0.14659    -0.50887    0.037454
0.079029    -0.14899  -0.0034721     0.07708     0.21675    -0.51732    0.031282
0.21935   -0.071357   -0.048945    0.057267      0.2463    -0.48191    0.026735
0.334    0.022188   -0.077853    0.047847     0.23266    -0.39454    0.022188
0.37688     0.10924    -0.07493    0.064413     0.18264    -0.26397    0.016341
0.33205     0.16413   -0.042124     0.10436    0.097868    -0.11326   0.0026992
0.22162     0.17095  -0.0015233     0.14821   -0.016464    0.023812   -0.018088
0.09397     0.12743    0.022837     0.17842    -0.15061     0.12483   -0.034654
-0.0041217    0.045249    0.018615     0.18524    -0.28476     0.18134   -0.034329
-0.04992   -0.051219  -0.0076946     0.17485    -0.39909     0.20278   -0.008669
-0.054142    -0.11975   -0.038876     0.15601    -0.47282     0.20148    0.045899
-0.0405    -0.10709   -0.057065     0.14269    -0.48061     0.19596     0.12028
-0.022311    0.011144   -0.052193     0.14334    -0.38967     0.19466     0.20213
-0.0031473     0.20116   -0.025234     0.15341    -0.17984     0.19239     0.27781
0.01829      0.3889    0.012443     0.16315     0.12775     0.18524     0.32848
0.037778     0.49056    0.046873     0.16738     0.44704     0.17939      0.3457
0.040702     0.46003    0.066037     0.16803     0.65751     0.18914     0.32816
0.02641     0.31711    0.071558     0.16965     0.66791     0.22682     0.28658
0.011469     0.13392    0.065387     0.17127     0.47172     0.28658     0.23981
0.0078962  -0.0024977     0.05272     0.17062     0.15568     0.34862     0.19726
0.0026992   -0.046671    0.046223      0.1638    -0.15321      0.3889     0.15893
-0.020687  -0.0073698    0.054668     0.15179     -0.3429     0.39474     0.12028
-0.063237    0.067986    0.073182     0.13847    -0.36953     0.37395    0.083901
-0.11001     0.12905      0.0852     0.12483    -0.26267     0.34115    0.058241
-0.13729     0.14951    0.080003     0.11313   -0.095068     0.30672    0.050446
-0.13145     0.12937    0.059541     0.10144    0.061165     0.26677    0.056942
-0.094093    0.082277    0.031607    0.082927     0.16575     0.21512    0.066037
-0.03303    0.028034      0.0014     0.05207     0.21902     0.14659    0.065062
0.042651   -0.017114    -0.02426     0.01017     0.24566    0.067986    0.046548
0.1206   -0.042124   -0.044723   -0.034978     0.27619  -0.0099683     0.01829
0.18719   -0.046996   -0.057065   -0.070707     0.33108   -0.070058  -0.0037969
0.22877   -0.036278   -0.065186   -0.085648     0.40579   -0.096692  -0.0034721
0.23721   -0.021012   -0.069083   -0.079477     0.47659   -0.087922    0.023487
0.2161   0.0017248   -0.068109   -0.054142     0.52726   -0.053492    0.067011
0.17907    0.037129   -0.055766   -0.018088      0.5539  -0.0060706     0.10404
0.14074    0.083576   -0.035953    0.018615     0.56624    0.039402     0.11476
0.11054     0.12483   -0.012892    0.044275     0.58151     0.07773    0.099492
0.096244     0.14561   0.0085458    0.054668     0.61301     0.10274    0.069285
0.096569     0.13684    0.020239    0.049472     0.65686     0.11443    0.032906
0.10112     0.10469    0.017316    0.033556     0.68415     0.11411  -0.0034721
0.098842    0.062464      0.0014    0.014717     0.65978     0.10631   -0.035953
0.081303    0.021213   -0.020687 -0.00054884     0.56819    0.098517   -0.064536
0.052395   -0.012892   -0.043099   -0.015815     0.42105     0.10014   -0.094743
0.017965   -0.035303   -0.060963   -0.032705     0.25702     0.11378    -0.13307
-0.015815   -0.048945   -0.073631   -0.053168     0.11183     0.13587    -0.17627
-0.042774   -0.058365   -0.081751   -0.075904    0.012443     0.16088    -0.21135
-0.058365   -0.069733   -0.084999   -0.094743   -0.028482     0.18589    -0.22889
-0.064536   -0.092794   -0.084999   -0.096367   -0.017114      0.2096    -0.22272
-0.064211    -0.12365   -0.081101   -0.077203    0.026735     0.22617    -0.19608
-0.05804    -0.15191   -0.072006   -0.038551    0.072208     0.23104    -0.16003
-0.044723     -0.1623   -0.056091    0.010495    0.093645     0.22389    -0.12333
-0.034978    -0.14834   -0.034978    0.054993    0.078379     0.20538   -0.095393
-0.035628    -0.12073   -0.017764     0.08585    0.022188     0.17907     -0.0824
-0.051868   -0.095068   -0.010618    0.097868   -0.065186     0.14821   -0.088247
-0.080127   -0.085324   -0.013541    0.095919    -0.16945     0.11281    -0.10806
-0.10838   -0.094093   -0.024909    0.090397    -0.27728    0.073182    -0.13697
-0.12463    -0.11293   -0.038227    0.087474    -0.38772    0.033556    -0.16393
-0.123     -0.1243   -0.043423    0.089098    -0.50627      0.0014    -0.18017
-0.10774    -0.11845   -0.034004    0.090397    -0.61768   -0.023285    -0.18114
-0.087597   -0.091495   -0.012567    0.084551    -0.69726   -0.045372     -0.1688
-0.072006   -0.050569    0.012443    0.071558    -0.72292   -0.070382    -0.14996
-0.06616  -0.0099683    0.032582    0.053369    -0.69531   -0.095717    -0.13047
-0.071032     0.01829    0.038428    0.032257    -0.62191    -0.11488    -0.11228
-0.08305    0.029009    0.028359    0.013743    -0.51504    -0.12333   -0.089221
-0.095068    0.023487   0.0085458   0.0017248    -0.38447    -0.11813   -0.060638
-0.10416   0.0095202   -0.014516 -0.00054884    -0.23961    -0.10741   -0.029132
-0.10806  -0.0093186   -0.027833   0.0033489   -0.093444   -0.096692  -0.0041217
-0.10416   -0.029132   -0.028807   0.0049729    0.036479   -0.095717    0.010819
-0.094743   -0.047646   -0.022636  -0.0057458     0.14042    -0.11001     0.01017
-0.0837   -0.063561   -0.012242   -0.032055     0.21382    -0.13664  -0.0047713
-0.076879   -0.072981   0.0036737   -0.069083     0.25735    -0.16588   -0.029132
-0.070058   -0.070382    0.022188    -0.11001     0.27586    -0.19381   -0.056416
-0.058365    -0.05739     0.03453    -0.14281     0.27132    -0.22044   -0.081426
-0.038551   -0.038876    0.036479    -0.15581     0.25215       -0.25    -0.09994
-0.013866   -0.024585    0.032582    -0.14736     0.22649    -0.28216    -0.10806
0.0088706   -0.021012    0.029333    -0.12333     0.20278    -0.31431    -0.10546
0.020564   -0.028807    0.029983    -0.09182     0.18654    -0.33965    -0.09182
0.015692     -0.0405    0.038428   -0.055766     0.18264    -0.35524   -0.070382
-0.0015233   -0.046347    0.053044   -0.017114     0.18654    -0.35719   -0.044398
-0.022311   -0.042774    0.067661    0.019589     0.18751    -0.34452   -0.017439
-0.039526   -0.025234    0.070584    0.045249     0.17907    -0.31821   0.0036737
-0.047971   0.0046481    0.062139    0.057267     0.15991    -0.28086     0.01764
-0.044723    0.037778    0.044924    0.058241     0.13327    -0.23928    0.023487
-0.030756    0.058566    0.026735    0.048172     0.10079    -0.19608    0.021213
-0.010293    0.061489    0.010819    0.023162    0.060515    -0.15223    0.015692
0.0088706    0.046548  0.00042559   -0.018413    0.015042    -0.11033    0.010819
0.021538    0.023812  -0.0057458    -0.06616    -0.03303   -0.073955   0.0046481
0.028684   0.0033489  -0.0041217    -0.10416   -0.072656   -0.042449  -0.0024977
0.029658  -0.0080194   0.0049729    -0.11326   -0.091495   -0.012892  -0.0093186
0.025436  -0.0099683    0.016666   -0.088247   -0.087597    0.011794    -0.01549
0.017316  -0.0037969    0.026735   -0.034978   -0.072656    0.032906   -0.020362
0.011469   0.0065969    0.031932    0.029333   -0.063237    0.056617   -0.021337
0.0052977    0.014068    0.029983    0.083251   -0.064536    0.087474    -0.01484
0.00010078    0.013743     0.01764     0.11443   -0.076229     0.12613   0.0010752
-0.0021729   0.0039985  0.00010078      0.1245   -0.093444      0.1625    0.023487
-0.0021729   -0.010618   -0.019388     0.11866    -0.11196     0.18297    0.045899
-0.0031473    -0.02361   -0.031406     0.10534    -0.12657     0.17712    0.063113
-0.0041217   -0.029782   -0.037577    0.088124    -0.13307     0.14594    0.066362
-0.0011985   -0.027833    -0.04115    0.064088    -0.12917    0.096893    0.055318
0.0056225   -0.022961   -0.044723    0.031282     -0.1204    0.041027    0.034855
0.010495   -0.019388   -0.048296  -0.0083442    -0.10968   -0.010943    0.012119
0.013743   -0.019388   -0.051868   -0.051544   -0.096367   -0.053492  -0.0057458
0.015367   -0.023935   -0.059339   -0.098316   -0.081426   -0.088247   -0.017439
0.016666   -0.027508   -0.070058    -0.14411   -0.067134    -0.11683    -0.02361
0.013418   -0.028482   -0.085648    -0.18374   -0.054792    -0.13827   -0.020687
0.0052977   -0.023935    -0.10351    -0.20908    -0.04992    -0.15288   -0.012567
-0.0047713    -0.01549    -0.11651    -0.21297   -0.051544    -0.16035  -0.0018481
-0.01484  -0.0076946    -0.12138    -0.19381   -0.056091    -0.16003   0.0091954
-0.022961  -0.0024977    -0.11553    -0.15743   -0.052518    -0.14996     0.01894
-0.026209      0.0014    -0.10254    -0.11618   -0.038876    -0.13047    0.021213
-0.023285   0.0033489   -0.089871   -0.079802   -0.022636    -0.10449    0.014068
-0.013866   0.0056225   -0.084999   -0.061937  -0.0080194   -0.071682 -0.00022403
0.00010078    0.009845   -0.085324   -0.068434   0.0010752   -0.032705   -0.017764
0.014392    0.015042   -0.084349   -0.094743   0.0095202   0.0088706   -0.034654
0.023487     0.01829   -0.079477    -0.12982    0.016341    0.044924   -0.042449
0.024137    0.016666   -0.068109    -0.15776    0.020564    0.067661   -0.042449
0.01829    0.016666   -0.053817     -0.1649    0.017965    0.072858   -0.036278
0.011144     0.01894   -0.039851    -0.15451   0.0078962    0.061814   -0.027833
0.0059473    0.024786   -0.028482    -0.13567   -0.010293    0.039727   -0.017439
0.0056225    0.034206   -0.022961    -0.11618   -0.030431    0.012119  -0.0054209
0.01017    0.043625   -0.020362   -0.097991    -0.04862   -0.017439    0.008221
0.01764    0.044599   -0.018413   -0.077853   -0.062587   -0.042124    0.022512
0.021213    0.038103  -0.0093186   -0.053492   -0.072006   -0.058365    0.036154
0.017316    0.026735   0.0078962   -0.025559   -0.076554   -0.067459    0.047847
0.012119    0.017965    0.025761   0.0026992   -0.084024   -0.070058    0.057267
0.0088706    0.016016    0.037129     0.02706    -0.09929   -0.072656    0.065712
0.0085458    0.019589    0.041351    0.041351     -0.1178   -0.076554    0.074482
0.0091954    0.026735    0.036154    0.041676    -0.13437   -0.080451    0.085525
0.0072465    0.033881    0.022837    0.030633    -0.14281   -0.080776    0.094945
0.0036737    0.037778   0.0072465    0.014392    -0.14087   -0.073631    0.096893
0.00042559    0.038103   -0.007045  -0.0018481    -0.13502   -0.060638    0.089748
-0.0018481    0.036154   -0.014516    -0.01614     -0.1295   -0.044073    0.076755
0.0017248     0.03453   -0.014516   -0.024585    -0.12982   -0.025884    0.062789
0.0085458     0.03453  -0.0037969    -0.02361    -0.13372  -0.0067202    0.051096
0.016341    0.032257    0.014068   -0.015165    -0.14184    0.012443    0.047523
0.021538    0.026085    0.031282  -0.0031473    -0.15256    0.029009    0.053694
0.01764     0.01829    0.047847   0.0088706     -0.1623    0.044599    0.064088
0.0026992    0.011144    0.063113    0.020239    -0.17107    0.063763    0.071883
-0.01614   0.0059473    0.074157    0.033881    -0.17594    0.081303    0.073507
-0.028482   0.0017248    0.078704    0.053694    -0.17432    0.089748    0.068635
-0.033354 -0.00054884    0.078704    0.084226    -0.16685    0.082277    0.059865
-0.036278  0.00042559    0.076431     0.12223    -0.15321    0.061165    0.046223
-0.040825   0.0069217    0.069285     0.15828    -0.13242    0.033556    0.029658
-0.046996    0.018615    0.057917     0.18362    -0.10676   0.0046481    0.013418
-0.054467    0.030957    0.048822     0.19823   -0.084024   -0.016464   0.0056225
-0.062912    0.039078    0.048822     0.20765   -0.068758   -0.027183   0.0052977
-0.069083    0.039402    0.058891     0.21252   -0.061613   -0.031406   0.0085458
-0.06681     0.03518    0.070584      0.2174   -0.059014   -0.034004   0.0091954
-0.052518    0.032257    0.078055     0.22552   -0.057715   -0.037252    0.009845
-0.030756    0.034206    0.081627     0.23591   -0.054142   -0.035628    0.012443
-0.007045    0.037778    0.078379     0.24533   -0.047321   -0.026533    0.015692
0.014392    0.040702    0.071883      0.2515   -0.040175   -0.011592    0.017316
0.032906    0.039078    0.060515     0.25085   -0.036927   0.0023744    0.021863
0.046873    0.032257    0.045899     0.23981   -0.036602    0.010819    0.028684
0.055318    0.023487    0.030308     0.22097   -0.039851    0.013418    0.037778
0.052395    0.015692    0.014068     0.20343   -0.043423    0.016341      0.0433
0.042651     0.01017   0.0026992     0.18557   -0.045047    0.020564    0.045899
0.028684   0.0052977  -0.0021729     0.16803   -0.043423    0.020239    0.045249
0.015367   0.0023744  -0.0034721     0.14886   -0.037902    0.016666    0.041676
0.003024      0.0014  -0.0067202     0.12807   -0.028482    0.015367    0.033556
-0.0054209 -0.00022403   -0.015165     0.10631   -0.019063     0.01894    0.024137
-0.0080194  -0.0018481   -0.026858    0.080328   -0.011592     0.02706    0.016341
-0.0076946 -0.00054884   -0.037252     0.05142  -0.0037969    0.038103    0.011144
-0.0057458   0.0036737   -0.046022    0.020564   0.0052977    0.049796    0.011469
0.0014    0.009845    -0.04992   -0.014191    0.015367    0.061814    0.016341
0.011144    0.019264    -0.04992   -0.055116    0.023812    0.074482    0.026735
0.01829    0.028684   -0.048296   -0.094418     0.02641    0.090072    0.034855
0.020239     0.03518    -0.04862    -0.12852    0.024786     0.10209    0.037778
0.018615    0.038103   -0.042774    -0.15353    0.019589     0.10956     0.03518
0.016016    0.037778   -0.027183     -0.1714    0.012768     0.10631     0.02706
0.017965    0.035505  -0.0047713    -0.17854   0.0085458    0.092021    0.015692
0.026085    0.036479    0.019589    -0.17205    0.013418    0.070909      0.0014
0.038428    0.040702    0.040052    -0.15126    0.028359    0.046223   -0.017764
0.048497    0.042326     0.05272    -0.11975    0.045899    0.023162   -0.038876
0.048172     0.03518    0.061489     -0.0824    0.059216   0.0046481   -0.062912
0.041027    0.020239    0.071234   -0.043748    0.063763  -0.0093186   -0.081101
0.03453   0.0046481    0.086824  -0.0080194    0.062464   -0.018413   -0.088247
0.033231 -0.00054884     0.10177    0.021213    0.058891   -0.023285     -0.0824
0.034855   0.0072465     0.10534    0.041027    0.055643   -0.023935   -0.061613
0.042001    0.022188    0.092996    0.053044    0.050446   -0.022311   -0.035953
0.051745    0.029983    0.070259    0.063438    0.044275   -0.022636   -0.017764
0.057917    0.019264    0.042975     0.07773      0.0433   -0.025559   -0.010618
0.056292   -0.013866    0.014717    0.097543    0.058241    -0.02426  -0.0093186
0.049796   -0.064211   -0.010943     0.12223    0.091047   -0.015815  -0.0024977
0.042001    -0.11131   -0.031081     0.15211     0.13392   0.0010752    0.016666
0.03518    -0.13437   -0.040825     0.18459     0.17192    0.028684     0.04395
0.030633    -0.12333   -0.034654      0.2161     0.19791    0.065387    0.071234
0.032257   -0.080451   -0.012567     0.24273     0.21967     0.11054    0.093645
0.0433    -0.01614    0.016016     0.26287     0.24013     0.16575     0.10891
0.065712    0.049147    0.037778     0.27521     0.25897     0.23071     0.11541
0.092021    0.092021    0.044275     0.28008     0.27359     0.30217     0.11151
0.11118    0.099167    0.036154     0.27749     0.27619     0.37006    0.092346
0.11995    0.074157    0.025436     0.26384     0.26742     0.42235    0.063763
0.11443    0.028034    0.022837     0.23754     0.25215     0.45191     0.03583
0.090072   -0.026858    0.024786     0.19986     0.23299     0.44931    0.014392
0.046223   -0.085648    0.020888     0.14886     0.20538     0.40449  -0.0031473
-0.0047713    -0.14931      0.0014    0.078379     0.16933     0.32198   -0.023285
-0.045047    -0.21655   -0.036602   -0.014191     0.12807     0.21772    -0.04992
-0.059664    -0.27891    -0.09182    -0.12365    0.088448     0.10761   -0.079152
-0.040175    -0.32081    -0.15386    -0.23571    0.057917   0.0078962    -0.10026
0.012443    -0.31983    -0.19966    -0.33543    0.044924   -0.072006    -0.10156
0.083251    -0.26234    -0.21005    -0.41435    0.053044     -0.1334   -0.077853
0.14659    -0.15418    -0.18049    -0.46697    0.073507    -0.18017   -0.031406
0.17647    -0.01614    -0.12333    -0.49328    0.088124    -0.21037    0.025111
0.15731     0.12613   -0.057065    -0.49263     0.06831    -0.23051    0.070584
0.091696     0.25118   0.0020496    -0.46535   -0.017114    -0.25845    0.087149
-0.00022403     0.34082    0.049796    -0.41403    -0.16815    -0.30782    0.071558
-0.09182     0.38142    0.083251    -0.34939     -0.3351    -0.37245    0.036479
-0.16393     0.36713    0.095594     -0.2867    -0.45658    -0.43287  -0.0063954
-0.2042     0.30542    0.081627    -0.23928    -0.48841    -0.46665   -0.042124
-0.20225     0.21382    0.045249    -0.21005     -0.4176    -0.46048   -0.056416
-0.15678     0.11801  -0.0024977    -0.19413    -0.27469     -0.4163   -0.044073
-0.080451    0.037454   -0.053492    -0.18244    -0.10838    -0.35849   -0.013866
0.0043233   -0.016789    -0.10351     -0.1688    0.029658    -0.32016    0.016016
0.07708   -0.035953    -0.14541    -0.15158     0.10469    -0.31951    0.032257
0.12515   -0.013216     -0.1727     -0.1295    0.091047    -0.34777    0.034206
0.14789    0.045899    -0.17692   -0.097666   -0.037577    -0.38707    0.032257
0.15341     0.12093    -0.15353   -0.055766    -0.28735    -0.41988    0.041676
0.14951     0.17907    -0.11423   -0.010293    -0.61151    -0.42767    0.070259
0.13652     0.19596   -0.075904    0.032906    -0.90936    -0.40461     0.11541
0.10826     0.16933   -0.043423    0.070584     -1.0594    -0.35816     0.16543
0.061165     0.12223   -0.018413     0.10371    -0.98504    -0.30424     0.20408
-0.0041217    0.074806 -0.00087364      0.1336    -0.69401     -0.2474     0.22487
-0.071682    0.038103   0.0049729     0.16185     -0.2945    -0.19543     0.23071
-0.12333   0.0065969   0.0026992     0.19044    0.067986    -0.16425     0.22487
-0.14574   -0.022961  0.00075039     0.21415     0.27099    -0.16425     0.20733
-0.13924   -0.051219   0.0059473     0.23169     0.28496    -0.19608     0.17972
-0.11715   -0.071032    0.015367     0.24273      0.1716    -0.25292     0.14204
-0.088896   -0.075904    0.023487      0.2463     0.03453    -0.32113    0.093321
-0.064211   -0.065186    0.025111     0.24338   -0.047646    -0.37765    0.037778
-0.04927   -0.045047    0.017965     0.23429   -0.059339    -0.39551   -0.015165
-0.046996   -0.024909   0.0049729     0.22162   -0.034004    -0.35556   -0.057065
-0.056416    -0.01549    -0.01549     0.20246   -0.017439    -0.26072   -0.075579
-0.072331   -0.022961   -0.044398     0.16608   -0.031081    -0.13957   -0.067134
-0.088572   -0.046671   -0.075904     0.10696   -0.071357   -0.027183    -0.04115
-0.093769   -0.075255    -0.10514    0.034206     -0.1217    0.054668   -0.013541
-0.084349    -0.09994     -0.1321   -0.043748    -0.17854    0.098193  0.00010078
-0.064861    -0.11618    -0.15418    -0.11748    -0.24156     0.11086  -0.0037969
-0.04862    -0.12138    -0.16393     -0.1727    -0.30977     0.10306    -0.02426
-0.044398    -0.11715    -0.15483    -0.20323     -0.3861    0.090072   -0.057065
-0.051219    -0.11066    -0.12885     -0.2159    -0.46925    0.079029   -0.093119
-0.064536    -0.10449   -0.092794    -0.21947    -0.54135    0.075131    -0.12625
-0.076554    -0.10189   -0.055766    -0.22661    -0.56084    0.076755    -0.15191
-0.084674    -0.10189   -0.028157     -0.2474    -0.48451    0.080978      -0.174
-0.091495    -0.10546   -0.014191    -0.27858    -0.30294    0.084226    -0.19478
-0.094093    -0.10968    -0.01549    -0.31042   -0.061613    0.087149    -0.21037
-0.088572    -0.11196   -0.027508    -0.33705     0.16023    0.099167    -0.21622
-0.071357    -0.11098   -0.041475    -0.35784      0.2947     0.12775    -0.21362
-0.048945    -0.10124    -0.04927    -0.35719     0.32816     0.17615    -0.20323
-0.028482   -0.081751   -0.044723    -0.33348     0.29795     0.24338    -0.18796
-0.014191    -0.05804   -0.029782    -0.29385     0.25345     0.31679    -0.17594
-0.0083442   -0.036927   -0.015165    -0.24545     0.23201      0.3811     -0.1727
-0.010943   -0.021012  -0.0021729    -0.19966     0.24598     0.41975    -0.17757
-0.01549   -0.013866   0.0075714    -0.16718     0.28626     0.42527    -0.18829
-0.025234    -0.01549    0.017316    -0.15483     0.33433     0.40319    -0.20485
-0.038876   -0.022961    0.031607    -0.16068     0.37168     0.37038    -0.22434
-0.051868   -0.027508    0.047523    -0.18212     0.38857      0.3392    -0.24286
-0.061613   -0.026533    0.058891    -0.21492      0.3772     0.31257    -0.25585
-0.070382   -0.022961    0.061489    -0.25098     0.34082      0.2947    -0.25975
-0.073955   -0.025559    0.058241    -0.28248     0.28723     0.28691     -0.2526
-0.072006   -0.038551    0.046223    -0.30652     0.23201     0.28431    -0.23733
-0.063886   -0.055766    0.032257    -0.31269     0.19466     0.28366    -0.21427
-0.04927    -0.06616     0.01829    -0.28898     0.18492     0.28463    -0.18179
-0.029132   -0.060963    0.011144    -0.23051      0.2044     0.28918    -0.14541
-0.0096434    -0.04115    0.012119    -0.14346     0.24695     0.29535    -0.11358
0.00010078   -0.010618    0.023487   -0.039526     0.30477     0.30282   -0.086948
-0.007045    0.025111    0.041351    0.067336     0.37298     0.31127   -0.063886
-0.030106    0.057267    0.061814     0.16803     0.43632     0.31874   -0.039526
-0.052843    0.083251    0.074157     0.25735     0.48114     0.32263  -0.0089938
-0.059664     0.10079    0.076755      0.3353     0.49803     0.31711    0.022188
-0.046671     0.10729    0.070909     0.40059     0.48731     0.30217    0.046223
-0.022636     0.10339    0.062139     0.44736      0.4597     0.28463    0.059216
-0.00022403    0.090397    0.057592     0.47464     0.42982     0.26742    0.064088
0.019589    0.074157    0.056942     0.49153     0.40643      0.2502    0.069285
0.038428    0.059541    0.058566     0.51232     0.38825     0.23266    0.086175
0.06019    0.048172    0.061814     0.54188     0.37071     0.21447     0.11768
0.08585    0.039078    0.064413     0.57793     0.34505     0.19563     0.15146
0.10534    0.029009    0.063113     0.61074     0.31094      0.1742      0.1703
0.10599    0.015692    0.057267     0.62828     0.26969     0.15179     0.16835
0.082927  -0.0011985    0.049147     0.61626     0.22519     0.13165     0.14821
0.042326   -0.021337    0.039078     0.56234     0.17939     0.11606     0.11898
0.0023744   -0.044398    0.029009     0.46295     0.12937     0.10859    0.087474
-0.023935   -0.062587    0.018615     0.32621     0.07708     0.10859     0.06084
-0.030756   -0.064536    0.011794      0.1729    0.029009     0.10859     0.04395
-0.022311   -0.046671    0.011794    0.024786   -0.012242     0.10631    0.038753
-0.010943   -0.010943    0.016991   -0.097017   -0.041799     0.10079    0.042001
-0.0041217     0.03453    0.025111    -0.18244   -0.058365    0.092996    0.049472
-0.0011985    0.081952    0.036479    -0.22694   -0.061937    0.080003    0.057917
-0.00087364      0.1232    0.051745    -0.23409    -0.05739    0.058891    0.065062
0.0010752     0.14659    0.065062    -0.20875    -0.04862    0.028359    0.069285
0.0085458     0.14399    0.072858    -0.16393    -0.03173  -0.0099683    0.070259
0.025111     0.11931    0.070909    -0.10871  -0.0073698   -0.052843     0.06831
0.049147    0.082277    0.063438   -0.048296    0.019264   -0.098316    0.066037
0.072858    0.045899    0.054993    0.016341    0.044924    -0.14509    0.063763
0.086175    0.020239    0.049472    0.077405    0.068635    -0.18829    0.062464
0.087799    0.011144    0.048822     0.12807    0.095269    -0.22597    0.062464
0.079679    0.015692    0.047523     0.16575      0.1271    -0.25325    0.061814
0.066686    0.027385    0.046223     0.19239     0.15698    -0.26624    0.059216
0.055318    0.039078      0.0433     0.21025      0.1755    -0.26137    0.056292
0.047198    0.047523    0.040377     0.22065     0.17712    -0.24123    0.054993
0.041676    0.049472    0.033881     0.22065     0.16478    -0.21492    0.054668
0.037454    0.042326    0.024461     0.20895     0.14756    -0.18796    0.050446
0.033231    0.031932    0.015692     0.19141     0.12645     -0.1662    0.041027
0.029333    0.022837    0.010819     0.17582     0.10209    -0.14931     0.02706
0.022188    0.016666    0.016016     0.16543     0.06831    -0.13859    0.014717
0.012443    0.013743    0.024786     0.15958    0.022837     -0.1321   0.0085458
-0.00087364    0.013093    0.032257     0.15341   -0.043099     -0.1256   0.0065969
-0.013866    0.016991     0.03453     0.14724    -0.13469    -0.11553   0.0085458
-0.022636    0.021538    0.033556     0.14074    -0.25162    -0.10091    0.012443
-0.026209     0.02641    0.029009     0.13327    -0.39324   -0.081101    0.015692
-0.026533    0.029333    0.021863     0.12223    -0.55435   -0.058365    0.020239
-0.021012    0.029983    0.014068     0.10956    -0.70538   -0.036602     0.02641
-0.010618    0.029009   0.0078962    0.092996    -0.80575   -0.022636    0.031607
0.003024    0.030308   0.0085458    0.071883    -0.83043   -0.016464     0.03583
0.015367    0.030633    0.012443    0.045899    -0.77879   -0.018088    0.037778
0.025761    0.029983    0.014068    0.022837     -0.6716   -0.023935    0.038103
0.032906    0.024137    0.011794   0.0091954    -0.53226    -0.03303    0.036479
0.03583     0.01894   0.0043233   0.0049729    -0.38545   -0.042774    0.031282
0.033231    0.014717  -0.0041217   0.0072465    -0.25422   -0.053168    0.022512
0.022188    0.013743   -0.013216    0.010819    -0.15386   -0.058365    0.015692
0.0020496    0.013093   -0.020362    0.011469   -0.082725    -0.05804    0.015692
-0.01614    0.011144   -0.025234   0.0072465   -0.033354   -0.059989    0.021538
-0.02361   0.0049729   -0.026533   0.0020496   0.0046481   -0.075579     0.02706
-0.02361  -0.0041217   -0.026209 -0.00054884     0.02706    -0.10903    0.032257
-0.017764   -0.013541   -0.026858  -0.0018481    0.024461    -0.15321     0.03518
-0.013216   -0.020037   -0.030106  -0.0031473  -0.0099683    -0.19998    0.036479
-0.012892   -0.022636   -0.035953  -0.0031473   -0.069083     -0.2448    0.033881
-0.018088   -0.020037    -0.04115   0.0010752    -0.13177    -0.28638    0.026735
-0.029457   -0.016464   -0.044398   0.0085458    -0.18212    -0.32373    0.016341
-0.039851   -0.014191   -0.044398    0.016341     -0.2081    -0.35816   0.0062721
-0.042774   -0.011917   -0.042124    0.022837     -0.2133    -0.39292   0.0010752
-0.036602   -0.011592   -0.039526    0.025111     -0.2042    -0.42962   0.0075714
-0.022636   -0.011267   -0.037577    0.025436    -0.18894    -0.46665    0.021538
-0.0050961   -0.012242   -0.037577    0.023812    -0.17367     -0.4975    0.036154
0.01017   -0.014191    -0.04115    0.020888    -0.16003    -0.51602     0.04395
0.017965   -0.016789   -0.047321     0.01829    -0.14541    -0.51764    0.042975
0.01894   -0.018738   -0.052843    0.019589    -0.12982    -0.50075    0.037129
0.016016   -0.019063   -0.053817    0.023487    -0.11683    -0.46632    0.028684
0.0075714   -0.019712    -0.04927    0.026085    -0.10644    -0.42442    0.021538
-0.0028225   -0.021661   -0.042124    0.019914   -0.097666     -0.3835    0.013743
-0.011592   -0.023285    -0.03303   0.0062721   -0.092145    -0.34355   0.0043233
-0.015165   -0.023935   -0.026533   -0.011917   -0.089221    -0.30424  -0.0063954
-0.015165   -0.025884   -0.023285   -0.027833   -0.084674    -0.26429   -0.013541
-0.0096434   -0.027508   -0.024585   -0.035953   -0.078178    -0.21849   -0.016789
0.00042559   -0.030106   -0.029457   -0.038876   -0.063886    -0.16945   -0.017764
0.009845   -0.032705   -0.035303   -0.042449   -0.046022    -0.11683   -0.015815
0.015367    -0.03303   -0.040825   -0.053817   -0.030431   -0.067784   -0.010943
0.016016   -0.030756   -0.046996   -0.077528   -0.021986   -0.026533  -0.0047713
0.011469   -0.030756   -0.051868    -0.11228   -0.021986   0.0043233  0.00042559
0.0043233   -0.039201   -0.053168    -0.15061   -0.026858     0.02641   0.0052977
-0.0031473   -0.052518   -0.050244    -0.18666    -0.03173    0.044275   0.0056225
-0.0076946   -0.061613   -0.046996    -0.21427   -0.030431    0.056942   0.0026992
-0.010293   -0.060638   -0.041475    -0.23019   -0.020687    0.066037  -0.0018481
-0.010943   -0.050569   -0.035953    -0.23214  -0.0080194    0.073182  -0.0041217
-0.010943   -0.037577   -0.030106    -0.22759  0.00042559    0.077405 -0.00087364
-0.010618   -0.027833   -0.027833    -0.22174   0.0043233    0.079679   0.0069217
-0.007045   -0.021012   -0.029782    -0.21525   0.0065969    0.079354    0.019914
0.0020496    -0.01549    -0.03238    -0.21005   0.0095202    0.079679    0.032582
0.011144   -0.011267   -0.030106    -0.21037    0.010819      0.0865    0.039078
0.020888  -0.0037969   -0.021661    -0.21297    0.009845    0.096569    0.042651
0.031282   0.0046481  -0.0060706    -0.21557   0.0069217     0.10371    0.046223
0.042326    0.010819    0.009845    -0.21622   0.0010752     0.10826     0.05142
0.049472    0.013418    0.019589    -0.21427  -0.0057458     0.11183    0.054019
0.049796    0.013093     0.01894    -0.20713  -0.0099683     0.11736    0.050771
0.045249    0.011469   0.0085458    -0.19673   -0.011592      0.1258    0.042651
0.041676   0.0091954  -0.0073698    -0.18439  -0.0096434      0.1336    0.032906
0.042001   0.0056225   -0.020687    -0.16718  0.00010078     0.13879    0.023487
0.045899   0.0046481   -0.024909    -0.14606    0.015042     0.13717    0.016341
0.052395   0.0039985   -0.019063    -0.12138    0.027709     0.13067    0.011469
0.056292    0.003024   -0.007045   -0.092794    0.031607     0.12255   0.0065969
0.053694   0.0010752   0.0046481    -0.06551    0.026085     0.11573   0.0033489
0.044275   0.0017248   0.0091954   -0.044723     0.01764     0.10989   0.0020496
0.030308   0.0056225    0.003024   -0.029132    0.012119     0.10274  0.00075039
0.012768    0.011794   -0.008669   -0.019388    0.013418    0.096244  -0.0034721
-0.0050961     0.01829   -0.019063   -0.014516    0.019264    0.092996  -0.0063954
-0.015815     0.02641   -0.021661   -0.013541    0.026735    0.091696  -0.0057458
-0.012242    0.032582   -0.015815   -0.013541    0.028034    0.091696  0.00075039
0.0023744    0.039078  -0.0057458   -0.011917    0.021538    0.091047     0.01017
0.01894    0.042001    0.003024  -0.0067202    0.011469    0.098517    0.017965
0.029983    0.038103   0.0078962   0.0023744   0.0056225     0.12353    0.023162
0.034206    0.022188    0.010495    0.015692   0.0052977     0.16835    0.025111
0.032582  0.00042559    0.011469    0.033556    0.010495        0.22    0.025111
0.02706   -0.020362    0.013743    0.053369    0.020564     0.26092     0.02706
0.015367   -0.033354    0.011794    0.071558    0.036479     0.27846    0.029009
0.0010752   -0.032705   0.0039985      0.0852    0.057592     0.26677    0.025761
-0.010618   -0.020687  -0.0047713    0.092996    0.082602     0.22487    0.017316
-0.016789  -0.0050961  -0.0083442     0.09397     0.10924     0.16705   0.0072465
-0.019063   0.0075714  -0.0076946    0.093321     0.13327     0.10761  0.00042559
-0.020687    0.014068  -0.0054209    0.091696     0.15081    0.050446  -0.0021729
-0.022636    0.016341  -0.0063954    0.086824     0.15861  -0.0063954  0.00042559
-0.026209    0.013093   -0.012242    0.070909     0.15633   -0.063886   0.0039985
-0.03173   0.0065969   -0.018738    0.040702     0.14886    -0.11098   0.0049729
-0.044073 -0.00087364   -0.023285  -0.0015233     0.13912    -0.13924  0.00042559
-0.062912   -0.010293   -0.021986   -0.044073     0.12353    -0.13924   -0.010293
-0.083375    -0.02361   -0.021661   -0.079152    0.096244    -0.11586   -0.026209
-0.098316   -0.041799   -0.022636    -0.10481    0.059541   -0.080451   -0.047321
-0.10026   -0.067134   -0.027508     -0.1217    0.021538   -0.047646   -0.067134
-0.082725    -0.09994   -0.034978    -0.12917   -0.010943    -0.02361   -0.078503
-0.048296    -0.12787   -0.041475    -0.12365   -0.032055  -0.0076946    -0.07428
-0.0083442    -0.13177   -0.040175    -0.10319   -0.038227   0.0052977    -0.05804
0.025761   -0.096367   -0.028807   -0.072006   -0.032705    0.011144   -0.042124
0.046873   -0.019712  -0.0096434   -0.039526    -0.02361   0.0049729   -0.034004
0.053369    0.079029    0.012768    -0.01614   -0.011592   -0.011592   -0.035628
0.051096     0.16998    0.029333  -0.0073698  0.00075039   -0.041799     -0.0405
0.0433     0.22422     0.03518   -0.015165    0.008221   -0.080451   -0.044073
0.029009     0.23039    0.029658    -0.03238    0.003024    -0.11683   -0.043099
0.0078962     0.19401    0.017316   -0.050244   -0.018738    -0.13859   -0.037902
-0.014191     0.13262   0.0017248   -0.057065   -0.053817    -0.14152   -0.037577
-0.029132    0.066362   -0.012892   -0.055766   -0.096692    -0.12333   -0.044723
-0.037577   0.0085458   -0.026209    -0.04927    -0.13989   -0.092469   -0.059014
-0.037902   -0.034654   -0.038876   -0.039851    -0.18471   -0.063886   -0.077853
-0.03238   -0.062587   -0.047971   -0.030756    -0.23084    -0.04927    -0.10091
-0.02426   -0.077853   -0.047321   -0.024909    -0.27469   -0.053168    -0.11715
-0.020037   -0.082725   -0.036927   -0.019388    -0.30912    -0.06551    -0.12235
-0.025559     -0.0824   -0.021661   -0.011592    -0.32568   -0.065186    -0.11618
-0.041799   -0.082725  -0.0073698 -0.00022403    -0.32795   -0.036602    -0.10189
-0.063561   -0.091495 -0.00054884    0.011469    -0.32146    0.021538   -0.084349
-0.083375    -0.11521  -0.0041217    0.019264    -0.31399    0.098517   -0.071682
-0.093444    -0.14574   -0.012567    0.025111    -0.30457     0.16965    -0.06616
-0.088572    -0.16133   -0.016464     0.02706    -0.28411     0.21058   -0.067459
-0.074605    -0.14152  -0.0089938    0.027385    -0.24935     0.20668   -0.073306
-0.067459   -0.087597    0.011794    0.029333    -0.20096     0.16868   -0.083375
-0.076554   -0.018738     0.04395    0.037454    -0.14184     0.12613   -0.097017
-0.10644    0.041027    0.080003    0.048822   -0.077853     0.10274    -0.11131
-0.14931    0.073507     0.11086    0.060515   -0.021986     0.10242     -0.1217
-0.19089    0.078379     0.12807     0.06961    0.016991     0.11833    -0.12852
-0.21297    0.063438     0.12483    0.071883    0.031282      0.1362    -0.13664
-0.20388    0.037778    0.098842    0.065712    0.019264     0.14237    -0.14834
-0.15808    0.019589    0.058566     0.05207  -0.0073698     0.14042    -0.15646
-0.081426    0.030308    0.023162    0.036479    -0.03303     0.14432    -0.14736
0.0043233    0.072858   0.0072465    0.027385   -0.046022     0.16803    -0.11521
0.069934     0.13165    0.011469    0.030633     -0.0405     0.21382   -0.063561
0.094945     0.18004    0.025111    0.049147   -0.013866     0.26807  -0.0031473
0.076106     0.18784    0.034206    0.080328    0.039078     0.31484    0.062139
0.025111     0.14107    0.035505     0.11963     0.12385     0.33693     0.13392
-0.03173    0.053694    0.033231     0.16315     0.23721       0.334      0.2135
-0.072331   -0.041475    0.031932     0.20895     0.36713     0.31549      0.2986
-0.084674    -0.11488    0.038103     0.25702     0.50258     0.29243     0.37558
-0.064211    -0.14281    0.048172     0.29827     0.63218     0.27196     0.42138
-0.017764    -0.11163    0.059216     0.32686     0.74294      0.2489     0.41975
0.045899   -0.023285    0.066037      0.3431     0.82056      0.2096     0.37071
0.11801     0.10371     0.06961     0.34894     0.85272     0.14139     0.29048
0.18946     0.23136    0.067336      0.3431      0.8381    0.044275     0.20018
0.25378     0.32198     0.05142     0.32556     0.78451   -0.068434      0.1206
0.29827     0.35057    0.019264     0.29892     0.69909    -0.17822    0.068635
0.31127     0.32231   -0.028482     0.26579     0.58118    -0.26722    0.047847
0.28918     0.25865    -0.08305     0.23396     0.43859    -0.32276    0.050121
0.24468     0.18199    -0.13469     0.20895     0.29892    -0.34127    0.061489
0.19628     0.10859      -0.174     0.18654     0.17907    -0.32763     0.06896
0.16056    0.041676    -0.19771     0.16413    0.066686    -0.28865    0.064413
0.13944   -0.013541    -0.20745     0.14626   -0.067459    -0.23668    0.047523
0.12613   -0.050894     -0.2042     0.13879    -0.22207    -0.18244    0.019264
0.11151    -0.06551    -0.19154     0.14237    -0.36985    -0.13762   -0.013216
0.088448   -0.056416    -0.17367     0.14854    -0.48386    -0.10351   -0.042124
0.053044   -0.033679    -0.15321     0.14009      -0.555   -0.081426   -0.059014
0.0069217   -0.014191    -0.13534     0.10534    -0.60047   -0.079152   -0.064211
-0.043099   -0.011592    -0.12463    0.037129    -0.65244    -0.10286   -0.063561
-0.086623   -0.029457    -0.12235   -0.055441    -0.72649    -0.15743   -0.065186
-0.11813   -0.061288    -0.12333     -0.1597    -0.81776    -0.24091   -0.071357
-0.13892   -0.096042    -0.12398    -0.26169    -0.90871    -0.34647   -0.077528
-0.15353    -0.12592    -0.11975    -0.35199     -0.9636    -0.46145   -0.085973
-0.161    -0.14736    -0.11001    -0.42929    -0.94379    -0.57189   -0.094418
-0.15938    -0.15938   -0.096042    -0.49653    -0.84148     -0.6651   -0.095393
-0.15029    -0.16263   -0.080451    -0.55207    -0.70311    -0.73624   -0.081426
-0.13567    -0.15711   -0.070058    -0.58715    -0.61703    -0.78333   -0.052518
-0.12268    -0.14281   -0.059014    -0.59007    -0.65114    -0.80542    -0.01549
-0.11261    -0.12463   -0.044723    -0.55402    -0.78951    -0.80412    0.020239
-0.10546    -0.10936   -0.025559    -0.48451    -0.91845    -0.77944    0.042975
-0.098965    -0.10091  -0.0034721    -0.39811    -0.89344    -0.72747    0.041676
-0.088896   -0.094418    0.014392    -0.31139    -0.64529    -0.64789     0.01894
-0.06681   -0.082076    0.027385    -0.22954    -0.24513    -0.54233   -0.015165
-0.030106   -0.059989     0.03583    -0.15451     0.14854    -0.41955   -0.051544
0.0095202   -0.029782     0.04395   -0.089221      0.3889     -0.2932     -0.0837
0.040377   0.0010752    0.051745   -0.034978     0.42203    -0.17465    -0.10806
0.055643    0.028034     0.06084   0.0075714     0.28268   -0.069733    -0.11975
0.057267      0.0433    0.069934    0.041676    0.064413    0.021538    -0.11261
0.048497    0.037778    0.070584    0.063763     -0.1282     0.10047   -0.090521
0.036154   0.0065969    0.054019    0.071558    -0.21232     0.16738   -0.063886
0.01829   -0.043748    0.019589     0.06896    -0.15646     0.22422   -0.039851
-0.0054209   -0.098641   -0.026209    0.065387    0.014068     0.27261   -0.022636
-0.032055    -0.13469   -0.071357    0.071558     0.24501     0.31257  -0.0099683
-0.053168    -0.14249    -0.10644    0.087474     0.47854     0.33855  0.00075039
-0.059664     -0.1243    -0.12268     0.10014     0.67408     0.34992   0.0095202
-0.054792   -0.097666    -0.12625    0.096893     0.80497     0.34764    0.016666
-0.042449   -0.078827      -0.123    0.068635     0.86084      0.3405    0.017965
-0.027833   -0.077528    -0.11521    0.010819     0.84493     0.33368    0.009845
-0.012567   -0.088247    -0.10481   -0.071032     0.77477     0.32913  -0.0076946
-0.0050961   -0.092469   -0.092469    -0.16035     0.68122     0.32263   -0.031406
-0.0099683   -0.073955   -0.077853    -0.23506     0.59515     0.31224   -0.055441
-0.025559   -0.029132   -0.060963    -0.28086     0.53701     0.29827   -0.075579
-0.04115    0.028034   -0.046022    -0.29905      0.5133     0.28561   -0.089221
-0.043099    0.077405   -0.036602    -0.29677     0.51427     0.27651   -0.090521
-0.030431     0.10501   -0.027508    -0.27696     0.52402     0.27326   -0.081101
-0.010293     0.10729   -0.010943    -0.23506     0.52337     0.27489   -0.069408
0.0056225    0.096244    0.015692    -0.16782     0.49576     0.27749   -0.063237
0.011794    0.079354    0.050121   -0.071682     0.44346     0.28008   -0.063237
0.009845    0.065062    0.084876    0.054993      0.3798     0.28333   -0.064211
0.0072465    0.057592     0.11183     0.20083     0.31906     0.28593   -0.059339
0.0062721    0.056942     0.13067      0.3444     0.27164     0.28561   -0.046996
0.011144    0.060515     0.14204     0.46587     0.23429     0.28268   -0.026858
0.022837    0.063763     0.14756     0.55162     0.20148     0.27846  -0.0054209
0.03453    0.062139     0.14691     0.59645     0.16933     0.27099    0.012119
0.044924    0.056942     0.14334     0.60359     0.14269      0.2554    0.020564
0.056942    0.050121     0.14009     0.57923     0.12678     0.22877     0.01829
0.070584    0.041676     0.13457     0.53441     0.12678     0.19466   0.0095202
0.077405    0.029983      0.1284     0.48082     0.14172     0.16283  0.00075039
0.072208    0.016341     0.12255     0.41975     0.16445     0.14269  -0.0076946
0.058566   0.0036737     0.11963     0.34375     0.18492     0.13652    -0.01549
0.040377  -0.0015233     0.11638     0.24663     0.19661     0.14432   -0.026858
0.023162   0.0039985     0.10696      0.1219     0.19791     0.15471   -0.040825
0.0091954    0.017965     0.09397   -0.022311     0.19044     0.15763   -0.053492
-0.0041217     0.03453    0.084876    -0.17367     0.18264     0.15114   -0.061613
-0.016789    0.046548    0.080978    -0.31951     0.17842     0.14042   -0.061613
-0.022961    0.051745     0.08585    -0.44229     0.17939      0.1323   -0.054792
-0.015815    0.054993    0.099167    -0.51797     0.18264     0.12937   -0.041799
0.0033489    0.061489     0.11963    -0.53226     0.18557     0.13002   -0.027508
0.024786    0.072208     0.14172    -0.48873     0.18297     0.12905   -0.010943
0.0433    0.080653     0.15763    -0.40071     0.17225      0.1232   0.0052977
0.050121    0.081303     0.16478    -0.29158     0.15211     0.11411    0.019589
0.044924    0.075131     0.16056    -0.18179     0.11898    0.098842    0.028359
0.030308    0.064737     0.14691   -0.089221    0.069285     0.07773    0.032257
0.013093    0.052395       0.131   -0.021337   0.0026992    0.054668    0.031607
-0.0037969    0.041351     0.11995    0.027709    -0.07493    0.031932     0.02706
-0.016789    0.035505     0.11378     0.06961    -0.15743    0.014068    0.020564
-0.021986    0.033556     0.10956     0.11346    -0.24091   0.0043233    0.012768
-0.021012     0.03583     0.10404     0.15958    -0.32925 -0.00087364   0.0033489
-0.019063    0.042326    0.097543     0.20765    -0.43189  -0.0099683  -0.0067202
-0.017439    0.049147    0.092996      0.2489    -0.54687   -0.025559   -0.016464
-0.0099683    0.053694    0.091372     0.28008    -0.64919   -0.042774   -0.021012
0.008221    0.058241    0.092346     0.30347    -0.70571   -0.055766   -0.017764
0.034855    0.060515    0.093321     0.31874    -0.70246   -0.059664  -0.0024977
0.060515    0.062464    0.089423     0.32913    -0.64432   -0.053168    0.023162
0.078055    0.064413    0.080978     0.33595    -0.55077   -0.042449    0.049796
0.084551    0.065712    0.069934     0.33563    -0.44456   -0.035303    0.069934
0.078055    0.061814    0.058566     0.32621    -0.34355   -0.038551    0.079679
0.059541    0.050446    0.049147     0.30899    -0.26332   -0.053492    0.080003
0.038103    0.035505    0.041351     0.29015    -0.20615   -0.075579    0.075781
0.026085    0.022512     0.03518     0.27586    -0.16815   -0.091495    0.066362
0.021863    0.010819    0.030633     0.26157    -0.14541   -0.095717    0.050446
0.023162   0.0039985    0.024461     0.24566    -0.13372   -0.090845    0.031932
0.023487   0.0026992    0.017965     0.22682    -0.12755   -0.080776    0.015692
0.016016    0.003024    0.014392       0.207    -0.12333   -0.072656   0.0056225
-0.00054884   0.0052977     0.01017     0.18784    -0.12235   -0.071357   0.0026992
-0.020687   0.0043233   0.0020496     0.16965     -0.1256   -0.075904   0.0065969
-0.036278      0.0014  -0.0099683     0.15601    -0.12917   -0.079477    0.012768
-0.038876  0.00010078    -0.02426     0.14854     -0.1295   -0.075904    0.022188
-0.030106  0.00042559   -0.035628     0.14237    -0.12852   -0.063237    0.038428
-0.013216   0.0020496   -0.043099     0.13587    -0.12657   -0.041799     0.06019
0.0014   0.0020496    -0.04862      0.1297     -0.1256   -0.017439    0.082277
0.0075714   0.0020496   -0.051868      0.1232    -0.12333  -0.0018481     0.10112
0.00010078  0.00075039   -0.056091     0.11346    -0.11553  -0.0041217     0.11118
-0.017764  0.00075039   -0.065186    0.099492    -0.10189   -0.021661     0.10891
-0.037577   0.0010752   -0.076554    0.080978   -0.090196   -0.044398    0.094295
-0.053168  0.00075039   -0.087597    0.059541   -0.080127   -0.062587    0.074482
-0.059339  -0.0031473   -0.094093    0.037778   -0.069733   -0.072656    0.058566
-0.056741   -0.011592   -0.093769     0.01764   -0.060638    -0.07493    0.051745
-0.048945   -0.023285   -0.087922   0.0017248   -0.056741   -0.073631    0.048822
-0.037252   -0.035953   -0.077853  -0.0083442   -0.058365   -0.075904    0.044924
-0.021661   -0.046996   -0.070058   -0.011917   -0.064861   -0.082076    0.036804
-0.0093186   -0.052843   -0.069083   -0.013541   -0.073306   -0.088247    0.022188
-0.0018481   -0.051544   -0.076879   -0.017764   -0.081751    -0.09929   0.0072465
0.0023744   -0.046671   -0.085324   -0.030431   -0.088896    -0.11943  -0.0044465
0.0072465   -0.040825   -0.088247   -0.049595   -0.092145    -0.14736  -0.0057458
0.0088706   -0.034978   -0.089871   -0.066485   -0.091495    -0.17724   0.0033489
0.008221   -0.029457    -0.09117   -0.073306   -0.087597    -0.19933    0.021213
0.0078962   -0.023285   -0.090845   -0.068109   -0.084999    -0.21005    0.049472
0.0085458   -0.017114   -0.089221   -0.059014   -0.081101    -0.20778    0.088773
0.012119   -0.013541   -0.086623   -0.054142   -0.072656    -0.19901      0.1362
0.025111    -0.01484    -0.08305   -0.055441   -0.058365    -0.19024     0.17874
0.047847   -0.020037   -0.078178   -0.061937   -0.045372    -0.19706     0.20733
0.073182   -0.025884   -0.072656   -0.075255   -0.038876    -0.22434     0.21512
0.089748   -0.026533   -0.067784   -0.093119   -0.039201    -0.26592     0.20376
0.095919   -0.018738   -0.061613    -0.10644   -0.044073    -0.30424      0.1781
0.092346   -0.010618   -0.055441    -0.11228   -0.050894    -0.32048     0.14594
0.080978   -0.007045   -0.050569    -0.11423   -0.054792    -0.30912     0.11508
0.063438   -0.011592   -0.047646    -0.11975   -0.053817    -0.27404    0.089748
0.045899   -0.020362   -0.048945    -0.12885   -0.048945    -0.22597    0.070909
0.033881   -0.030106   -0.054792    -0.13762   -0.041799    -0.17854    0.055643
0.02641   -0.037252   -0.062912    -0.14249   -0.033679    -0.14119    0.042326
0.01894   -0.038876   -0.072981    -0.14574   -0.028157    -0.11975    0.029333
0.0059473   -0.035628    -0.08305    -0.14671   -0.022636    -0.11163    0.017316
-0.008669    -0.03173   -0.089871    -0.14606   -0.019063    -0.10611   0.0049729
-0.019388   -0.030431   -0.095068    -0.14314    -0.02426   -0.093769  -0.0076946
-0.021337   -0.030106   -0.098316    -0.13859   -0.036602   -0.073306   -0.019388
-0.015165   -0.027508   -0.096367    -0.13177    -0.04992   -0.047646   -0.025559
-0.0060706   -0.021986   -0.088247    -0.12495   -0.061288   -0.019712    -0.02426
0.0014   -0.016464   -0.077853    -0.11813   -0.067134   0.0078962   -0.017439
0.0046481   -0.010293   -0.069408    -0.11033   -0.068109    0.033231  -0.0099683
0.0043233  0.00042559   -0.064211    -0.10319   -0.062912     0.05272  -0.0044465
0.0023744    0.014068   -0.059014    -0.09929   -0.046671    0.061165  0.00075039
0.00042559     0.02706   -0.053817    -0.10059   -0.021661    0.061489   0.0039985
-0.0011985     0.03518   -0.051219    -0.10254    0.009845    0.055968   0.0020496
-0.0011985    0.034855   -0.050894    -0.10514    0.041676    0.047847   -0.011592
0.0017248    0.027385   -0.054142    -0.11066    0.063763    0.037129   -0.035628
0.0069217    0.018615   -0.057065    -0.12008    0.072533    0.026735    -0.06616
0.01017    0.010495   -0.059339    -0.13177    0.069285    0.020564   -0.094093
0.0075714  -0.0021729   -0.058689    -0.13989    0.059865    0.020564    -0.11326
-0.0018481   -0.018088   -0.057715    -0.14411    0.051096     0.01764    -0.11845
-0.016464   -0.034329   -0.059664    -0.14184    0.043625   0.0062721    -0.11261
-0.03238   -0.045697   -0.061937    -0.13469    0.040377   -0.010618    -0.10481
-0.046022   -0.048945   -0.064536    -0.12268    0.042975   -0.026209   -0.094418
-0.054142   -0.043099   -0.061937    -0.10871    0.050771   -0.035628   -0.082725
-0.053492   -0.031406    -0.05739   -0.095393    0.059541   -0.037577   -0.071357
-0.044398   -0.020037   -0.054467   -0.086948    0.067011   -0.033354   -0.059339
-0.030756   -0.011592   -0.051868   -0.084999    0.072858   -0.028482    -0.04862
-0.018413  -0.0073698   -0.049595   -0.089871     0.06896   -0.027508   -0.042449
-0.012892  -0.0041217   -0.048296   -0.095717     0.04395   -0.029457   -0.044723
-0.014191  -0.0018481    -0.04115    -0.10254   -0.011267   -0.029782   -0.058365
-0.019063  -0.0018481   -0.029457    -0.10189   -0.087597   -0.016789   -0.081751
-0.02426  -0.0044465   -0.015165   -0.090845    -0.16523    0.016341    -0.11293
-0.024585  -0.0089938 -0.00022403   -0.073955    -0.22629    0.063438    -0.14736
-0.019712   -0.017114    0.012443   -0.060963     -0.2539     0.11248    -0.18082
-0.013541    -0.03173    0.020888   -0.054142    -0.24773     0.14919     -0.2094
-0.013866   -0.058689     0.01829   -0.054142    -0.21167     0.16705    -0.22661
-0.023285    -0.10026   0.0052977   -0.061937    -0.15581     0.16803    -0.23246
-0.044073    -0.14899   -0.015165   -0.073306   -0.087597     0.15211    -0.22791
-0.069083    -0.18666   -0.038876   -0.087272   -0.019388     0.11833    -0.21492
-0.091495    -0.19121   -0.060313    -0.10384    0.032906     0.06961    -0.19803
-0.11066    -0.15126   -0.072981    -0.11878    0.061165    0.010819    -0.18634
-0.1308   -0.073631   -0.072981    -0.12852    0.064088   -0.049595    -0.18147
-0.15418    0.016341   -0.066485    -0.13047    0.050771    -0.10449    -0.17659
-0.1714    0.089098   -0.060638    -0.12398    0.035505    -0.14639    -0.16133
-0.16912     0.11963   -0.053492    -0.10838    0.032582    -0.16718    -0.13275
-0.15029     0.10209   -0.044073   -0.084349    0.040702    -0.15938   -0.098965
-0.13307    0.044924   -0.034329   -0.058365    0.054668    -0.12268   -0.064211
-0.12657   -0.033354   -0.029782   -0.035303    0.069285   -0.061613   -0.029132
-0.12657    -0.11163   -0.033354   -0.021337    0.080653    0.014068    0.012119
-0.11878    -0.17562   -0.038876    -0.01549    0.089748    0.084551    0.061814
-0.090521    -0.20875   -0.036927   -0.010943    0.098193     0.12743     0.11898
-0.034654    -0.19543   -0.015815  0.00010078     0.10729     0.13067     0.17582
0.045574    -0.13242     0.02641    0.019264     0.12158    0.099492     0.22649
0.13717   -0.032705    0.083251    0.042651     0.14367     0.05272     0.26287
0.2122    0.075781     0.14107    0.063438      0.1729     0.01017     0.27716
0.24858     0.16835     0.18362    0.076106     0.20116   -0.018413     0.26937
0.23721     0.23201     0.19921    0.076755     0.21317   -0.043423      0.2476
0.18329     0.26255     0.18134    0.066037     0.19401   -0.079152     0.21967
0.10079     0.26547     0.13977    0.046873     0.14626    -0.12852     0.18979
0.011144     0.24825    0.090072    0.026735    0.086175    -0.18666     0.16023
-0.068758     0.21902    0.046873    0.014068    0.041027    -0.24221     0.13035
-0.12885     0.18134    0.017965    0.012119    0.023162    -0.27761     0.10014
-0.16653     0.13717    0.003024    0.022512     0.03518    -0.27793    0.073832
-0.18536    0.089423  0.00010078    0.037778    0.066037    -0.24383    0.052395
-0.18894    0.042651   0.0059473    0.054019     0.10014    -0.18601    0.035505
-0.18212  -0.0011985    0.016016    0.065712     0.12385     -0.1191     0.01764
-0.16977   -0.041475    0.022837    0.070259     0.13197   -0.056741  -0.0041217
-0.15353   -0.080451    0.016016     0.06831     0.11963  -0.0080194   -0.028807
-0.13567    -0.11651  -0.0089938     0.06019    0.084876    0.025761   -0.056091
-0.12398    -0.14541   -0.045697    0.047198    0.033881    0.047523   -0.080127
-0.11748    -0.15776   -0.071682    0.035505   -0.020362    0.062139   -0.097017
-0.11163    -0.14639   -0.070058    0.036154   -0.070707    0.074482    -0.10319
-0.097341    -0.11293   -0.039851    0.053369     -0.1178    0.083251   -0.098965
-0.070707   -0.066485   0.0046481    0.079679     -0.1688    0.082927   -0.088247
-0.030431   -0.022961     0.04395     0.10177    -0.23084    0.074806   -0.070382
0.018615   0.0075714    0.069285     0.11638    -0.29742     0.06084   -0.050894
0.068635    0.025436     0.07773     0.12353    -0.35459    0.043625   -0.034004
0.11248    0.032582    0.070259     0.12353    -0.38382    0.022837    -0.02426
0.14854    0.030633    0.049147     0.11638    -0.37895   0.0033489   -0.021337
0.1755    0.024461    0.021538     0.10891    -0.34517  -0.0028225   -0.018738
0.19239    0.024461 -0.00022403     0.10501    -0.29482   0.0095202   -0.017764
0.19044    0.038103  -0.0096434     0.10274    -0.24026    0.037454   -0.019063
0.16445    0.059541  -0.0099683    0.095919    -0.18666    0.066037   -0.020362
0.12223    0.079029  -0.0080194    0.078379    -0.13437    0.087474   -0.020037
0.079679    0.089423   -0.008669    0.051745     -0.0837     0.10501   -0.014191
0.044275    0.097218   -0.010943    0.025111   -0.029132     0.12385  -0.0018481
0.01017     0.10859   -0.011917   0.0010752    0.036804     0.15406    0.020239
-0.020687     0.12515   -0.012892   -0.013541     0.11898     0.19693    0.047523
-0.044398     0.14172   -0.010943   -0.013866     0.21642     0.24241    0.074157
-0.054467     0.15081 -0.00087364 -0.00054884     0.31516     0.27814    0.096244
-0.051868     0.14626    0.012119     0.01829     0.39961       0.296     0.10664
-0.040825     0.12353    0.018615    0.031607     0.46068     0.29762     0.10274
-0.02426      0.0865    0.012768    0.037454     0.49576     0.28723    0.084876
-0.0050961    0.045899  -0.0015233    0.037778     0.50972     0.27002    0.055968
0.016341    0.015042   -0.020362    0.035505     0.51654     0.24988    0.019914
0.042326   0.0046481    -0.03173    0.038753     0.52369     0.23136   -0.013866
0.075456    0.014392   -0.033354    0.053369     0.53019      0.2122   -0.034654
0.11768    0.039402   -0.023285    0.079354     0.52824     0.19044   -0.039201
0.16348    0.065062  -0.0047713     0.10794     0.51362     0.16575   -0.034329
0.2044    0.083576    0.013418      0.1323     0.48601     0.13555   -0.030106
0.22065    0.089423    0.028359     0.14951     0.45353     0.10469   -0.027833
0.20408    0.080653    0.037778     0.15991     0.42917    0.080328   -0.026209
0.16185    0.062789    0.036479     0.16413     0.42625    0.063763   -0.020687
0.11378    0.042975    0.026085     0.16088     0.43762     0.05207   -0.012242
0.073832    0.026085   0.0085458     0.15309     0.43924    0.036154  -0.0028225
0.051745    0.013093  -0.0096434     0.14107     0.38402   0.0046481   0.0043233
0.047198   0.0052977   -0.024585     0.12353     0.22454    -0.04927   0.0036737
0.051096  0.00010078   -0.038551     0.10047   -0.050569    -0.12787  -0.0047713
0.051745  -0.0063954    -0.04927     0.06961    -0.41338    -0.21622   -0.018413
0.041676   -0.017764   -0.054467    0.031282    -0.80315      -0.301   -0.031406
0.022837    -0.03173   -0.047971   -0.022311     -1.1439    -0.36368   -0.037902
-0.00022403   -0.046671   -0.031406   -0.093119     -1.3628    -0.38739   -0.036278
-0.021337   -0.058365   -0.007045     -0.1714     -1.4245    -0.36791   -0.025884
-0.034004   -0.063561    0.019914    -0.24415     -1.3284    -0.31659   -0.010293
-0.034329   -0.060963    0.044599    -0.30165     -1.1185     -0.2539   0.0052977
-0.028807   -0.053492    0.056617    -0.34257    -0.85252    -0.19316    0.017316
-0.02426   -0.044723    0.051096    -0.36596    -0.59202    -0.14639     0.01764
-0.022636   -0.037252    0.032906    -0.36693    -0.37635      -0.123   0.0072465
-0.023285   -0.035303    0.014068     -0.3442    -0.22856     -0.1256  -0.0096434
-0.029457     -0.0405   0.0046481     -0.2971    -0.15191    -0.14119   -0.025559
-0.037577   -0.051868   0.0056225    -0.22889    -0.13112    -0.15321   -0.038876
-0.037902   -0.064861    0.015692    -0.15061    -0.13762    -0.15223   -0.047971
-0.03303   -0.073631    0.030308   -0.076229    -0.14509    -0.13372   -0.055116
-0.022636    -0.07428    0.044599   -0.015165    -0.13502   -0.096367   -0.060638
-0.011917   -0.069083     0.05272    0.028359    -0.10351   -0.041799    -0.06551
-0.0054209   -0.061613    0.055318    0.051096    -0.05804    0.027385   -0.070707
-0.0060706   -0.054792    0.054019    0.049796  -0.0024977     0.10306   -0.077528
-0.0089938   -0.052843    0.048172    0.026735    0.055318      0.1664     -0.0837
-0.013866   -0.051544    0.041351   -0.011267     0.11281     0.19693   -0.085973
-0.019063   -0.046671    0.037778   -0.051544      0.1625     0.18816   -0.081751
-0.02426   -0.037577    0.038103     -0.0824     0.19823     0.14951   -0.071682
-0.025884   -0.027833    0.036479   -0.098316     0.21902    0.096569    -0.05804
-0.024909   -0.019063    0.029658   -0.096367     0.23039    0.043625   -0.045697
-0.022636    -0.01614    0.021213   -0.077203     0.23916  -0.0018481     -0.0405
-0.023285   -0.018413    0.012768   -0.046022     0.24306   -0.042774   -0.043748
-0.029782   -0.022311   0.0059473   -0.011917     0.23981   -0.084349   -0.054142
-0.042774   -0.027508  -0.0028225    0.017965     0.22194    -0.12657   -0.066485
-0.059664    -0.03303    -0.01484    0.039402     0.19174    -0.16718   -0.076229
-0.073631   -0.036927   -0.025559    0.059541     0.16023    -0.19478   -0.077528
-0.079802   -0.038551   -0.030431    0.086175      0.1362    -0.19219   -0.068434
-0.077853   -0.035628   -0.028807     0.12483       0.131    -0.14964    -0.04927
-0.070382   -0.029132   -0.026533     0.17387     0.14756    -0.06681   -0.026209
-0.059014    -0.02361   -0.027183     0.22617     0.17972    0.039402  -0.0021729
-0.043748   -0.021012   -0.029782     0.27229     0.21512     0.15081     0.01829
-0.026209   -0.019712    -0.03238     0.30769     0.23786     0.24695    0.033231
-0.0076946    -0.01614   -0.032705     0.32881     0.23689     0.31809    0.040702
0.009845   -0.008669   -0.030106      0.3379     0.21642     0.36031    0.043625
0.020239    0.003024   -0.022311     0.33465     0.18751     0.37558    0.046548
0.025761    0.017965  -0.0096434     0.31971     0.15958      0.3733    0.051096
0.030957    0.035505    0.003024     0.29373     0.13555     0.36031    0.061165
0.03583    0.049147    0.013093     0.26709     0.11313      0.3444    0.075781
0.040052    0.054019    0.021538     0.24695    0.084551     0.32718    0.092996
0.044924    0.051745    0.030633     0.23364    0.041676     0.31192     0.10859
0.047198    0.046223    0.041027     0.22714   -0.020687      0.2934     0.11703
0.046548    0.040702    0.047847     0.22227   -0.097991     0.26092     0.11671
0.044924    0.036154    0.046873     0.21545    -0.18439     0.20863     0.10729
0.045574    0.033556    0.039402     0.20765    -0.26624     0.13749    0.092021
0.046548    0.030957    0.028684     0.19563     -0.3286    0.054993    0.081952
0.046223    0.028359    0.020239     0.17712    -0.35914    -0.03173    0.079029
0.046223    0.024786    0.020564     0.15244    -0.35654    -0.11943    0.078379
0.046873    0.021538    0.028359     0.11963    -0.32373    -0.20875    0.074482
0.043625    0.018615    0.040052    0.076106    -0.26787    -0.29872    0.064737
0.033881    0.019264    0.048172     0.02706    -0.19543    -0.39032    0.051745
0.012768    0.021538    0.048497   -0.022961    -0.11845    -0.47899    0.034855
-0.012567    0.019264     0.04395   -0.070707   -0.046347    -0.55629    0.015692
-0.030431   0.0095202      0.0433    -0.11066    0.016341    -0.61151  -0.0021729
-0.036927  -0.0054209    0.049796     -0.1321    0.067011    -0.63717   -0.011917
-0.034329   -0.018738    0.061165     -0.1321     0.10794    -0.62905   -0.012242
-0.027833   -0.021337     0.06831    -0.11066      0.1336    -0.58098  -0.0015233
-0.020362   -0.013541    0.067661   -0.080127     0.14724    -0.49166    0.015367
-0.0096434   0.0020496    0.061489   -0.051544     0.15536    -0.37083    0.030308
0.0036737    0.020239     0.05142   -0.028157     0.15926    -0.24058    0.041351
0.019264     0.03518    0.042001  -0.0063954     0.16121    -0.12755    0.046873
0.031932    0.043625    0.034855    0.015042     0.16088   -0.045372    0.048172
0.039727    0.045249    0.027709     0.03453     0.15633   0.0017248    0.046873
0.041676    0.044275     0.01894    0.046873     0.14919    0.023812    0.045574
0.039727    0.042326   0.0072465    0.045574     0.14237    0.033556    0.045249
0.033556     0.03583  -0.0024977    0.029009     0.13425      0.0433    0.048172
0.021863    0.025761  -0.0044465  0.00075039     0.12807    0.064413    0.054668
0.0072465    0.015367      0.0014    -0.03238     0.12645    0.094295     0.06084
-0.0054209   0.0065969   0.0069217   -0.068758     0.13295     0.12548    0.058566
-0.013216      0.0014   0.0036737    -0.10416     0.14886     0.14756    0.048497
-0.020037 -0.00054884  -0.0099683    -0.13372     0.17192     0.15633     0.03518
-0.027508  0.00075039   -0.026533    -0.14866     0.19336     0.15114    0.021213
-0.033354   0.0023744   -0.038876    -0.14281     0.19823     0.13749    0.010819
-0.035628   0.0033489   -0.043099    -0.11748     0.18232     0.12255   0.0033489
-0.034004   0.0043233    -0.04115   -0.080776     0.14594     0.11151  -0.0041217
-0.029457    0.008221   -0.037902   -0.046996    0.097218     0.10047   -0.016464
-0.025234    0.015692   -0.033354   -0.023285    0.045574     0.08585   -0.032705
-0.023285    0.022837   -0.030431  -0.0044465  -0.0021729    0.068635   -0.050569
-0.02426    0.023812   -0.029132    0.012768     -0.0405    0.047198   -0.064536
-0.022636    0.018615    -0.02426    0.032582   -0.062262    0.022837   -0.069083
-0.01614    0.011469    -0.01484     0.05142   -0.060963  -0.0018481   -0.065835
-0.008669   0.0065969   -0.008669     0.06831   -0.035303   -0.024585   -0.060638
-0.0067202   0.0065969    -0.01614      0.0852    0.013093   -0.046022    -0.05804
-0.013216     0.01017    -0.03173     0.10306    0.080978   -0.070707   -0.058365
-0.027183    0.014392   -0.043748     0.11898     0.16218    -0.10091   -0.055116
-0.04115    0.018615   -0.047971      0.1284     0.24078     -0.1308    -0.04862
-0.046996    0.020239   -0.044723       0.131     0.30087    -0.14346   -0.044398
-0.040175    0.021538   -0.035953     0.12483     0.32751     -0.1217   -0.043748
-0.02426    0.024137   -0.024585     0.10826      0.3051   -0.064211   -0.045047
-0.016464    0.024137   -0.014191    0.080328     0.22909    0.014717   -0.047646
-0.028807    0.015367   -0.010943    0.044924     0.11216    0.089748   -0.056741
-0.060638  0.00010078    -0.01484   0.0059473    -0.01549     0.14139   -0.070382
-0.10254   -0.020037   -0.027183   -0.025559    -0.11651      0.1664   -0.079477
-0.14184   -0.036927   -0.039526   -0.046347    -0.16945     0.17387   -0.075255
-0.16458    -0.04992   -0.046996   -0.055441    -0.17205     0.18102   -0.049595
-0.15451   -0.060963   -0.051544    -0.05739    -0.14087     0.19499  -0.0021729
-0.10871   -0.071032   -0.055441   -0.053492   -0.092469     0.21415    0.058566
-0.038227   -0.075579   -0.058689   -0.045047   -0.045697     0.23169     0.11671
0.032906   -0.070058   -0.061613   -0.035953  -0.0089938     0.23721     0.15731
0.083901   -0.050569    -0.06616   -0.027183    0.017965     0.22324     0.17095
0.10371   -0.017439   -0.067784   -0.022311    0.030633     0.19141      0.1638
0.098842    0.022188   -0.061288   -0.019712    0.021863     0.14854     0.14951
0.085525    0.054993   -0.040175    -0.01614   -0.013866     0.10014     0.13425
0.075781    0.074157  -0.0076946  -0.0067202   -0.079152    0.045899     0.11898
0.072858    0.076106    0.028034   0.0078962    -0.17432   -0.014191     0.10014
0.072858    0.063438    0.055968    0.021213    -0.30262   -0.081751    0.072858
0.073182    0.041351    0.067986    0.027709    -0.45918    -0.15158    0.040702
0.078704    0.016666    0.063438    0.026735    -0.61314    -0.22012    0.015042
0.091696   -0.007045    0.048497    0.017316    -0.72422    -0.28183   0.0039985
0.10664   -0.028807     0.02641   0.0026992    -0.76547    -0.33348   0.0020496
0.11378   -0.049595  -0.0034721   -0.017114    -0.73754     -0.3744  -0.0015233
0.10729   -0.069733    -0.04115   -0.035953    -0.65731    -0.40006    -0.01484
0.090722   -0.084024    -0.08305   -0.053492    -0.54623    -0.40234   -0.034654
0.064737   -0.079477    -0.11521    -0.06681    -0.42475    -0.37538   -0.046671
0.027385   -0.052843    -0.12722   -0.072656    -0.31204    -0.32113   -0.042449
-0.026533  -0.0096434      -0.123   -0.073631    -0.21979     -0.2448   -0.024585
-0.087922    0.033231    -0.11228   -0.072006    -0.15483    -0.15548  -0.0073698
-0.13827     0.06019    -0.10091   -0.070707    -0.11586   -0.059339   0.0036737
-0.16295    0.063113   -0.093769   -0.069733   -0.094418    0.035505   0.0078962
-0.1623    0.047847   -0.092145    -0.06681   -0.081751      0.1219    0.010819
-0.15093    0.031932   -0.094418   -0.062262   -0.077203     0.19044    0.016016
-0.14411    0.028684   -0.095393    -0.05739     -0.0824     0.23429    0.017965
-0.14899    0.037778   -0.090521   -0.056416   -0.097341     0.24566   0.0075714
-0.15905    0.051745   -0.079477   -0.064536    -0.11196     0.23104    -0.01484
-0.16035    0.059865   -0.067459   -0.083375    -0.10286     0.19953   -0.043423
-0.14444    0.050771   -0.061937    -0.11423   -0.052518     0.15991   -0.069408
-0.11131    0.020564    -0.06616    -0.15191     0.03518     0.12255   -0.087922
-0.072656   -0.037902   -0.082076    -0.18959     0.14237    0.095594   -0.095068
-0.041799     -0.1204    -0.10514    -0.22142     0.24436    0.080328   -0.094093
-0.027833    -0.20843    -0.12105    -0.24513     0.31939    0.069285    -0.09182
-0.038227    -0.27696    -0.12398    -0.26267     0.35512    0.054344   -0.094743
-0.065835    -0.30165    -0.11521    -0.27469     0.36129    0.030633   -0.098641
-0.10156    -0.27469   -0.096042    -0.28346     0.35317  -0.0031473   -0.097017
-0.13015     -0.2094   -0.075255    -0.28833     0.34472   -0.043748   -0.088572
-0.14216     -0.1334   -0.056091    -0.28476     0.34927   -0.088247   -0.075904
-0.12495   -0.067134   -0.043423    -0.26559     0.37525     -0.1178   -0.054142
-0.077853    -0.01549   -0.034654    -0.23376     0.42332    -0.11228   -0.018088
-0.017764    0.032582   -0.018413    -0.19089     0.48049   -0.059664    0.036804
0.036479    0.087149    0.011469    -0.13892     0.52402    0.034855     0.11183
0.074806     0.15211    0.055968     -0.0824     0.53149     0.14691     0.19953
0.095269     0.21772     0.10339   -0.035628     0.48309     0.24078     0.28528
0.10501     0.26417     0.13749  -0.0067202     0.37168     0.29113     0.34862
0.11346     0.27684     0.14724   0.0039985     0.21317     0.29113     0.37753
0.12483     0.25443     0.13132   0.0065969    0.019589     0.24988     0.37168
0.1362     0.20408    0.097543   0.0052977    -0.21005     0.18134      0.3366
0.14009     0.14204    0.062139  0.00042559    -0.47639     0.10729     0.27716
0.1284    0.080978    0.038428  -0.0060706    -0.74273    0.046223     0.20051
0.10436    0.030633    0.027385   -0.012892    -0.94574   0.0078962     0.11963
0.070259  -0.0024977    0.024461    -0.01484      -1.026  -0.0076946    0.046548
0.032906   -0.018088    0.024786  -0.0080194    -0.95971   -0.014516   -0.008669
-0.0015233   -0.018738    0.021213   0.0062721    -0.76969   -0.026533   -0.047971
-0.029457   -0.010618    0.014717    0.024786    -0.51569   -0.050894   -0.075579
-0.043099  -0.0018481    0.012119    0.046548    -0.26559   -0.089546   -0.096692
-0.040175   0.0020496    0.012768    0.070909   -0.071682    -0.13047    -0.11358
-0.017439   0.0052977    0.016016     0.10242    0.046548      -0.161    -0.12917
0.019914    0.014717    0.020564     0.14464     0.10339    -0.16977    -0.13892
0.072208    0.039402    0.029333     0.19596     0.11118     -0.1597    -0.13762
0.12905    0.076106    0.041027     0.24695    0.065062    -0.13664    -0.12527
0.18037     0.11118     0.05272     0.28788   -0.045372    -0.11358    -0.10286
0.21252      0.1271    0.059541     0.31386    -0.19803   -0.096367   -0.074605
0.21675     0.11931    0.055643     0.32491    -0.33705   -0.086948   -0.052193
0.19141     0.09397    0.040702     0.32588    -0.40786   -0.080776     -0.0405
0.14919    0.062464    0.020888     0.31939    -0.38739   -0.072981   -0.046996
0.10761    0.034855   0.0023744     0.30445    -0.28995   -0.065186   -0.065835
0.077405    0.017965   -0.011917     0.27781    -0.15223   -0.060313   -0.084999
0.061489   0.0085458   -0.020037     0.23494    -0.01614   -0.057715   -0.094743
0.05142  0.00042559   -0.021986     0.17777    0.087149    -0.05804   -0.097991
0.034855   -0.012892   -0.021661     0.10696     0.15211   -0.062587   -0.098965
0.0078962   -0.026858   -0.021986    0.024461     0.19239    -0.06681    -0.10189
-0.021986   -0.037252   -0.025884   -0.063886        0.22   -0.064211    -0.10611
-0.042774   -0.038227    -0.03303    -0.14119     0.24046   -0.054142    -0.11521
-0.050894   -0.030431   -0.042449    -0.19478      0.2489   -0.042774     -0.1269
-0.053168    -0.01614    -0.04862    -0.22207     0.24403   -0.039526    -0.13599
-0.057715  -0.0050961    -0.04862    -0.23603     0.22032   -0.044723    -0.13924
-0.06551  -0.0096434   -0.043099     -0.2474     0.18264   -0.061288    -0.13534
-0.073306   -0.038551   -0.037577    -0.25455     0.14042   -0.079477     -0.1282
-0.073631    -0.09117   -0.035628     -0.2578     0.10599   -0.088572    -0.11845
-0.060638    -0.14411   -0.035303    -0.25942    0.094295    -0.08305    -0.10579
-0.039201     -0.1688   -0.028807    -0.25065     0.10794   -0.069408   -0.093119
-0.019712    -0.14704   -0.011592    -0.22629     0.14139   -0.058689     -0.0837
-0.0063954   -0.093119    0.014717    -0.18601     0.18069   -0.059664   -0.077853
0.0036737   -0.037252    0.041676    -0.13567     0.20993   -0.068758   -0.074605
0.013743   -0.007045    0.056292   -0.080451     0.22487   -0.077853   -0.072656
0.026085  -0.0099683    0.048822   -0.027508     0.22357   -0.079802   -0.071357
0.039402   -0.029457    0.022837    0.016991     0.20278   -0.072006   -0.070707
0.044924   -0.039526  -0.0057458    0.050121     0.17257   -0.058689   -0.071682
0.036154   -0.023935   -0.023935    0.072208     0.14724   -0.048296   -0.073955
0.014068    0.014392   -0.025234    0.084876     0.13847   -0.041799   -0.075579
-0.010293    0.061165   -0.011592    0.092346     0.14854   -0.038551   -0.072656
-0.026533    0.094295    0.010819     0.10144     0.17257   -0.035953   -0.061937
-0.025884     0.10436    0.030308     0.10989     0.20083   -0.030106   -0.044723
-0.008669    0.092346    0.041676     0.11541     0.22194   -0.022961   -0.025559
0.014392    0.067986    0.045899      0.1206     0.23234   -0.011917   -0.010618
0.026085      0.0433    0.047198      0.1284     0.23689 -0.00087364  -0.0067202
0.022188     0.02641    0.045899     0.14237     0.23948   0.0065969   -0.011592
0.0078962     0.01829    0.041351     0.15958     0.23364   0.0078962   -0.022636
-0.0080194    0.016666     0.03518      0.1768     0.20863   0.0036737   -0.035303
-0.021986    0.017316     0.02641     0.19239     0.15893  -0.0018481    -0.04992
-0.027508    0.014392    0.016991     0.20538    0.091372  -0.0047713   -0.060963
-0.027833    0.008221   0.0085458     0.21415    0.023812  -0.0011985   -0.064861
-0.021986      0.0014   0.0056225      0.2174   -0.027183   0.0065969   -0.062587
-0.016789  -0.0031473   0.0091954      0.2187    -0.05739     0.01894   -0.054142
-0.01484  -0.0073698    0.019914     0.22032   -0.069083    0.033556   -0.042774
-0.018088  -0.0093186     0.03453     0.22227   -0.059664    0.046223    -0.03238
-0.025234   -0.013216    0.049472     0.22649   -0.030106     0.05207   -0.025234
-0.033679   -0.023285    0.057917     0.23364    0.014392    0.047523   -0.015165
-0.039201   -0.042124    0.057917     0.23754    0.046548    0.033231  0.00010078
-0.039851   -0.064536    0.048822     0.22974    0.022837    0.011794    0.015692
-0.031081   -0.078178     0.03518     0.20505   -0.086623   -0.018413    0.027709
-0.017764    -0.07428    0.022188     0.16543    -0.26397   -0.054142    0.032257
-0.012242   -0.054792   0.0095202     0.11703    -0.45106   -0.086298    0.032906
-0.013866   -0.028157  -0.0015233     0.06961    -0.58358    -0.10546    0.033556
-0.017764  -0.0028225  -0.0099683    0.027385     -0.6232    -0.10838    0.038103
-0.019712    0.013743   -0.015165   -0.010293    -0.56636    -0.10221    0.046873
-0.021337     0.01764   -0.017439   -0.050894    -0.43936   -0.095068    0.061814
-0.020687    0.015692   -0.016464    -0.09117    -0.28508   -0.090196    0.081952
-0.017439    0.013418   -0.015165     -0.1256    -0.14671   -0.085973     0.10371
-0.013216    0.012768   -0.013216    -0.15581   -0.043423   -0.084024     0.11995
-0.008669    0.012119  -0.0083442    -0.18114    0.024461   -0.088572      0.1258
-0.0037969    0.012443   0.0010752    -0.19608    0.067661    -0.10221     0.11931
0.0010752    0.013418    0.014068    -0.19771    0.097218    -0.11715     0.10469
0.0069217    0.012443    0.026735    -0.18439     0.11995    -0.13047    0.082927
0.01017     0.01017    0.034206    -0.16068     0.13587    -0.14249    0.056617
0.008221   0.0065969    0.033556    -0.13015     0.14172    -0.15061    0.031282
0.0020496   0.0043233    0.026735   -0.098316      0.1362    -0.15321    0.013093
-0.0060706   0.0043233    0.018615   -0.069083     0.11995    -0.14996   0.0062721
-0.012892   0.0033489    0.014068   -0.043099     0.10469    -0.14119    0.008221
-0.017764  0.00010078    0.013743   -0.023285    0.097868     -0.1321    0.015367
-0.021337  -0.0047713    0.015692  -0.0073698    0.098193    -0.11131    0.019589
-0.026209  -0.0099683    0.015692   0.0065969     0.10274   -0.069083    0.013418
-0.028807   -0.017114    0.014392    0.017965     0.10339   -0.007045  -0.0024977
-0.029457   -0.030431    0.015367    0.024786    0.099817     0.06019    -0.02361
-0.029457   -0.047321     0.01829    0.029658    0.089748     0.11541   -0.036927
-0.027183   -0.062587    0.016341    0.032906    0.076755     0.14464   -0.038227
-0.026533   -0.068434    0.010819    0.037778    0.063113     0.14659   -0.030106
-0.029457   -0.062912   0.0039985     0.04395     0.05142     0.13327   -0.018738
-0.029782   -0.047321  -0.0024977    0.054668    0.042326     0.10989  -0.0089938
-0.023935   -0.026858  -0.0060706    0.065387    0.034855     0.07708  -0.0044465
-0.015165  -0.0034721  -0.0076946    0.069285    0.026735    0.036804  -0.0057458
-0.010943    0.017965   -0.007045    0.063763    0.015692  -0.0083442  -0.0057458
-0.015165    0.033231  -0.0050961    0.053369  0.00075039   -0.051868   0.0020496
-0.023285    0.038428  -0.0034721    0.041351   -0.016789   -0.089546    0.014392
-0.030756     0.03518  -0.0037969    0.031282   -0.031406    -0.11715    0.023812
-0.038876     0.02706  -0.0067202    0.022188   -0.040825    -0.13015    0.021538
-0.052193    0.018615    -0.01549     0.01017   -0.042774    -0.12852    0.011469
-0.066485    0.009845   -0.026858   -0.013866   -0.038876    -0.11618   0.0039985
-0.07428   0.0020496   -0.039201   -0.044723    -0.03303   -0.092145   0.0075714
-0.069733  -0.0041217    -0.04992   -0.073955   -0.024585   -0.051544     0.01829
-0.053168  -0.0089938    -0.05804   -0.095068   -0.013541    0.013418    0.029333
-0.03238    -0.01549   -0.062912    -0.10481  0.00042559     0.10112    0.035505
-0.014516   -0.026209   -0.063237    -0.10644    0.019589     0.19499    0.036804
-0.0041217   -0.038227   -0.063561    -0.10644    0.048172     0.27002    0.036804
0.0033489   -0.048296   -0.065186    -0.10871    0.087149     0.31224    0.039402
0.0046481   -0.055441   -0.069083    -0.11326     0.12807     0.32198    0.044924
-0.0047713   -0.056091   -0.072006    -0.11456     0.15179     0.31451    0.046873
-0.022961   -0.052193   -0.068758    -0.11196     0.14172     0.30282    0.045899
-0.044723   -0.046022   -0.060313    -0.10481    0.098842     0.29275    0.051096
-0.063237   -0.039851   -0.050244   -0.092469    0.035505     0.28106    0.062464
-0.073955   -0.035628   -0.040175   -0.077203   -0.027833     0.26092    0.076106
-0.074605   -0.029457   -0.032055   -0.059664   -0.073306     0.22747    0.084551
-0.065186   -0.019712    -0.02426   -0.039526   -0.090196     0.18329    0.083251
-0.047321  -0.0080194   -0.011917   -0.019712    -0.08305     0.13392     0.07708
-0.022961   0.0043233   0.0049729      0.0014   -0.065186    0.087149    0.070584
0.0036737    0.014392    0.020564    0.026085    -0.04992    0.049147    0.067986
0.028359    0.021213    0.030633    0.050121   -0.041799    0.024137    0.070909
0.046223    0.023812    0.030633    0.071883   -0.037577    0.011469    0.079354
0.059216    0.023487    0.021538    0.090722   -0.037902   0.0062721    0.091372
0.06961    0.024786   0.0059473     0.10924   -0.044398   0.0036737     0.10664
0.079354    0.030633   -0.012892     0.12743   -0.058689 -0.00054884      0.1258
0.092346    0.038428   -0.027183     0.13912     -0.0824  -0.0067202     0.14626
0.10761    0.042975   -0.034329     0.14009    -0.11293    -0.01614     0.16315
0.12288    0.042326   -0.030106     0.13035    -0.14379    -0.03303      0.1729
0.13425    0.041676   -0.016789     0.11638    -0.16847    -0.05804      0.1716
0.13977    0.044924   0.0052977     0.10404    -0.18212   -0.086298     0.15893
0.1362    0.053044    0.032582    0.092346    -0.18082    -0.11261     0.14172
0.12288    0.063438     0.06019    0.075131    -0.16847    -0.13567      0.1245
0.10079    0.073182    0.081627    0.052395    -0.15029    -0.15905     0.10956
0.069285    0.078704    0.093321     0.02641    -0.12625    -0.18407    0.095269
0.032906    0.077405    0.094295  -0.0011985    -0.10059    -0.20096    0.080653
-0.0021729    0.067986    0.088773   -0.020687   -0.076229    -0.19901    0.060515
-0.029132    0.053694    0.080978   -0.026858   -0.057065    -0.17107    0.033881
