-0.02426  0.00075039   0.0091954    0.038428    0.091696    0.014392    0.013418
-0.046347   -0.017114    0.015367    0.026085    0.092671    0.010495   0.0049729
-0.058365   -0.029782    0.016666   0.0088706    0.092021   0.0036737   -0.008669
-0.061288   -0.029782    0.015367  -0.0089938    0.093645  -0.0047713   -0.025884
-0.056091   -0.011267    0.013418   -0.019063    0.098517   -0.012242   -0.034978
-0.046347    0.020564    0.016666   -0.017439     0.10014    -0.01484   -0.029457
-0.030756    0.054344    0.026735  -0.0034721    0.086824   -0.011917  -0.0093186
-0.010943    0.082277    0.037778    0.016991    0.053694  -0.0041217    0.016666
0.0072465    0.097543    0.045899     0.03583   0.0043233   0.0059473    0.034855
0.020239    0.097218    0.049472    0.045899   -0.050894    0.010495    0.041351
0.024137    0.084551    0.049796    0.042651    -0.10156   0.0085458    0.039078
0.020239    0.064413    0.046548    0.031607    -0.13794   0.0043233    0.032906
0.013093    0.041676    0.042975    0.022512    -0.15548      0.0014    0.027385
0.0036737    0.018615    0.036479    0.017316    -0.15581 -0.00022403    0.024137
-0.007045  0.00010078    0.026735    0.014068    -0.14899  -0.0018481    0.020564
-0.016789    -0.01484    0.014068    0.008221    -0.14509  -0.0015233     0.01764
-0.021986   -0.025234   0.0052977  -0.0018481    -0.14671   0.0023744    0.014392
-0.024585   -0.030756  0.00042559   -0.015165    -0.15223   0.0075714     0.01017
-0.027833   -0.034654  -0.0031473   -0.028807    -0.15386   0.0072465   0.0059473
-0.033354   -0.033354  -0.0050961   -0.034329    -0.14769   0.0046481   0.0020496
-0.036278    -0.03173  -0.0050961   -0.025884    -0.12885   0.0049729  0.00010078
-0.03303   -0.030431  -0.0047713   -0.007045    -0.10156    0.014392   0.0026992
-0.026209   -0.028807  -0.0083442    0.017316   -0.075904    0.031282   0.0065969
-0.018413   -0.026209    -0.01484    0.038753   -0.062587    0.048822    0.014717
-0.015165   -0.026209   -0.021337    0.050771   -0.065835    0.062464    0.023162
-0.019388   -0.031406    -0.02426    0.054668   -0.084349    0.066362    0.024786
-0.028482   -0.037577    -0.02361    0.053694    -0.10709    0.060515    0.017965
-0.039201   -0.039851   -0.020362    0.050771     -0.1217    0.047198   0.0069217
-0.048296   -0.036278   -0.022961    0.048497    -0.12138    0.031282  -0.0024977
-0.052518   -0.025234   -0.029782    0.046548    -0.10774    0.017965  -0.0054209
-0.050894   -0.011267   -0.037252    0.042326   -0.087922    0.010819  -0.0024977
-0.044398      0.0014   -0.035628    0.031282   -0.068109    0.009845   0.0020496
-0.034654    0.013093   -0.027508    0.009845   -0.052843    0.011469  0.00075039
-0.022636    0.017316   -0.020362   -0.012567   -0.044073    0.010819  -0.0060706
-0.013541    0.012443   -0.017114   -0.024909   -0.036927   0.0075714   -0.012567
-0.0096434  0.00010078   -0.017764   -0.017439   -0.023935   0.0072465   -0.014191
-0.0083442   -0.012892   -0.017764   0.0056225  -0.0057458    0.010819  -0.0083442
-0.0057458   -0.021661   -0.011267     0.03583     0.01894    0.019914   0.0023744
-0.0073698    -0.02361   0.0039985    0.066362    0.045574    0.032257    0.012119
-0.017764   -0.020687    0.023487    0.087149     0.06961    0.046873    0.015367
-0.038551    -0.01484    0.042001    0.092346      0.0852    0.057267    0.014392
-0.065186   -0.008669    0.052395    0.082277    0.085525     0.06019   0.0078962
-0.082725  -0.0028225    0.047847    0.063763    0.074806    0.054993  -0.0011985
-0.082725      0.0014    0.027385    0.040702    0.053694    0.045899   -0.010943
-0.063561   0.0036737  -0.0063954    0.016666     0.01894     0.03453   -0.017764
-0.033679   0.0036737   -0.041475  -0.0050961   -0.023935     0.01894   -0.017439
-0.0067202   0.0020496    -0.06551   -0.021337   -0.067784  0.00042559  -0.0083442
0.0075714  0.00010078   -0.071682   -0.029782    -0.10156   -0.015815   0.0052977
0.0069217   0.0023744   -0.063561   -0.029457    -0.11586   -0.024909    0.014392
-0.0034721    0.013418   -0.045047   -0.021337    -0.10384    -0.02426    0.016341
-0.012892    0.035505   -0.021012  -0.0096434   -0.076229    -0.01614    0.011469
-0.020362    0.061165   0.0056225  -0.0015233   -0.045697  -0.0093186  0.00042559
-0.024585    0.083576    0.027709  0.00075039   -0.021012  -0.0089938   -0.010293
-0.025234    0.097868    0.038103  -0.0047713  -0.0047713   -0.015165   -0.016464
-0.022636     0.10079    0.036804   -0.013541   0.0091954   -0.022636   -0.012567
-0.019712    0.094945    0.028684   -0.020362    0.025436   -0.024909  -0.0034721
-0.014516    0.081952    0.019589   -0.018413    0.040052   -0.023285   0.0085458
-0.0089938    0.067011    0.011144   -0.010293    0.047847   -0.020687    0.016991
-0.007045    0.050771   0.0023744 -0.00087364    0.047198   -0.018413    0.021213
-0.011592     0.03453  -0.0024977    0.010495    0.039727   -0.018738    0.022512
-0.021337     0.01764  -0.0041217     0.02641    0.031282   -0.021012    0.024137
-0.029457      0.0014  -0.0054209    0.043625    0.020564   -0.021012    0.027385
-0.024909   -0.013866  -0.0054209    0.061165   0.0091954   -0.016464    0.033556
-0.0073698   -0.027508  -0.0021729    0.075781 -0.00054884   -0.007045    0.040052
0.016666   -0.034978   0.0010752    0.084551  -0.0067202   0.0039985    0.048497
0.039727   -0.033679   0.0049729    0.084876  -0.0037969    0.014392    0.058566
0.058891    -0.02361     0.01017    0.076431    0.015367    0.017965    0.071234
0.072208  -0.0054209    0.014717    0.058891    0.052395    0.011144    0.081303
0.084226    0.013418    0.015367     0.03453    0.097543 -0.00054884    0.085525
0.09397    0.024137   0.0072465   0.0095202      0.1362   -0.010618    0.080653
0.10047    0.022837  -0.0044465   -0.011917     0.15438    -0.01484     0.06896
0.10079    0.012443   -0.012892   -0.027508     0.15211   -0.016789    0.050771
0.098193  -0.0018481   -0.016464   -0.034654     0.13847   -0.019712     0.03583
0.096893   -0.012892   -0.012242    -0.03238     0.12028   -0.020037    0.029009
0.097543   -0.017764  0.00042559   -0.022311     0.10339    -0.01549    0.032582
0.09397   -0.014516    0.020239  -0.0073698    0.084226  -0.0080194    0.042651
0.081627  -0.0060706    0.037454   0.0039985    0.058241  -0.0041217    0.048497
0.067011   0.0046481    0.046873   0.0039985    0.025111  -0.0050961    0.048497
0.055643    0.016016    0.042651  -0.0076946  -0.0093186  -0.0067202    0.044275
0.048822    0.024137    0.025111   -0.026858   -0.037902  -0.0080194    0.040052
0.048172    0.027385      0.0014   -0.047646   -0.052518   -0.012567     0.03583
0.048822    0.024786   -0.019712   -0.061288   -0.051219   -0.021012    0.033881
0.046223     0.01829   -0.034004   -0.065835   -0.037252   -0.027183    0.032257
0.038103   0.0095202     -0.0405   -0.061613   -0.017764   -0.027508    0.028034
0.026085      0.0014   -0.042774    -0.04927  -0.0011985   -0.025884    0.019264
0.015692  -0.0060706   -0.038876    -0.03303   0.0052977   -0.024909   0.0088706
0.01017   -0.012892   -0.031081   -0.015815  -0.0028225    -0.02426   0.0020496
0.0078962   -0.016789   -0.022961   0.0017248   -0.022311   -0.023935   0.0017248
0.0072465   -0.021012   -0.019388    0.015367   -0.047971   -0.027183   0.0043233
0.0020496   -0.029457   -0.021012    0.022837   -0.072331   -0.030106   0.0049729
-0.0060706   -0.039526   -0.023285    0.023487   -0.087272   -0.029132   0.0026992
-0.013216   -0.045372   -0.023285    0.027385   -0.092469   -0.022961 -0.00054884
-0.010293   -0.037252   -0.019063    0.037778   -0.087597  -0.0093186  -0.0018481
0.0056225   -0.011592   -0.010943    0.056942   -0.079477   0.0072465   0.0010752
0.029333    0.024137  0.00075039    0.078055   -0.076229     0.01829   0.0056225
0.050446    0.057917    0.018615    0.091372   -0.081751    0.019264    0.010819
0.062139    0.081303    0.041351    0.093645   -0.093119   0.0091954    0.014068
0.061814    0.093321    0.064088    0.081303    -0.10481  -0.0083442    0.014068
0.056617    0.097543    0.078704    0.053369    -0.11033    -0.02426    0.013093
0.049796    0.096893    0.079679    0.015367    -0.11163   -0.038876   0.0091954
0.04395    0.091047    0.065712   -0.023285    -0.11001   -0.052193   0.0026992
0.0433    0.080003    0.042975   -0.056091    -0.10936   -0.062587   -0.007045
0.049472    0.067986    0.019589   -0.075904    -0.11066   -0.067134   -0.017764
0.058241    0.056617  0.00075039   -0.079477    -0.11358   -0.064536   -0.022961
0.064088    0.044275   -0.012892   -0.070382    -0.11521    -0.05804   -0.019712
0.061814    0.027385   -0.020362   -0.055766    -0.10903   -0.048296   -0.010293
0.049147   0.0056225   -0.022636   -0.038551   -0.087597   -0.037577   0.0026992
0.029983   -0.017114   -0.027183    -0.02361   -0.056091   -0.026209    0.019264
0.0075714   -0.036602    -0.03303   -0.011267   -0.018738   -0.012242    0.036479
-0.01549   -0.048296   -0.037577  -0.0050961    0.016991   0.0043233     0.05142
-0.036602   -0.053168   -0.040175  -0.0044465    0.041676     0.01829    0.056942
-0.056416    -0.04992   -0.038876  -0.0067202    0.045574    0.025436    0.051745
-0.072006   -0.043748    -0.03173  -0.0063954    0.029333    0.025111    0.038103
-0.080451   -0.033679   -0.018413 -0.00087364      0.0014    0.019914    0.022837
-0.078827   -0.018738  -0.0037969   0.0078962   -0.032705    0.015692    0.010819
-0.068758  -0.0011985   0.0085458    0.014392   -0.070382    0.011144      0.0014
-0.056416    0.013743    0.017965    0.016666   -0.099615   0.0078962  -0.0089938
-0.047971     0.01894    0.023487    0.013093    -0.11131   0.0065969   -0.017764
-0.044723    0.012443    0.019264   0.0049729    -0.10286   0.0075714   -0.024585
-0.044073  -0.0031473   0.0062721  -0.0037969   -0.079802   0.0095202   -0.030106
-0.043099   -0.024585  -0.0073698   -0.010943   -0.052518    0.009845   -0.036602
-0.041799   -0.046671   -0.022636   -0.015815   -0.029782   0.0075714   -0.048296
-0.0405   -0.065186   -0.036602    -0.01549   -0.013216   0.0046481   -0.059664
-0.038876   -0.077853   -0.047321   -0.011592      0.0014  0.00075039    -0.06551
-0.04115    -0.08305   -0.052193  -0.0037969     0.01829  -0.0041217   -0.064211
-0.045372   -0.082725   -0.047321   0.0052977    0.040052  -0.0083442   -0.051544
-0.043748   -0.079802   -0.036602    0.016341    0.065062  -0.0083442    -0.03173
-0.035953   -0.072656   -0.029132    0.026735    0.083901  -0.0060706   -0.013216
-0.027833   -0.065835   -0.027508    0.032257    0.087799  -0.0047713  -0.0031473
-0.028482   -0.065186   -0.030756    0.033881    0.066686   -0.010618  -0.0041217
-0.041799   -0.065835   -0.033679     0.03453   0.0085458   -0.024909   -0.014516
-0.063237   -0.060638   -0.027183    0.037778     -0.0824   -0.045372   -0.027508
-0.078827   -0.045047  -0.0089938    0.045899    -0.18504   -0.065835   -0.037252
-0.079152   -0.022636    0.014717    0.056292    -0.27209   -0.080776   -0.043099
-0.064861   0.0010752    0.032906    0.062464    -0.32601   -0.089221   -0.050894
-0.042774    0.022512    0.037778    0.061814    -0.33932   -0.097341   -0.062262
-0.022961    0.036154    0.027709     0.05207    -0.31464    -0.10644   -0.075904
-0.010943    0.041351   0.0072465     0.03518    -0.26169    -0.11293   -0.092145
-0.0063954    0.034855   -0.014191    0.012119    -0.19868    -0.11391    -0.10644
-0.010293    0.009845   -0.029457   -0.010293    -0.14639    -0.10903    -0.11488
-0.022636   -0.026858   -0.036927   -0.026858    -0.11228   -0.097017    -0.11228
-0.036927   -0.060313   -0.038551   -0.031081   -0.089871   -0.077203   -0.098965
-0.042449   -0.072331   -0.032055   -0.017764   -0.065835   -0.048945   -0.075579
-0.033354   -0.054142   -0.015165   0.0065969   -0.030106   -0.016464   -0.043099
-0.01614   -0.010943    0.010819    0.031932     0.01894    0.014717  -0.0063954
-0.0034721    0.041351    0.034206     0.05272    0.073182    0.042651    0.024461
-0.00054884    0.087149    0.047523    0.065062     0.12028    0.064088    0.044599
-0.0037969     0.11963    0.048172    0.066686     0.14789    0.074806    0.050771
-0.0044465     0.13067    0.039078    0.059541     0.15049    0.071234    0.045899
-0.0031473     0.11963    0.025436    0.045899     0.13002    0.056617    0.034206
0.00042559     0.09462    0.014068    0.031282    0.095594    0.035505    0.019264
0.0017248    0.066362   0.0078962    0.022188    0.064737    0.014068   0.0062721
0.0020496    0.048822    0.008221    0.020564    0.048497  -0.0050961  -0.0073698
0.0036737    0.045899    0.014392     0.02706    0.049472   -0.021337   -0.017764
0.0065969    0.062464    0.023812    0.039078    0.064088    -0.03173    -0.02361
0.010819     0.09462    0.033881     0.05207    0.088773    -0.03303   -0.021986
0.017965     0.12775    0.041027     0.06084     0.11248   -0.025884   -0.019388
0.021538     0.14042    0.037129    0.057917     0.12743   -0.018088   -0.022961
0.01764     0.11931    0.022188    0.044924     0.13652   -0.014516   -0.034978
0.0062721     0.06896   0.0017248    0.027385     0.14919   -0.014191   -0.048945
-0.0047713    0.010819   -0.017764    0.011144     0.17062   -0.015815   -0.055441
-0.0076946   -0.032705   -0.035628    0.003024     0.19888   -0.018413   -0.052193
-0.00054884   -0.052193   -0.050569 -0.00022403     0.22909   -0.018738   -0.037252
0.012119   -0.051219   -0.057715  -0.0015233     0.24923   -0.016789   -0.019063
0.027385   -0.035303   -0.055766  -0.0024977     0.25378   -0.011267  -0.0021729
0.039078   -0.010293   -0.049595  -0.0063954     0.24728  -0.0067202    0.010495
0.045574    0.016991   -0.043099   -0.013866     0.23851  -0.0024977    0.015367
0.043625    0.040052   -0.036927   -0.023935     0.23266    0.003024    0.012119
0.034855    0.057267   -0.027183   -0.032055     0.23136    0.011144   0.0039985
0.021863     0.06831   -0.011917   -0.034329     0.23461    0.019589  -0.0037969
0.012119    0.078055   0.0046481   -0.027183     0.24111    0.028034  -0.0073698
0.0095202      0.0852    0.017316   -0.013541     0.24403    0.038753  -0.0044465
0.012768    0.083251    0.023812      0.0014     0.24111    0.050446   0.0010752
0.016991    0.065062    0.025436    0.018615     0.22909    0.058566    0.008221
0.020239    0.029983    0.021863    0.035505     0.20311    0.058241    0.014717
0.023812   -0.015165    0.012119    0.046873     0.16056    0.049147    0.022512
0.029333   -0.056416  -0.0015233    0.049796    0.098842    0.036804    0.030308
0.03518   -0.078503   -0.013541    0.041027    0.022837    0.028034    0.035505
0.039078   -0.075904   -0.019063    0.025761   -0.064211    0.026085    0.040702
0.042651   -0.052843   -0.018088    0.015042    -0.16523     0.02641    0.042651
0.046548   -0.020687   -0.013541    0.010495    -0.29125    0.022512    0.040052
0.047198    0.008221  -0.0047713    0.011469    -0.43904   0.0095202    0.032906
0.0433    0.026735   0.0065969    0.012768    -0.57871   -0.010618    0.023812
0.036154    0.030957    0.016666    0.013418     -0.6703   -0.029782    0.016666
0.028684    0.023812    0.020888    0.015367    -0.68459   -0.041475    0.012443
0.023162   0.0088706    0.016016    0.018615    -0.62645   -0.041799   0.0088706
0.01894  -0.0063954   0.0072465    0.022188    -0.51667   -0.033354   0.0033489
0.015367   -0.019712  -0.0011985    0.023487     -0.3861   -0.017114  -0.0034721
0.0049729   -0.031081  -0.0050961    0.021538    -0.26299  -0.0037969   -0.012567
-0.015815   -0.042449  -0.0080194     0.01829    -0.16393  0.00075039   -0.021012
-0.043423   -0.056741   -0.014516    0.017316   -0.090196  -0.0031473   -0.026533
-0.073955   -0.067784   -0.024909    0.016341   -0.035628   -0.011267   -0.024585
-0.095068   -0.070382    -0.03173    0.015367   0.0059473   -0.016789   -0.017439
-0.10286   -0.064211   -0.033679    0.013093    0.037778   -0.019063  -0.0063954
-0.093769   -0.053492   -0.030431   0.0072465    0.062789   -0.019063   0.0069217
-0.073306   -0.039526   -0.024585  -0.0028225    0.082927   -0.017114     0.01894
-0.046347   -0.021337   -0.014516   -0.012242    0.096569   -0.010618    0.028359
-0.017439 -0.00054884  -0.0015233   -0.015815     0.10696 -0.00054884    0.037454
0.015692    0.015692     0.01017   -0.016464     0.11573   0.0078962    0.047198
0.050446    0.023812    0.015692    -0.01549     0.12255    0.010495    0.057917
0.075781    0.024786    0.017316   -0.013541      0.1271    0.010495     0.06831
0.085525    0.021213    0.017316   -0.010618      0.1258    0.008221    0.075131
0.081303    0.015042    0.013743  -0.0099683     0.11801   0.0036737    0.076431
0.070584    0.013418   0.0095202   -0.011917     0.10826   0.0010752    0.077405
0.059541    0.019589   0.0072465   -0.010943     0.10501   0.0033489    0.079679
0.054993    0.028034   0.0069217  -0.0037969     0.10924    0.014068    0.079679
0.055318    0.030308    0.008221   0.0056225     0.11801    0.030308     0.07773
0.056942    0.020888    0.013093    0.014717      0.1284    0.045249    0.070909
0.055968   0.0039985    0.020239    0.020239     0.14269    0.050771    0.057917
0.054668   -0.013216    0.023812    0.021538     0.16153    0.041351    0.042975
0.056292   -0.024909    0.023162    0.019589     0.18329    0.025111    0.027709
0.06019   -0.028157    0.019264    0.017965     0.20538    0.012119    0.016341
0.061165   -0.026209    0.011469    0.013093        0.22   0.0065969    0.010819
0.052395   -0.026858   0.0043233   0.0033489     0.21935   0.0088706   0.0095202
0.034206   -0.034329  -0.0044465   -0.012892     0.20246    0.012119    0.009845
0.0095202   -0.045697    -0.01484   -0.029132     0.17647    0.013418   0.0095202
-0.013541   -0.054467   -0.025234   -0.039526     0.15081     0.01017   0.0069217
-0.028157   -0.054142   -0.034978     -0.0405     0.13782  0.00042559   0.0049729
-0.031081   -0.045697   -0.044723   -0.033354     0.13847   -0.010943   0.0033489
-0.027508    -0.03173   -0.051868   -0.022636     0.14919   -0.019712   0.0020496
-0.02361   -0.019063   -0.050894   -0.010618     0.16121   -0.021337 -0.00087364
-0.02426  -0.0060706   -0.034978   0.0010752     0.16543   -0.019063  -0.0024977
-0.027833    0.010495  -0.0089938    0.012768     0.15958    -0.01549  -0.0041217
-0.029782    0.028034     0.01829    0.024786     0.14399   -0.014191  -0.0041217
-0.027183    0.044924    0.041027    0.040702     0.12093   -0.012567   -0.007045
-0.018738    0.058566    0.058566    0.054668    0.087474  -0.0093186   -0.011267
-0.0073698    0.066362    0.069934    0.060515    0.041676  -0.0037969   -0.017439
0.0017248    0.070584    0.069285    0.051745   -0.016464   0.0039985   -0.026533
0.0017248    0.070584    0.055643    0.031282     -0.0824   0.0088706   -0.034654
-0.0044465    0.066037    0.035505   0.0010752    -0.15613   0.0075714   -0.038551
-0.0099683    0.059216    0.015692   -0.030106    -0.24805  0.00042559   -0.035953
-0.012242    0.050771  -0.0015233   -0.052843    -0.36044  -0.0080194   -0.026858
-0.012242    0.040377   -0.014191   -0.061937    -0.47574    -0.01549   -0.017439
-0.011267    0.027709   -0.024585   -0.060313    -0.55564   -0.025234   -0.011917
-0.011267    0.014717   -0.027833   -0.054467    -0.56604   -0.032055  -0.0093186
-0.013541   0.0056225   -0.021337   -0.044073    -0.49783    -0.03238   -0.008669
-0.015165 -0.00022403   -0.007045   -0.030756    -0.36336   -0.023935   -0.011917
-0.018088  -0.0015233   0.0043233   -0.018088    -0.20063   -0.014516   -0.018413
-0.022961   0.0010752   0.0085458   -0.010293   -0.046671   -0.010618   -0.025559
-0.030431   0.0059473   0.0039985  -0.0093186    0.073182   -0.014191   -0.028807
-0.038551   0.0091954  -0.0037969   -0.017114     0.15406   -0.020687   -0.024585
-0.045697   0.0095202   -0.012242   -0.029457     0.20798   -0.028157   -0.018088
-0.051868   0.0072465   -0.019712   -0.039851     0.24176   -0.034978   -0.013866
-0.060313   0.0056225   -0.024909   -0.042774     0.25702   -0.038227   -0.010943
-0.069408   0.0056225   -0.027183   -0.038551      0.2489   -0.036927  -0.0073698
-0.072656    0.010495   -0.025234   -0.030431     0.20765   -0.033679  -0.0028225
-0.070707    0.012768   -0.021012   -0.022961     0.13587   -0.030756    0.003024
-0.064211   0.0091954   -0.013216   -0.019388    0.049147   -0.026209   0.0088706
-0.055441  -0.0050961  -0.0037969   -0.017764   -0.029132   -0.019388    0.016341
-0.04115   -0.021012   0.0043233   -0.013866   -0.079477  -0.0099683    0.024461
-0.018413   -0.028157   0.0072465  -0.0073698   -0.099615   0.0026992    0.028359
0.010819   -0.016789   0.0065969   0.0043233   -0.095717    0.015042    0.028034
0.041351    0.011794   0.0091954     0.01894   -0.079477    0.022512    0.023812
0.069285    0.044275    0.017316    0.028684   -0.064861    0.024137    0.021863
0.087149    0.065712    0.026085    0.030633   -0.055766    0.020564    0.024461
0.0852     0.06961    0.027709    0.026085   -0.053168    0.009845    0.027709
0.062139    0.057592     0.01764     0.01894   -0.057715  -0.0080194    0.029009
0.028684     0.03583 -0.00054884    0.012443    -0.06681    -0.03303    0.020564
-0.0028225    0.014392   -0.017439   0.0085458   -0.075579   -0.060638   0.0020496
-0.019712  -0.0031473   -0.029457   0.0056225     -0.0824   -0.082076   -0.022636
-0.017439   -0.012567   -0.032055   0.0033489   -0.088896   -0.092794   -0.042449
-0.00054884   -0.017764   -0.022636   0.0010752   -0.099615   -0.090845   -0.046671
0.020239   -0.020687  -0.0093186  -0.0037969    -0.11715   -0.076229   -0.033354
0.03453   -0.022636  0.00075039   -0.013541    -0.13924   -0.051868   -0.012892
0.037129   -0.024909   0.0039985   -0.029132      -0.161   -0.025559   0.0033489
0.026085   -0.027833  -0.0015233   -0.046347    -0.17367  -0.0050961    0.015692
0.0052977   -0.029457    -0.01484   -0.056416     -0.1727   0.0046481    0.025761
-0.018738   -0.027183   -0.027508   -0.056741    -0.15938   0.0026992     0.03583
-0.037252   -0.020687   -0.034329   -0.046347    -0.14054  -0.0054209    0.047847
-0.042774   -0.012567   -0.029782   -0.029457    -0.11651   -0.012892    0.056942
-0.028807  -0.0034721   -0.013866   -0.013216   -0.085648    -0.01484    0.059216
-0.0034721   0.0072465    0.010819  -0.0011985   -0.049595   -0.011917    0.053369
0.018615    0.019264    0.034855   0.0056225  -0.0099683   -0.008669    0.042326
0.02641    0.028034    0.046223    0.010819    0.032257  -0.0099683    0.031607
0.019589    0.030957    0.042975    0.013743    0.075781   -0.010293    0.023487
0.0088706    0.024786    0.030957    0.016016     0.11411   -0.008669    0.019264
0.003024    0.014392    0.019589    0.018615     0.13782  -0.0024977     0.01764
0.0059473   0.0036737    0.011469    0.022837     0.14334   0.0078962     0.01894
0.013743  -0.0044465   0.0049729    0.031282     0.13327    0.023162    0.021538
0.024137   -0.008669 -0.00087364    0.044924     0.11573    0.038103    0.022512
0.031282    -0.01614  -0.0044465    0.059541    0.099492    0.048172    0.021538
0.030633   -0.027183  -0.0037969     0.06961    0.083901    0.048172    0.015692
0.027709   -0.040175 -0.00022403    0.070909    0.062139    0.039402   0.0046481
0.025111   -0.050569   0.0039985    0.062789    0.032906    0.026085  -0.0050961
0.022512   -0.054792   0.0056225    0.048822  -0.0024977   0.0095202   -0.010943
0.015692   -0.053492   0.0049729    0.036154   -0.035628  -0.0089938   -0.014191
0.0039985    -0.04927   0.0036737    0.030633    -0.05804   -0.028157   -0.019388
-0.012242   -0.042774  0.00010078    0.027709   -0.070382   -0.043748   -0.031081
-0.024909   -0.034978  -0.0047713    0.023162   -0.074605   -0.051219   -0.042774
-0.028482   -0.025884  -0.0093186    0.011469   -0.076229    -0.04927   -0.048296
-0.018088  -0.0096434   -0.008669 -0.00087364   -0.078503   -0.035953   -0.043099
0.0014    0.015367  -0.0015233  -0.0060706   -0.080776    -0.01484   -0.025884
0.023812    0.044924    0.012443  -0.0024977   -0.078827   0.0056225 -0.00054884
0.041027    0.069934    0.029333   0.0072465   -0.069733    0.020888    0.023487
0.047198    0.078704    0.040377    0.017316   -0.059339    0.027385    0.036479
0.040052    0.069934    0.044275    0.023812   -0.053817    0.025111    0.032257
0.024137    0.050446    0.041676    0.022837   -0.055766    0.017316    0.009845
0.0036737    0.029333     0.03518    0.016991   -0.065186    0.012443   -0.017114
-0.017114    0.012119    0.029333    0.012443   -0.081426    0.013093   -0.035628
-0.033354   0.0010752    0.027385    0.015042   -0.098316    0.019264   -0.041475
-0.045697  -0.0031473    0.025436    0.024461    -0.11391    0.023487   -0.036278
-0.050244  -0.0041217    0.020888    0.036804    -0.12203    0.024786   -0.020687
-0.04992  -0.0034721    0.013418      0.0433    -0.11845    0.022188  0.00075039
-0.042124  -0.0024977   0.0020496    0.043625    -0.10481     0.01764    0.021538
-0.03173  -0.0037969  -0.0083442    0.040377   -0.084999    0.013743    0.031282
-0.021012  -0.0041217   -0.012892    0.036804   -0.060638    0.012768     0.02706
-0.0096434 -0.00054884   -0.011592     0.03583   -0.030106    0.015367    0.014392
-0.00022403    0.011794  -0.0044465    0.037454    0.003024    0.019914    0.003024
0.0023744    0.030957   0.0052977    0.040377    0.038103    0.020888 -0.00022403
-0.00087364    0.051096    0.011469    0.040052    0.071558    0.015692   0.0026992
-0.010293     0.06961   0.0088706    0.036479    0.097543   0.0036737   0.0056225
-0.021661    0.081303  -0.0021729    0.029658     0.11086   -0.013541   0.0069217
-0.028482    0.081303   -0.017439    0.022837     0.11151   -0.031406   0.0056225
-0.02426    0.070584   -0.029782    0.019589     0.10306   -0.045697   0.0039985
-0.0083442     0.05272   -0.034978    0.021213    0.089748   -0.052518   0.0039985
0.0075714    0.032906   -0.034004    0.023812    0.074806    -0.04992   0.0065969
0.013418    0.015692   -0.031081    0.024786     0.06019   -0.043748   0.0085458
0.0052977   0.0039985   -0.027508    0.026085     0.05207   -0.038227   0.0062721
-0.013216  -0.0018481   -0.027508    0.026735    0.055968   -0.033679  0.00042559
-0.033354  -0.0057458   -0.031081    0.022837    0.071883   -0.029457  -0.0024977
-0.050244    -0.01484   -0.034329    0.015042    0.096893   -0.026858   0.0033489
-0.061937   -0.027508    -0.03303    0.010495     0.12743   -0.020362    0.022188
-0.06616   -0.036602    -0.02426    0.015692     0.16153  -0.0057458    0.047523
-0.059989   -0.037577   -0.010293    0.032906     0.19563    0.015367    0.072858
-0.043423   -0.030106  0.00042559    0.057267        0.22    0.038428    0.095594
-0.017439   -0.018088   0.0033489    0.081952     0.22292    0.054993     0.11248
0.015692  -0.0057458  -0.0034721    0.096893     0.19239    0.056292     0.12255
0.048172   0.0075714   -0.010293    0.095919     0.13035    0.042001     0.12125
0.07708    0.023162  -0.0096434    0.080653    0.052395    0.022512     0.10989
0.096893    0.037778  -0.0034721    0.056292   -0.020362   0.0049729    0.090722
0.10436    0.049472   0.0043233    0.030957   -0.075255  -0.0083442    0.068635
0.099492    0.053369   0.0095202    0.014392    -0.11033   -0.017439    0.046548
0.0865    0.051096   0.0085458     0.01017     -0.1269   -0.024585     0.02641
0.070259    0.044275   0.0010752    0.016341     -0.1321   -0.033354    0.010819
0.056617    0.037129   -0.011267    0.026735    -0.12885   -0.043423  -0.0015233
0.048172    0.032582   -0.019388     0.03453    -0.11618   -0.050244   -0.014516
0.042651    0.030957   -0.021337    0.037454   -0.094093   -0.056416   -0.031406
0.03518    0.028684   -0.018413     0.03518    -0.06681   -0.062262   -0.048296
0.019914    0.023487   -0.020687    0.031607   -0.040825   -0.064861   -0.062912
-0.0018481    0.013418   -0.032055    0.025761   -0.023285   -0.064861   -0.070058
-0.030106  -0.0041217   -0.052193    0.018615   -0.023935   -0.062262   -0.070382
-0.059664   -0.026858   -0.076879   0.0065969   -0.056091   -0.058365   -0.064861
-0.078503   -0.050569   -0.097991   -0.010618     -0.1204   -0.052193   -0.054467
-0.082725   -0.066485    -0.10741   -0.024909     -0.2055   -0.045697   -0.042449
-0.076879   -0.071682    -0.10156   -0.037252    -0.28735   -0.038227   -0.031406
-0.069733   -0.070382   -0.086623   -0.045697    -0.34809   -0.028807   -0.023935
-0.06681   -0.066485   -0.068109   -0.050894    -0.37115   -0.020037   -0.019063
-0.068109   -0.063561   -0.050894   -0.047646    -0.35589   -0.010618    -0.01484
-0.068109   -0.059014   -0.036927   -0.038876    -0.30587  0.00075039   -0.013866
-0.059339   -0.046996   -0.021661   -0.029457    -0.23019     0.01017   -0.016789
-0.0405   -0.025559   0.0020496   -0.023285    -0.14379    0.015042   -0.021661
-0.017439      0.0014    0.032257   -0.021337   -0.067134   0.0091954   -0.026209
-0.00022403    0.029009    0.061165   -0.022311   -0.018413  -0.0057458   -0.031081
0.0023744    0.053369    0.077405   -0.026209   0.0085458   -0.022961   -0.035953
-0.0047713    0.066037    0.074806   -0.030756     0.02706   -0.035953   -0.040175
-0.013216    0.061489    0.056292   -0.037902    0.049147     -0.0405   -0.041799
-0.011917    0.042975    0.032257   -0.045372    0.067986   -0.040175   -0.038876
-0.00054884    0.019589    0.014068   -0.054142     0.07708   -0.034978    -0.03238
0.016016   0.0026992   0.0085458   -0.061937    0.070584   -0.027508   -0.026533
0.032257  -0.0011985    0.013743   -0.064211     0.05142   -0.021986   -0.022636
0.043625   0.0046481    0.023812   -0.061288     0.02641   -0.016464   -0.025234
0.052395    0.015367    0.029009   -0.051868   0.0023744   -0.010943   -0.031081
0.057592    0.022837    0.023162   -0.040175   -0.011917  -0.0047713   -0.033679
0.058891    0.021863   0.0085458   -0.028157   -0.010943  -0.0018481   -0.028482
0.054019    0.013418  -0.0063954   -0.018088  0.00010078  -0.0060706   -0.018413
0.045249   0.0020496   -0.014191  -0.0096434    0.014717   -0.017439  -0.0096434
0.036154  -0.0073698  -0.0089938 -0.00087364    0.023812   -0.030431   -0.007045
0.029333   -0.012892   0.0062721   0.0085458    0.024786   -0.040175  -0.0099683
0.022188  -0.0099683    0.022188    0.017316    0.022188   -0.045697   -0.016789
0.017965 -0.00022403    0.032906    0.020888    0.020888   -0.047971    -0.02426
0.01829    0.013418    0.037454    0.016991    0.023162   -0.050244   -0.030106
0.020564    0.025111    0.033881    0.008221    0.026085   -0.052518   -0.035628
0.020239    0.033231    0.024461  -0.0021729    0.026735   -0.053168   -0.038551
0.012443    0.035505    0.011794   -0.016789    0.019589   -0.050244   -0.040825
-0.0015233    0.031282  -0.0011985   -0.032705   0.0033489   -0.046022   -0.042449
-0.01549    0.022837   -0.012567   -0.043748   -0.013216   -0.042449   -0.044398
-0.025234    0.013093   -0.023285   -0.043423   -0.021012   -0.041799   -0.041799
-0.029132  -0.0011985   -0.035628   -0.032705   -0.014516   -0.042124   -0.035628
-0.03173   -0.021661   -0.046022    -0.01614  0.00010078   -0.038227   -0.028482
-0.037252   -0.045372   -0.047646 -0.00054884    0.014068   -0.030431   -0.020687
-0.045047   -0.064211   -0.042124    0.012443    0.025436   -0.021986    -0.01614
-0.054142   -0.074605   -0.034654    0.020564    0.033881    -0.01614    -0.01614
-0.060963   -0.076554   -0.029132    0.024137    0.040377   -0.014516   -0.018088
-0.064211   -0.072981   -0.025884    0.024461    0.043625   -0.017439   -0.020362
-0.065835   -0.066485   -0.025884    0.028684    0.047198   -0.018413   -0.022311
-0.067459   -0.060963   -0.024909     0.03453    0.051096   -0.015815    -0.02426
-0.067459   -0.058365   -0.021986    0.037778    0.054019   -0.010943   -0.027183
-0.062262   -0.057065   -0.020687    0.033556    0.057917  -0.0041217   -0.028482
-0.053168   -0.053492   -0.020362    0.022512    0.067986      0.0014   -0.025234
-0.038551   -0.045047   -0.022961    0.011794    0.085525   0.0065969   -0.018738
-0.016464    -0.03173   -0.029457   0.0069217     0.10924     0.01017   -0.010293
0.010819   -0.015815   -0.034978   0.0072465      0.1297    0.015042  0.00042559
0.038753   0.0036737   -0.035953    0.013093     0.14334    0.021863    0.011794
0.058566    0.026085   -0.029457    0.023162     0.15049    0.028034    0.025111
0.064737     0.05142   -0.019063    0.031607     0.14984     0.03518    0.036479
0.059216    0.076106  -0.0047713    0.037454     0.14464    0.041351    0.040052
0.049147    0.095594    0.011469    0.040377     0.13067    0.046548    0.039727
0.038753     0.10566    0.024786    0.041351     0.10436    0.049147    0.036479
0.032582     0.10436    0.028684    0.044599    0.070259    0.046548    0.033881
0.027385    0.091696    0.023487    0.053369    0.036479    0.040702    0.033556
0.024461    0.071234    0.015042    0.062789    0.013743    0.037778    0.036479
0.025436    0.046873    0.012443    0.067336   0.0043233    0.042001    0.037778
0.026735    0.022837    0.017316    0.064088   0.0043233    0.045899    0.035505
0.027385   0.0056225    0.030957     0.05272   0.0043233    0.042001    0.033556
0.029009  -0.0031473    0.046548    0.039078  -0.0076946    0.031282    0.038428
0.036804   -0.007045    0.062139    0.025761   -0.033354     0.01764    0.048172
0.048172  -0.0073698    0.073507    0.013093   -0.068109   0.0069217    0.055968
0.064413  -0.0041217    0.076431   0.0043233   -0.095717   0.0026992    0.057917
0.083901  -0.0021729    0.070584  0.00010078    -0.11033   0.0023744    0.055968
0.10144  -0.0047713    0.059216  0.00075039    -0.11261   0.0039985    0.055643
0.11378  -0.0083442    0.045899   0.0036737    -0.10644   0.0043233    0.057592
0.11833  -0.0076946    0.032582   0.0065969   -0.095393   0.0065969    0.062789
0.11476   0.0020496    0.019589   0.0078962   -0.086298   0.0059473    0.066686
0.10339     0.01764   0.0085458   0.0091954   -0.079802  0.00042559    0.063763
0.090072    0.037129 -0.00054884    0.009845   -0.071032   -0.013216    0.053044
0.074806    0.055643  -0.0047713   0.0075714   -0.055766   -0.034004    0.040052
0.063113    0.071883  -0.0024977   0.0036737   -0.030756    -0.04927    0.029983
0.059216    0.083901   0.0059473  0.00075039   0.0046481   -0.047646     0.02706
0.063438     0.08585    0.014717   0.0049729     0.04395   -0.032705    0.033231
0.069934    0.080003    0.023162    0.016341    0.079679  -0.0099683    0.047523
0.071558    0.064413    0.032906    0.030633     0.10599    0.012768    0.065712
0.066686     0.04395      0.0433    0.042326     0.11736    0.029658     0.07708
0.055318    0.022512    0.053369    0.046548     0.11378    0.036804    0.075131
0.039402   0.0072465    0.055968    0.036804     0.10371    0.029983    0.062464
0.019264  -0.0031473    0.047198    0.011794     0.09397    0.012768    0.046548
0.0010752  -0.0099683    0.028359   -0.019063    0.088773   -0.007045    0.030957
-0.01484    -0.01484   0.0046481   -0.048296      0.0852   -0.023285    0.012768
-0.02426   -0.016464   -0.015815   -0.063561    0.083901   -0.029457  -0.0050961
-0.026858    -0.01614   -0.028482   -0.058365      0.0865   -0.023935   -0.018088
-0.022961   -0.012892    -0.03303    -0.03303    0.096893  -0.0093186   -0.023285
-0.014191  -0.0057458   -0.030756   0.0052977     0.11183   0.0056225   -0.020362
-0.0031473   0.0046481   -0.026209    0.040377     0.11736    0.012119   -0.012567
0.0039985    0.016341   -0.021337    0.058566     0.10047   0.0075714  -0.0060706
0.0039985    0.025436   -0.013216    0.054993    0.053694  -0.0034721  -0.0041217
-0.0054209    0.025111  -0.0041217    0.032582   -0.026209    -0.01614  -0.0096434
-0.025559    0.014068 -0.00087364   0.0023744    -0.13762   -0.025884    -0.02361
-0.054142  -0.0050961  -0.0060706   -0.023285    -0.27436   -0.033679   -0.038551
-0.080127   -0.023285   -0.011267   -0.035303    -0.41988   -0.041799   -0.046347
-0.094743   -0.037902   -0.011917   -0.031406    -0.54005   -0.047971   -0.044723
-0.092794   -0.045697  -0.0073698   -0.020362     -0.5943   -0.046347   -0.035628
-0.080451   -0.050894  -0.0024977  -0.0073698    -0.56279   -0.037577   -0.025234
-0.063237   -0.052193  -0.0037969   0.0026992    -0.45495   -0.024909   -0.018738
-0.044398   -0.052843   -0.012567    0.011794    -0.30684   -0.017114   -0.019063
-0.029457    -0.04862   -0.024909    0.015367    -0.16003   -0.020687   -0.022636
-0.023935   -0.041799   -0.037252    0.015042   -0.042124   -0.034004   -0.026858
-0.03173   -0.036602   -0.046996    0.011794     0.03518   -0.048296   -0.029132
-0.049595   -0.035953   -0.052843   0.0078962    0.074157    -0.05804   -0.030431
-0.068758   -0.039851   -0.050569   0.0062721     0.08585   -0.058689   -0.033354
-0.0824   -0.045372   -0.036278   0.0062721    0.081303   -0.054792   -0.037252
-0.089546   -0.044723   -0.013541   0.0069217    0.070909    -0.04927   -0.037252
-0.092469   -0.040175     0.01017   0.0088706    0.063113   -0.042774    -0.03303
-0.096692   -0.038876    0.026085    0.012443    0.058566   -0.035303    -0.02426
-0.10514   -0.040825    0.023487    0.016016    0.056292   -0.028807   -0.012242
-0.11456   -0.045372  0.00010078    0.015367    0.055968   -0.022961   0.0026992
-0.12008   -0.046671   -0.032705     0.01017     0.05142   -0.016789    0.015042
-0.11715   -0.040175   -0.061288  0.00010078    0.043625   -0.014191     0.01894
-0.10514    -0.02426    -0.07428   -0.010943    0.034206   -0.019063    0.014068
-0.085324  -0.0067202   -0.070707   -0.022311    0.021863   -0.027833   0.0072465
-0.065186   0.0026992    -0.05739   -0.031081   0.0095202    -0.03238   0.0052977
-0.046671  0.00010078   -0.043099   -0.033679   0.0026992   -0.027833    0.015692
-0.022636   -0.010293   -0.034654    -0.03303   0.0075714   -0.016464    0.038103
0.0059473   -0.019388   -0.027508   -0.028482    0.028034  -0.0028225    0.062139
0.03583    -0.01549   -0.016464   -0.022636    0.056617   0.0075714     0.07708
0.066037   0.0069217  -0.0024977   -0.013866    0.085525    0.014068    0.080003
0.091696    0.046873    0.012768 -0.00022403     0.10696    0.016016    0.072858
0.10794    0.090722    0.024786    0.015042     0.11541    0.012768    0.063438
0.10891     0.12255    0.031282    0.028034     0.11346   0.0065969    0.056617
0.096569      0.1336    0.028684    0.034206     0.10469      0.0014     0.05272
0.073832     0.12385    0.018615    0.032906    0.093645  0.00010078    0.055968
0.045899    0.097218   0.0052977    0.025436    0.078704   0.0052977    0.056617
0.01894    0.066686  -0.0047713    0.018615    0.063113     0.01017    0.049796
-0.0024977    0.042975  -0.0093186    0.014717    0.048172    0.011794    0.032906
-0.01484    0.030957  -0.0093186    0.016016     0.03453    0.009845    0.013418
-0.020037    0.026735  -0.0083442    0.019589    0.023162   0.0052977  -0.0018481
-0.021337    0.019589  -0.0067202    0.019264    0.016991  -0.0028225  -0.0093186
-0.019712   0.0091954  -0.0037969    0.010819    0.013418   -0.015815   -0.012242
-0.01484  -0.0021729 -0.00054884 -0.00022403    0.012443   -0.028482   -0.013216
-0.0067202   -0.012242   0.0046481  -0.0073698    0.014392   -0.040825   -0.013866
0.0046481   -0.021012   0.0075714  -0.0067202    0.021213   -0.047321    -0.01484
0.014717   -0.027508   0.0075714   0.0033489    0.031932    -0.04992   -0.021337
0.017965   -0.025884   0.0072465    0.021213    0.045899   -0.045697   -0.030756
0.012768   -0.017114    0.014068    0.041027    0.063438   -0.036278    -0.04115
0.003024  -0.0044465    0.027385    0.053694    0.084876   -0.027508   -0.047321
-0.0083442   0.0049729     0.03583    0.056617     0.10761   -0.022636   -0.046347
-0.021012   0.0069217     0.03453    0.050121     0.12937   -0.020362   -0.038551
-0.034654   0.0010752    0.022512    0.038428     0.14724   -0.017764   -0.026858
-0.048945  -0.0050961   0.0095202    0.023812     0.15958    -0.01549   -0.015815
-0.061937  -0.0028225   0.0085458    0.013418     0.15309   -0.015815  -0.0076946
-0.072981    0.011144    0.019914    0.012768     0.11768   -0.021661  -0.0054209
-0.081101    0.032257    0.041351    0.021213    0.053044   -0.028807   -0.010293
-0.082725    0.054344    0.063113    0.032582   -0.029782    -0.03238   -0.017439
-0.076879    0.068635    0.075781    0.040702    -0.10579   -0.028482   -0.021012
-0.062912    0.072208    0.075456    0.042651    -0.15353   -0.019712   -0.020362
-0.046022    0.066037    0.065387    0.038753    -0.16523   -0.013541    -0.01614
-0.034004    0.051096    0.045574    0.029983    -0.15191    -0.01614    -0.01484
-0.029132    0.026085    0.019914    0.015042     -0.1321   -0.027833   -0.020362
-0.030756  -0.0067202   -0.010293  -0.0021729    -0.11683   -0.044398   -0.037577
-0.034654   -0.040175    -0.04115   -0.020037    -0.10676   -0.056416   -0.055116
-0.038227   -0.069083   -0.062912   -0.033679   -0.092794   -0.056416   -0.063561
-0.033679   -0.084674   -0.068434   -0.038551   -0.064211   -0.043099   -0.058365
-0.017439    -0.08305   -0.058689   -0.038227   -0.019388   -0.020362    -0.04115
0.0043233   -0.061613    -0.04115   -0.034654    0.033231   0.0078962   -0.017114
0.025111   -0.024585    -0.02361   -0.027833      0.0865    0.036804   0.0062721
0.034206     0.01829  -0.0089938   -0.015165     0.12743    0.066362    0.021213
0.028034    0.054019   0.0010752   0.0023744     0.14951    0.092346    0.029009
0.011794    0.073507   0.0088706    0.016666     0.15114     0.11281    0.032582
-0.0031473    0.074806    0.012443    0.021863      0.1349      0.1219    0.038103
-0.0089938    0.061814    0.010495     0.01894     0.11021     0.11768     0.04395
-0.0044465    0.047523   0.0039985    0.011144    0.085525     0.10274    0.049147
0.0065969    0.037454  -0.0044465  0.00042559    0.063438    0.081303     0.05142
0.01829     0.03583   -0.013541   -0.013541    0.041027    0.057267    0.046223
0.029333    0.036154   -0.022636   -0.028807    0.014068    0.034206    0.037454
0.041027    0.038103   -0.029457   -0.041799    -0.01549    0.017316    0.026085
0.050121    0.042326   -0.030106   -0.049595   -0.041799    0.008221    0.012768
0.05272    0.048822   -0.029457   -0.050244   -0.063886   0.0017248  -0.0015233
0.045574    0.055968   -0.028807   -0.043748   -0.089546  -0.0044465  -0.0096434
0.029333    0.057592   -0.025234   -0.029782    -0.12138  -0.0063954  -0.0096434
0.0072465    0.050771    -0.01549   -0.011592    -0.16035  -0.0067202  -0.0031473
-0.016789    0.032582  -0.0054209   0.0095202    -0.21882  -0.0041217   0.0072465
-0.037902   0.0039985   0.0036737    0.025111    -0.31691  -0.0060706    0.014392
-0.051219   -0.028807   0.0056225    0.029983    -0.45073  -0.0089938    0.015042
-0.050569   -0.063237  0.00042559    0.026085    -0.59137  -0.0080194   0.0072465
-0.036602   -0.087597  -0.0099683    0.017316    -0.69336  0.00042559  -0.0034721
-0.015165   -0.095393   -0.018738   0.0088706    -0.72649   0.0062721   -0.013216
0.0075714   -0.082076   -0.021012  0.00042559    -0.68654   0.0072465   -0.020362
0.029658   -0.056091   -0.019063  -0.0096434    -0.59527   0.0046481   -0.027508
0.053369   -0.026858   -0.015815   -0.021012    -0.48256   0.0036737   -0.034329
0.074482  -0.0041217   -0.011592   -0.030431    -0.37083   0.0062721    -0.04115
0.090072   0.0072465  -0.0089938   -0.035628    -0.27436   0.0069217   -0.049595
0.10144   0.0075714  -0.0089938   -0.034978    -0.19316   0.0056225   -0.060313
0.11183  0.00010078   -0.008669   -0.029782    -0.11813   0.0017248   -0.070382
0.11963   -0.007045  -0.0096434   -0.025234   -0.044073  0.00042559   -0.076229
0.12288  -0.0063954   -0.013216    -0.02361    0.029658   0.0036737   -0.072656
0.11995   0.0026992   -0.018088    -0.02426    0.099492    0.009845   -0.057715
0.11346    0.013743   -0.020687   -0.025559     0.16478    0.015692   -0.033354
0.10924    0.024786   -0.021337    -0.02426     0.22357    0.016991  -0.0060706
0.10664    0.038428   -0.021986   -0.022961     0.27099    0.013093    0.015692
0.098842     0.05207   -0.022311   -0.021337     0.29697   0.0026992     0.02706
0.083901    0.061165    -0.02361   -0.016789      0.2986   -0.012892    0.024137
0.065387    0.059865   -0.026533  -0.0099683     0.27814   -0.025884   0.0062721
0.046223    0.048172   -0.030431  -0.0021729     0.23948   -0.031406   -0.020687
0.024786    0.031282   -0.036602   0.0056225     0.19596   -0.032705   -0.048945
0.0059473     0.01764   -0.044398    0.012768     0.16413   -0.029132   -0.069083
-0.0076946    0.013093   -0.049595    0.018615     0.14821   -0.022961   -0.077528
-0.015165    0.014068   -0.047971    0.021538     0.14432   -0.014191   -0.069733
-0.017764    0.019589   -0.037902    0.019914     0.15309  -0.0076946    -0.04927
-0.021337    0.021538   -0.022961    0.019264     0.17452   -0.008669   -0.026533
-0.025559    0.016991  -0.0083442    0.021213     0.19823   -0.014516  -0.0089938
-0.029782   0.0039985   0.0023744     0.02641     0.20311   -0.018088   0.0017248
-0.03303   -0.011592   0.0088706    0.030633     0.17192   -0.012567   0.0072465
-0.03303   -0.025884    0.013418    0.031282     0.10794 -0.00022403   0.0095202
-0.026209   -0.034978    0.016341    0.029009    0.037129    0.015367    0.011794
-0.014191   -0.038227    0.016016    0.025761   -0.014191    0.028684    0.016666
-0.0021729    -0.04115    0.011469    0.023487   -0.032705    0.030957    0.020564
0.0026992   -0.044723   0.0062721    0.024137   -0.022311    0.020888    0.021213
-0.0031473   -0.046671    0.009845    0.030308   0.0036737   0.0039985    0.015692
-0.014191   -0.046671    0.019589    0.039402    0.037778   -0.012242   0.0049729
-0.025559   -0.046996    0.032906    0.047847    0.076431   -0.023285  -0.0060706
-0.034004   -0.048296    0.046223    0.053369     0.11703   -0.026858   -0.015165
-0.037902   -0.048945    0.058241    0.057267     0.15438   -0.022311   -0.018738
-0.035303    -0.04927    0.067661    0.063763     0.18687   -0.012242   -0.012567
-0.026209   -0.050894    0.070909    0.069285     0.20668   0.0026992  0.00010078
-0.0083442   -0.052518    0.064413    0.070259     0.21058    0.019264    0.013743
0.013093   -0.048945    0.051096     0.06831     0.19953    0.029333    0.024461
0.032582   -0.039526     0.03518     0.06896      0.1742     0.02706    0.032906
0.044275   -0.025884    0.026735    0.073182     0.13652    0.016666    0.040702
0.049147  -0.0093186     0.02706    0.074806    0.087149   0.0059473    0.046223
0.051745   0.0091954    0.030633    0.070259    0.031607  0.00042559    0.047198
0.054344    0.025436    0.033556    0.063113    -0.02426  -0.0015233    0.039078
0.057592    0.040052    0.033881    0.055318   -0.072981  0.00042559     0.02706
0.061814    0.049147    0.030308    0.048822    -0.10838   0.0033489    0.017965
0.065712    0.049147     0.01829    0.038753    -0.12852   0.0033489    0.012119
0.067661    0.037454 -0.00022403    0.025436    -0.13859  -0.0028225    0.008221
0.063113    0.014392   -0.020037    0.010495    -0.13859   -0.012242   0.0075714
0.049147   -0.012242   -0.035953   0.0020496    -0.13145   -0.020037   0.0085458
0.029658   -0.034654   -0.045372   0.0023744    -0.11845   -0.021337    0.012119
0.016666   -0.045047   -0.045697    0.013743    -0.10286   -0.011592     0.01894
0.011794   -0.044073   -0.037252    0.028684   -0.089221   0.0072465    0.029983
0.0088706    -0.03303   -0.026533    0.037454   -0.075579    0.028034    0.042975
0.00042559    -0.01614   -0.018088    0.034206   -0.061613    0.045899     0.05272
-0.013216   0.0023744   -0.008669    0.020888    -0.04992    0.056617    0.055643
-0.029132    0.022512   0.0056225   0.0091954     -0.0405    0.059541    0.053044
-0.04115    0.042975    0.023487     0.01017   -0.030431    0.057917    0.051745
-0.048945    0.063763     0.03583     0.01894   -0.020362    0.055968    0.054344
-0.052843    0.079029    0.036479    0.023162   -0.012892    0.053044    0.060515
-0.051544    0.087799    0.024461    0.013743  -0.0073698    0.047523     0.06831
-0.044723    0.089098   0.0059473  -0.0050961  -0.0031473    0.037778    0.072208
-0.033354    0.083901   -0.011267    -0.02361  0.00010078    0.028684    0.071234
-0.016789    0.071883   -0.019712    -0.03303   0.0062721    0.017965    0.064737
0.0043233    0.056292   -0.021661   -0.032705    0.019589    0.009845    0.055643
0.025111    0.042651   -0.021012   -0.025884    0.045574   0.0062721    0.049472
0.038428     0.03453   -0.021337   -0.020362    0.088773   0.0049729    0.049147
0.04395    0.031932   -0.024585   -0.015815     0.14529   0.0036737    0.052395
0.040702    0.031932   -0.027508   -0.010293     0.20863   0.0026992    0.057917
0.028034    0.031607   -0.030431  -0.0028225     0.27261   0.0049729    0.062789
0.0095202    0.028684   -0.030106     0.01017     0.32913    0.008221    0.063113
-0.011267    0.021863   -0.027833    0.030957     0.37038    0.009845    0.054344
-0.029132     0.01017   -0.022636    0.056617      0.3824    0.011794    0.039078
-0.039851  0.00010078   -0.013216    0.073832     0.35771    0.014068    0.019264
-0.044398  -0.0041217  -0.0021729    0.076431     0.29535    0.014717   0.0059473
-0.042774 -0.00054884   0.0039985    0.064088     0.20895    0.014392   0.0033489
-0.035953   0.0039985   0.0039985     0.04395     0.11573    0.011144   0.0085458
-0.029782   0.0039985  -0.0021729    0.022512    0.033556    0.003024    0.015692
-0.028482  -0.0018481   -0.012892   0.0046481   -0.028157  -0.0073698    0.016991
-0.03303  -0.0076946   -0.025234   -0.008669   -0.070058   -0.019063    0.012119
-0.038551   -0.011267   -0.034329   -0.017439   -0.096692   -0.030106   0.0043233
-0.045697  -0.0093186    -0.03173   -0.022636    -0.11293   -0.036927  -0.0041217
-0.052193  -0.0031473   -0.019063   -0.026209    -0.12365   -0.039201   -0.011267
-0.053492   0.0059473  0.00075039   -0.028807    -0.13242   -0.036927    -0.01549
-0.045372    0.016016    0.023487    -0.03303    -0.14087   -0.036602   -0.015815
-0.031081    0.024137    0.046873   -0.040825    -0.14866   -0.042449   -0.012567
-0.018738    0.030633    0.064737   -0.051219    -0.15743   -0.053168  -0.0060706
-0.01614    0.032257    0.073832   -0.063237    -0.16782   -0.064211   0.0033489
-0.02361    0.027709    0.071883   -0.073306    -0.18082   -0.071682    0.012443
-0.034329    0.017316    0.065062   -0.075579    -0.19478   -0.079477     0.01829
-0.0405      0.0014    0.054019   -0.070058    -0.20843   -0.086623    0.019914
-0.040175    -0.01484    0.042001    -0.05739    -0.21687   -0.089546    0.016341
-0.032705   -0.025884    0.029658   -0.043423     -0.2146   -0.086623    0.010495
-0.020037   -0.030756    0.019264   -0.029132    -0.19966   -0.079152   0.0026992
-0.0067202   -0.028157   0.0095202   -0.018413    -0.17562   -0.072981 -0.00087364
0.0039985   -0.016789   0.0039985   -0.013216    -0.14899   -0.072006   0.0020496
0.0072465  0.00042559   0.0046481   -0.012242     -0.1269   -0.073631   0.0049729
0.0046481    0.020888    0.012443  -0.0099683    -0.11553    -0.07493  -0.0021729
-0.00022403    0.036804    0.020564  -0.0041217    -0.11488   -0.073955   -0.015165
-0.0037969    0.044275    0.021863    0.003024     -0.1191   -0.068758   -0.027183
-0.0024977    0.038103    0.013093    0.008221    -0.11521   -0.064536   -0.028482
0.0059473    0.021538  0.00075039   0.0095202   -0.087597   -0.062912   -0.022636
0.019264   0.0020496   -0.012567    0.009845   -0.041799   -0.060638   -0.013216
0.030308   -0.013216   -0.022636    0.009845   0.0020496   -0.056091  -0.0041217
0.029983   -0.017114   -0.025234     0.01017    0.025436    -0.04992   0.0056225
0.019589  -0.0099683    -0.02361    0.011144    0.019264   -0.044073    0.012119
0.0069217   0.0010752   -0.018413    0.012768   -0.013216   -0.039526    0.012768
-0.0041217   0.0091954   -0.014191    0.016016   -0.055116   -0.038876   0.0085458
-0.013216    0.011469   -0.011592    0.017316   -0.089221   -0.041475 -0.00087364
-0.020362   0.0072465  -0.0096434    0.016666    -0.10611   -0.044073  -0.0083442
-0.029132  0.00075039   -0.012567    0.015692    -0.10871   -0.047646   -0.012892
-0.038876  -0.0060706   -0.021661    0.013093    -0.10351    -0.04927   -0.012567
-0.046996   -0.013216    -0.03238   0.0088706   -0.097017   -0.050894  -0.0089938
-0.046671   -0.018413   -0.038227    0.003024   -0.093444   -0.052518  -0.0073698
-0.040825   -0.019712   -0.036278 -0.00054884   -0.097666   -0.054467  -0.0083442
-0.029457   -0.018738   -0.031081   0.0020496    -0.10968   -0.055116   -0.012892
-0.018088   -0.018738   -0.027183    0.008221     -0.1243   -0.052193   -0.019063
-0.0099683   -0.017764   -0.026533    0.017316    -0.13632   -0.044073   -0.022636
-0.0050961   -0.010293    -0.02361     0.02706    -0.14411   -0.034329   -0.022311
-0.00054884    0.011144   -0.017114    0.037129    -0.14736   -0.029782   -0.025559
0.0020496    0.045249  -0.0060706    0.050121    -0.14379   -0.032055   -0.034329
0.0026992    0.082602   0.0078962    0.063438    -0.13275   -0.038551   -0.045697
0.0049729     0.11183    0.020239     0.07708    -0.11391   -0.042449   -0.052518
0.0095202     0.12093    0.029333    0.088124   -0.087922   -0.041475   -0.051544
0.015042     0.10859    0.033881    0.091372   -0.062262   -0.035303   -0.044073
0.01764    0.081627    0.033556    0.082277   -0.042124   -0.027833   -0.033354
0.014068     0.05142     0.02706    0.063438   -0.027833    -0.02426   -0.023285
0.009845     0.02706    0.015042    0.044599   -0.020037   -0.024909    -0.01484
0.0072465    0.012443  0.00042559    0.029333   -0.017764   -0.026858  -0.0073698
0.0020496   0.0072465   -0.012892    0.022188   -0.019712   -0.030431  -0.0015233
-0.0076946   0.0062721   -0.021986    0.021863    -0.02361   -0.037577  -0.0011985
-0.017439   0.0036737   -0.023285    0.025111   -0.023285   -0.043099  -0.0073698
-0.022636  -0.0044465   -0.021661    0.029009   -0.014191   -0.043099   -0.013216
-0.02426   -0.019063   -0.021337    0.028034    0.003024   -0.038227   -0.013866
-0.022636   -0.039201   -0.020687    0.022837    0.026085   -0.029782   -0.012567
-0.015815   -0.059989   -0.019063    0.014717    0.049796   -0.020037   -0.010943
-0.0034721   -0.075255   -0.017114   0.0075714    0.070584  -0.0096434   -0.011592
0.011144   -0.081426   -0.017114   0.0017248    0.084876  0.00042559   -0.014516
0.021863   -0.076879   -0.019388  -0.0018481    0.095919   0.0049729   -0.017764
0.022188   -0.063886   -0.021337  -0.0076946     0.10534   0.0039985   -0.021986
0.008221   -0.048945   -0.023285    -0.01614     0.11411 -0.00054884   -0.029132
-0.016464   -0.036602   -0.027508   -0.029132      0.1219  -0.0076946   -0.037577
-0.0405    -0.03238   -0.034004   -0.044723     0.13165   -0.011917   -0.044398
-0.04992   -0.034329   -0.040825   -0.057065     0.14432   -0.010293   -0.046996
-0.037252   -0.034978   -0.047321   -0.061288     0.16315  -0.0050961   -0.040175
-0.012892   -0.031081   -0.051219   -0.055441     0.18134  -0.0015233   -0.028482
0.011794   -0.023285   -0.046671   -0.042124     0.19044  0.00075039   -0.019388
0.028684   -0.011592   -0.035303   -0.024585     0.18979  -0.0011985   -0.017114
0.036154 -0.00054884   -0.018738  -0.0031473     0.18232  -0.0044465   -0.017764
0.03583    0.011469   0.0020496     0.01764     0.17322  -0.0089938   -0.021012
0.033881    0.022188    0.020564    0.031932     0.16543   -0.014516   -0.024909
0.03518    0.030308    0.031607     0.03583     0.16056   -0.016464   -0.026858
0.040052    0.033881    0.033556    0.029658     0.15958  -0.0099683   -0.027183
0.043625     0.03518    0.028359    0.016341     0.16121   0.0017248   -0.026209
0.039402    0.037129    0.019589   0.0023744      0.1638    0.011469   -0.026533
0.026735    0.038428    0.014717  -0.0050961     0.16608    0.016666   -0.027508
0.01017    0.035505    0.012768  -0.0041217      0.1638    0.020239   -0.022636
-0.00087364    0.028034   0.0078962   0.0033489     0.14659    0.026085   -0.013541
-0.0037969    0.019264  0.00010078    0.011469     0.11021    0.033881  -0.0050961
-0.00022403    0.014717  -0.0093186    0.019914    0.054344    0.039727    0.003024
0.0088706    0.014068   -0.018413    0.025761   -0.020037    0.037778   0.0091954
0.01829    0.011794   -0.025884    0.023487    -0.11618    0.028034    0.013418
0.022837   0.0049729   -0.027183    0.012119    -0.23798    0.014068    0.014392
0.020564  -0.0057458   -0.024909  -0.0054209    -0.38545 -0.00022403    0.009845
0.015692   -0.017764   -0.026858   -0.028157     -0.5433   -0.012567 -0.00054884
0.014068   -0.026209   -0.036602   -0.052518    -0.67063   -0.023935   -0.012892
0.017965   -0.026858   -0.051544   -0.071357    -0.73429    -0.03303   -0.021986
0.030957   -0.021012   -0.062262   -0.079477    -0.72065   -0.037902   -0.027508
0.048172   -0.012567   -0.062912   -0.076229    -0.64269   -0.039201   -0.029782
0.063113  -0.0083442   -0.054142   -0.061288    -0.52446   -0.038551   -0.029457
0.06961  -0.0099683   -0.036927   -0.037252    -0.39551   -0.038227   -0.024585
0.069934   -0.016789   -0.018738   -0.011917    -0.27728   -0.034654   -0.016464
0.071234   -0.021337  -0.0073698   0.0078962    -0.17887   -0.031081  -0.0057458
0.075781   -0.017114  -0.0028225    0.019589    -0.10091   -0.029132   0.0075714
0.078704  -0.0047713 -0.00087364    0.022188   -0.037577   -0.026858    0.021538
0.075456    0.011144 -0.00054884    0.017965    0.013418   -0.017764    0.036804
0.059541    0.022837   0.0023744    0.013093    0.054019      0.0014    0.050771
0.030633    0.025111   0.0069217   0.0095202    0.084551    0.030308    0.060515
-0.0093186    0.018615   0.0091954    0.009845     0.10794     0.06084    0.065387
-0.051868   0.0065969    0.012119    0.012443     0.12483    0.081627    0.063763
-0.089221  -0.0096434    0.015692    0.016666     0.13165    0.088124    0.057267
-0.11196   -0.025559    0.020888    0.023162     0.12775    0.080978    0.048822
-0.11488   -0.035953    0.024786     0.02706     0.12125    0.065387    0.043625
-0.098965   -0.037902     0.02706    0.028034     0.11541    0.050446    0.040702
-0.071682   -0.033679    0.023162    0.029009     0.11216    0.042975    0.040702
-0.045047   -0.027183    0.010819    0.032257     0.11378    0.041027    0.040052
-0.030106   -0.022961   -0.008669    0.036804     0.11963      0.0433    0.042975
-0.027508   -0.020687   -0.026533      0.0433     0.12807    0.043625    0.046548
-0.030756   -0.021337   -0.036927    0.048172     0.13652    0.036804    0.048172
-0.03173   -0.021661   -0.039526    0.047847     0.14042    0.023162    0.045899
-0.024909   -0.020687   -0.034654    0.039402     0.13879   0.0065969    0.039402
-0.014191   -0.019388   -0.029457    0.023487      0.1323   -0.008669    0.026085
-0.0047713    -0.02426   -0.031406   0.0056225     0.12093   -0.019063    0.008221
-0.0037969    -0.03303   -0.035628  -0.0080194     0.10664   -0.021337  -0.0096434
-0.011267   -0.037902   -0.035303   -0.012567     0.09397   -0.013866   -0.019712
-0.015165   -0.026858   -0.029132  -0.0083442    0.088448 -0.00087364    -0.01549
-0.0083442   0.0036737    -0.01549   0.0043233    0.091047    0.015692    0.003024
0.0065969    0.046873   0.0072465    0.024137    0.093321    0.029658    0.022837
0.018615    0.088773    0.037778    0.045899    0.084226    0.033556    0.031282
0.024137     0.11541    0.069934    0.061165    0.062464    0.024137    0.025761
0.024461     0.12093    0.095269    0.061814    0.034855   0.0033489    0.014068
0.024786     0.10794     0.10631     0.05272   0.0052977   -0.020037   0.0026992
0.029658      0.0852     0.10209    0.040377   -0.019712   -0.039526  -0.0050961
0.03453    0.058891    0.084226    0.025111   -0.035628   -0.050244  -0.0054209
0.037778    0.035505     0.06019   0.0088706   -0.034978   -0.047971  0.00010078
0.03518     0.01894    0.039727  -0.0037969   -0.010618   -0.030756   0.0049729
0.029333    0.011794    0.034206   -0.011592    0.028034  -0.0047713   0.0056225
0.021213    0.010495    0.044275   -0.015165    0.074806     0.01894 -0.00022403
0.011144    0.010819    0.061165   -0.021012     0.11963    0.035505  -0.0047713
0.00010078   0.0085458    0.067986   -0.027833     0.15601    0.044599  -0.0057458
-0.0096434   0.0010752     0.06019   -0.031081     0.18134    0.047523 -0.00022403
-0.019063   -0.012242    0.044924   -0.029457     0.18654    0.045899   0.0085458
-0.024585   -0.025234    0.029983   -0.021986     0.16803    0.042326    0.017965
-0.022961   -0.034329    0.019914   -0.011592     0.13067    0.036479    0.027385
-0.016464   -0.037577    0.015367  -0.0031473    0.084551    0.029333    0.034206
-0.012567   -0.035303    0.012768  -0.0031473    0.043625    0.020239     0.03518
-0.013216   -0.030756   0.0091954  -0.0083442    0.016016    0.015692    0.033231
-0.018088   -0.023935   0.0026992   -0.010618   0.0046481     0.01764     0.03453
-0.020037   -0.017114   -0.008669  -0.0089938   0.0091954    0.022188    0.040377
-0.014516   -0.012892   -0.021661  -0.0031473    0.029333    0.024786    0.049472
-0.0024977   -0.010293   -0.028807   0.0078962     0.06019    0.020564    0.054344
0.010819   -0.011917   -0.029782     0.01829    0.098517   0.0085458    0.046548
0.019264    -0.01614   -0.027183    0.026735     0.14107   -0.012242    0.026735
0.021213   -0.020687   -0.024585    0.031932     0.18622   -0.034329   0.0020496
0.014717   -0.021012   -0.023285    0.037778     0.22682   -0.046996   -0.020037
0.0039985   -0.017114   -0.020037    0.042326     0.25378   -0.048945    -0.03173
-0.0047713   -0.010618    -0.01484    0.042001      0.2541   -0.047646   -0.035303
-0.011267  0.00010078  -0.0047713    0.037454      0.2161   -0.048296   -0.032055
-0.014191    0.013418   0.0072465    0.028684     0.13879    -0.04992   -0.025234
-0.011267    0.028359    0.014717    0.020239    0.033231   -0.045047   -0.012567
-0.0018481    0.040702    0.013743    0.014392    -0.07428   -0.031406   0.0052977
0.011794    0.044275   0.0091954    0.016341    -0.15808   -0.019388    0.025761
0.027385    0.040052   0.0075714    0.026085     -0.2029   -0.017439    0.040052
0.0433    0.029983     0.01017    0.041351     -0.2094   -0.024585    0.044924
0.050121    0.019914    0.011794    0.055643    -0.19348   -0.032705    0.041027
0.049796    0.015692    0.008221    0.062789    -0.16653    -0.03303    0.032582
0.046873    0.023812  0.00042559    0.058566    -0.13469    -0.02426    0.021863
0.045574    0.040052  -0.0073698    0.044599    -0.10286   -0.012567    0.010819
0.042001    0.052395  -0.0093186    0.028684   -0.073631  -0.0089938   0.0020496
0.031282    0.054344   0.0017248    0.015042   -0.052193   -0.017439  -0.0024977
0.013093    0.042001    0.019264   0.0046481    -0.03173   -0.030106  -0.0031473
-0.0083442    0.019264    0.032582  -0.0018481  -0.0096434   -0.038227  -0.0021729
-0.028807   -0.008669     0.03453  -0.0057458    0.013743   -0.037577  -0.0015233
-0.043748   -0.033679    0.023162  -0.0073698    0.033556   -0.029457  0.00042559
-0.050894   -0.047646   0.0062721   -0.012567    0.047198   -0.020037      0.0014
-0.053168   -0.047321  -0.0096434   -0.023935    0.053369    -0.01484  -0.0011985
-0.049595   -0.033354   -0.021986    -0.04115    0.064737   -0.012567  -0.0063954
-0.041799   -0.013541   -0.033679   -0.056091    0.088448   -0.010293   -0.011592
-0.030431   0.0039985   -0.043423   -0.064536     0.12353  -0.0080194   -0.013216
-0.018088    0.012443   -0.050894   -0.062262     0.15633  -0.0047713   -0.010618
-0.0054209    0.011794   -0.053492   -0.048296     0.18037      0.0014  -0.0028225
0.0078962   0.0069217   -0.051868   -0.024585     0.19693    0.011469    0.011469
0.01894   0.0033489   -0.044723   0.0052977      0.2135    0.022837    0.028034
0.024137   0.0026992   -0.035628    0.033231     0.23526     0.03518    0.039402
0.024786   0.0056225   -0.025884    0.053044      0.2567    0.047847    0.044275
0.023487   0.0085458   -0.017764    0.064737     0.26319    0.062789      0.0433
0.023487   0.0062721    -0.01484    0.071234      0.2463    0.074806    0.040052
0.023162  -0.0024977   -0.014516    0.074806     0.20343    0.076431    0.036479
0.021213   -0.011917   -0.017439    0.072208     0.14334     0.06961    0.030957
0.016666    -0.01549   -0.021661    0.063438    0.078704    0.061165    0.029658
0.013093   -0.007045   -0.027508     0.05272    0.010819    0.054668    0.033556
0.012443    0.012768   -0.030431    0.040702   -0.069408    0.050771    0.040702
0.016016    0.038428   -0.026209    0.026085    -0.17302    0.047847    0.048822
0.025436    0.062789   -0.018088   0.0072465    -0.29353    0.044924    0.055643
0.03518    0.075456   -0.017764   -0.011917    -0.41046    0.038753    0.062139
0.039727    0.074482   -0.028157   -0.027508    -0.50303    0.025436    0.061165
0.037778    0.062789   -0.047971   -0.036927    -0.55532   0.0085458     0.05272
0.029333    0.048497   -0.060313   -0.036927    -0.56896  -0.0063954    0.038753
0.020239    0.039402   -0.059989   -0.028157     -0.5524    -0.01484    0.022188
0.014392    0.038103   -0.047321   -0.015815    -0.51764   -0.020037    0.008221
0.012119    0.046223   -0.028157  -0.0044465    -0.48126   -0.027183  -0.0028225
0.010495    0.055643   -0.011592  0.00042559    -0.45106   -0.034329   -0.011592
0.009845    0.058566  -0.0028225  -0.0024977    -0.42865   -0.034004   -0.017114
0.01017    0.049472 -0.00054884   -0.010943    -0.41403   -0.025234   -0.021012
0.013743     0.02706  -0.0015233   -0.021661    -0.40071   -0.013541   -0.020687
0.022512 -0.00054884  -0.0037969    -0.03173      -0.377  -0.0057458   -0.017114
0.040377   -0.023285  -0.0050961   -0.042124    -0.33445  -0.0057458   -0.010618
0.064413   -0.033679  -0.0057458    -0.04862    -0.27079   -0.014516  -0.0034721
0.080653   -0.028807  -0.0076946   -0.048945    -0.19576    -0.02361  0.00010078
0.079679   -0.011917  -0.0067202    -0.04115     -0.1269   -0.028807  -0.0031473
0.061814   0.0085458  -0.0028225   -0.030756   -0.079152   -0.028482    -0.01484
0.034855    0.021863      0.0014   -0.021012   -0.056741   -0.024585   -0.033679
0.010495    0.024137   0.0033489   -0.011917   -0.054467   -0.020037   -0.051219
-0.0063954    0.017316  0.00075039  -0.0057458   -0.062912   -0.011592   -0.064536
-0.015815    0.003024  -0.0034721  -0.0047713    -0.06681  -0.0028225   -0.068758
-0.021337   -0.013541  -0.0073698   -0.012242   -0.052843   0.0020496   -0.066485
-0.025559   -0.027833    -0.01484   -0.029132   -0.011592 -0.00022403   -0.063561
-0.029132   -0.037577   -0.025234   -0.049595     0.05142  -0.0096434   -0.064536
-0.032705   -0.042124   -0.035953   -0.070058      0.1232   -0.027833   -0.068758
-0.036927   -0.046671   -0.043748   -0.088247     0.18264   -0.048945   -0.070382
-0.043423   -0.052518   -0.049595    -0.10221     0.22129   -0.068758   -0.065186
-0.054142   -0.059014   -0.055116    -0.10514     0.23851   -0.079152   -0.059014
-0.069083   -0.059014   -0.059014   -0.088247     0.24403   -0.074605   -0.054142
-0.085324   -0.050569   -0.060313   -0.054792     0.24825   -0.060313   -0.047646
-0.099615   -0.031081   -0.059339   -0.016789     0.25605   -0.043423   -0.040825
-0.10644  -0.0073698   -0.052518    0.013418     0.26677   -0.036602   -0.036602
-0.09929     0.01764   -0.036278    0.031932     0.27391     -0.0405   -0.036927
-0.08305    0.041351   -0.011917    0.040377     0.27489    -0.04927   -0.037902
-0.062587    0.059216    0.015367    0.042975     0.26579   -0.056091   -0.038551
-0.044073     0.06961    0.040377    0.044599     0.24436   -0.057715   -0.036927
-0.033679    0.073832    0.057267    0.048497      0.2122   -0.058365   -0.030106
-0.030106    0.073832    0.065387    0.051096     0.17387   -0.056741   -0.018738
-0.023935    0.073507    0.067661    0.049796     0.13425   -0.055116  -0.0099683
-0.008669    0.072858    0.068635    0.046223    0.095919    -0.04927  -0.0076946
0.011144    0.072858    0.070259    0.044924    0.060515   -0.041475   -0.011917
0.025761    0.070584    0.069934     0.05142    0.027709   -0.033679   -0.020687
0.029983    0.062464    0.067336    0.061814 -0.00022403   -0.027833   -0.028157
0.023812    0.047198    0.061489    0.066362   -0.022636   -0.023935   -0.031081
0.0085458     0.02641    0.049147    0.057917   -0.036927    -0.02361   -0.032705
-0.013866   0.0023744    0.033231    0.037778   -0.043423   -0.025234    -0.03303
-0.042774   -0.016464    0.016666    0.018615   -0.046022   -0.027183   -0.029457
-0.069083    -0.02426   0.0033489    0.010495   -0.046022   -0.026533   -0.020362
-0.080451   -0.022311  -0.0015233    0.015042   -0.041799   -0.021986  -0.0073698
-0.072331   -0.014516      0.0014    0.025111   -0.034654   -0.012892   0.0062721
-0.04992  -0.0067202    0.011144    0.034855   -0.028482   0.0020496    0.017316
-0.023285  -0.0028225    0.022512    0.040377   -0.025884    0.017965    0.021863
-0.0024977 -0.00054884    0.029658    0.040052   -0.029782    0.030633    0.017316
0.01017   0.0039985    0.031282    0.036479   -0.038227     0.03583   0.0069217
0.016991    0.010819    0.027709    0.033556   -0.044398     0.03518  -0.0041217
0.015367    0.015692    0.019914    0.032582   -0.045372    0.034206   -0.012892
0.0014    0.016016     0.01017    0.033231   -0.037252    0.036154   -0.017764
-0.02426    0.011794   0.0039985    0.033556    -0.01484    0.040377   -0.020037
-0.052843   0.0056225   0.0056225    0.030957    0.016016      0.0433    -0.01484
-0.073306  0.00010078    0.014717    0.022512    0.042326    0.042326  -0.0057458
-0.079152 -0.00087364    0.024786    0.010819    0.053369    0.036479   0.0010752
-0.070058   0.0072465    0.030308   0.0023744    0.044924    0.022837   0.0046481
-0.053817    0.023487    0.029009  -0.0037969    0.019264   0.0023744   0.0026992
-0.037577    0.044599    0.024137  -0.0076946   -0.018413   -0.017764  -0.0021729
-0.025884    0.062789    0.021213  -0.0083442   -0.058689   -0.027183  -0.0047713
-0.024585    0.071558    0.022188  -0.0063954   -0.089871   -0.021661  -0.0021729
-0.033679    0.067011    0.021213   0.0010752    -0.10286  -0.0063954   0.0049729
-0.046347    0.050446     0.01829    0.016666   -0.096367    0.008221    0.018615
-0.048296    0.027385    0.012768    0.034855   -0.072331    0.016666     0.03518
-0.032055   0.0023744    0.003024    0.044924   -0.040175     0.01829    0.050771
-0.0037969   -0.021012   -0.010293    0.042651   -0.013866    0.014068    0.063113
0.026735   -0.043748   -0.022636    0.031932   0.0017248   0.0072465    0.066686
0.054344    -0.06616   -0.030431    0.022188    0.012443   0.0036737    0.062464
0.073832     -0.0837   -0.034004     0.01894    0.024137   0.0039985    0.054019
0.085525   -0.089546   -0.032055    0.022512     0.03583   0.0069217    0.045249
0.092021   -0.077528   -0.025884     0.02706    0.048822    0.012119    0.038753
0.092021    -0.04992   -0.016789    0.032906    0.064413    0.013743    0.031932
0.082927   -0.019712  -0.0063954    0.038103    0.083251    0.010495    0.022188
0.064088   0.0059473   0.0052977    0.042326     0.10209   0.0043233    0.012119
0.039078     0.01894    0.016666    0.042975     0.11736 -0.00054884   0.0069217
0.020239    0.020239    0.023812    0.041351     0.12678 -0.00022403    0.010495
0.011469    0.012768    0.023487    0.036804     0.13295   0.0056225    0.021213
0.012768   0.0017248    0.014717    0.033881     0.13912    0.015042     0.03453
0.023487  -0.0083442  -0.0011985     0.03453     0.14399    0.029009    0.047523
0.040052   -0.017764   -0.017114    0.039727     0.14886    0.039078    0.054344
0.057592   -0.024585   -0.023285    0.045899     0.14886    0.040052    0.054344
0.067336   -0.027508   -0.017764    0.049147     0.14204    0.030633    0.047523
0.065062   -0.025884  -0.0044465    0.050446     0.12515    0.015692    0.038428
0.054344   -0.020037    0.010819    0.049147    0.093645  -0.0011985     0.02706
0.041027    -0.01484    0.023812    0.048172    0.045574    -0.01484    0.017316
0.027709   -0.012567    0.031607    0.045899    -0.01614    -0.02426    0.011469
0.015367   -0.013216    0.030633    0.041027   -0.090196   -0.032055   0.0046481
0.0036737    -0.01484     0.01829    0.035505    -0.18017     -0.0405  -0.0037969
-0.0050961    -0.01549  -0.0015233    0.027709     -0.2984   -0.048945   -0.012892
-0.011592   -0.017114    -0.02426    0.016341    -0.45236   -0.058365   -0.015165
-0.013541   -0.022961   -0.042449  -0.0021729     -0.6245   -0.063886  -0.0093186
-0.0076946    -0.02361   -0.051544   -0.029132    -0.77262    -0.06616   0.0039985
0.0065969  -0.0096434   -0.051219   -0.059014    -0.85057   -0.060963    0.020888
0.024461     0.01894   -0.043099   -0.082725     -0.8392   -0.053168    0.034855
0.038753     0.05142   -0.027183   -0.092794    -0.74403   -0.044398    0.044924
0.042651    0.076106  -0.0096434   -0.087922    -0.59332   -0.034654    0.048822
0.040377      0.0852   0.0059473   -0.065835     -0.4176   -0.022961    0.046873
0.038103    0.081952    0.016016   -0.038227    -0.24188   -0.008669    0.042651
0.037778    0.070909    0.023812   -0.016464     -0.0837  0.00075039    0.041676
0.038428    0.057917     0.03583  -0.0067202    0.042001   0.0010752    0.041676
0.036479    0.050121    0.050446  -0.0063954      0.1284   -0.008669    0.034855
0.031282    0.048822    0.059865   -0.011267     0.17582   -0.022961    0.017316
0.020564    0.048822    0.062139    -0.01484     0.18849   -0.036927   -0.008669
0.0039985    0.045899    0.053694   -0.016789     0.18004   -0.041799   -0.034004
-0.010293    0.038428    0.035505   -0.015815     0.15698   -0.045697   -0.048945
-0.017114    0.032257    0.016341   -0.010618     0.12678   -0.050569   -0.045372
-0.014516    0.026085   0.0017248  -0.0018481    0.098517   -0.051868   -0.027183
-0.0060706    0.018615  -0.0054209   0.0062721    0.082927   -0.047646  -0.0044465
0.003024    0.008221  -0.0093186    0.011794    0.085525   -0.037577    0.012768
0.0085458  -0.0060706   -0.010943    0.014717     0.10144   -0.023935    0.023162
0.011794   -0.019712   -0.011917    0.016341     0.12743    -0.01549    0.025761
0.014068   -0.031406   -0.015165    0.016666     0.15763   -0.016464     0.01894
0.017965   -0.037577   -0.023285    0.016666     0.18557   -0.022311   0.0017248
0.02706   -0.033679   -0.033679    0.014717     0.20603   -0.026858   -0.016789
0.040702   -0.016789   -0.043099    0.011469     0.22065   -0.023285   -0.026858
0.055968    0.009845   -0.047646    0.008221     0.23331   -0.011917   -0.028157
0.064413    0.037129   -0.044073   0.0091954     0.24598   0.0033489   -0.023285
0.061489    0.057592   -0.033679    0.012443     0.25865    0.015367   -0.017114
0.049472    0.063438   -0.021012    0.012768     0.26384    0.018615   -0.011267
0.032582    0.053044   -0.016789   0.0069217      0.2502    0.013418  -0.0076946
0.01894    0.030308   -0.022311  -0.0034721      0.2096   0.0046481  -0.0080194
0.013418   0.0017248   -0.034978   -0.017439     0.14107  -0.0050961   -0.011267
0.0095202   -0.024585    -0.04862   -0.031406    0.061814   -0.015815   -0.014191
0.0020496   -0.042124   -0.056091   -0.042449  -0.0018481   -0.028807    -0.01549
-0.0096434   -0.050894   -0.056741   -0.046671   -0.024909     -0.0405   -0.016464
-0.025234   -0.052193   -0.053492   -0.042124  -0.0054209   -0.046347    -0.01549
-0.041475   -0.050244   -0.050569    -0.03173    0.033881   -0.047971   -0.012242
-0.058365   -0.045372   -0.047646   -0.018088    0.066037   -0.045047   -0.012567
-0.069733   -0.038551   -0.044073  -0.0067202    0.072208   -0.041475    -0.01549
-0.076229    -0.03238   -0.040825  -0.0047713    0.054344   -0.037902   -0.018738
-0.077853   -0.031081   -0.037252   -0.013866    0.024786    -0.03173   -0.018088
-0.077528   -0.035303   -0.033679   -0.027833  -0.0034721    -0.02426   -0.014516
-0.073955   -0.042774   -0.032055   -0.039201   -0.022636   -0.017764   -0.010293
-0.061288   -0.053817   -0.036602   -0.041475   -0.028807   -0.013866  -0.0096434
-0.038876   -0.068109   -0.047646   -0.037252   -0.025884   -0.017439  -0.0096434
-0.013541    -0.08305   -0.060313   -0.028157   -0.019388   -0.029132   -0.010618
0.0075714    -0.09117   -0.064861   -0.013216  -0.0096434   -0.039526   -0.011267
0.021538   -0.085324   -0.056741   0.0046481  -0.0034721   -0.046022  -0.0096434
0.030633   -0.067134   -0.036602    0.020888  -0.0034721   -0.046671  -0.0060706
0.036154   -0.044723   -0.010943    0.031932  -0.0037969   -0.043099  -0.0034721
0.041027   -0.025234    0.011794     0.03453  0.00042559   -0.039201  -0.0050961
0.04395   -0.013541    0.025436    0.026735    0.011794   -0.037577   -0.010618
0.041027   -0.014191    0.027385    0.016991    0.023812   -0.039526   -0.016789
0.029658   -0.023935    0.020239    0.010819    0.029658   -0.043099   -0.017439
0.0088706   -0.035953    0.013093    0.008221    0.027385   -0.046671    -0.01614
-0.020037   -0.044723    0.012443    0.008221    0.020239   -0.046022   -0.018738
-0.051868    -0.04862    0.022837   0.0095202    0.013418   -0.039851   -0.028807
-0.074605   -0.042449    0.038428    0.014392    0.010819   -0.025559   -0.037577
-0.075904   -0.025559     0.05207     0.02641   0.0088706  -0.0096434   -0.035628
-0.052843  -0.0041217    0.061489     0.04395   0.0033489    0.003024   -0.017764
-0.016464    0.016341    0.068635    0.060515  -0.0063954   0.0078962   0.0065969
0.018615    0.027385    0.069285    0.067336   -0.017439   0.0065969    0.030308
0.039078    0.027385    0.058241    0.064413   -0.023935   0.0043233    0.045249
0.046548    0.017965      0.0433    0.055318   -0.025884   0.0069217    0.049147
0.044924   0.0049729    0.026085    0.045249   -0.025884    0.012443    0.045899
0.038753  -0.0096434     0.01017    0.034855   -0.025234    0.015367    0.039727
0.029658   -0.019712  -0.0047713    0.028034   -0.021337    0.012443    0.034206
0.024137   -0.025559    -0.01549    0.025436   -0.013216   0.0078962    0.030633
0.025111   -0.023285   -0.017114    0.028359   0.0017248   0.0043233    0.031282
0.034855   -0.015165  -0.0041217    0.036154    0.022188   0.0059473     0.03518
0.044275  -0.0034721    0.019264    0.045899    0.043625    0.014392    0.041676
0.046548    0.010819     0.04395    0.054344     0.06019    0.029658    0.050121
0.041351    0.025111    0.061165    0.059216    0.070909    0.047198    0.061489
0.03518    0.038753    0.064413     0.06019    0.075781    0.062139    0.074157
0.029658    0.051745    0.057267    0.059865    0.076755    0.072858    0.080653
0.024461     0.06084    0.044924    0.058241     0.06961    0.080978    0.076755
0.020564    0.064088    0.029658    0.056942    0.055318    0.083576    0.062139
0.01894    0.061814    0.016341    0.054344    0.041027    0.078055    0.039078
0.019589    0.057592   0.0085458    0.049796    0.033231    0.065712    0.010819
0.01829     0.05142   0.0049729    0.043625    0.032906     0.05142   -0.017439
0.011794    0.044924   0.0039985    0.034206    0.038753    0.037454   -0.040825
-0.0031473    0.037454   0.0036737    0.021213     0.05142    0.027709   -0.056416
-0.025559    0.032257 -0.00087364   0.0052977    0.064088    0.021863    -0.06551
-0.049595    0.033231  -0.0099683  -0.0089938     0.06961    0.021538   -0.065186
-0.06681    0.034855   -0.022311   -0.016464    0.069285    0.018615   -0.055116
-0.072656    0.031932   -0.037577   -0.018738     0.06084    0.014068   -0.037902
-0.065186    0.022837   -0.056091    -0.01484    0.048822   0.0088706   -0.019388
-0.055116    0.010819   -0.071357  -0.0063954    0.037454     0.01017  -0.0018481
-0.047646  -0.0031473   -0.076879   0.0020496    0.029009     0.01894    0.013743
-0.043099   -0.012567   -0.069733   0.0075714    0.023487    0.030633    0.021863
-0.040175  -0.0099683   -0.050244    0.009845    0.016016    0.039078    0.022837
-0.036602   0.0046481   -0.025884   0.0088706   0.0056225    0.037454     0.01829
-0.027508    0.030308  -0.0024977   0.0052977   -0.010293    0.022512   0.0078962
-0.01484    0.057917    0.016341  0.00010078   -0.028482  -0.0018481  -0.0050961
-0.00087364    0.083251    0.028034  -0.0011985   -0.047321   -0.025884   -0.014516
0.010819    0.095919    0.032257    0.003024   -0.061937   -0.042774   -0.021337
0.019589    0.093645    0.029658   0.0085458   -0.067784    -0.04862   -0.023285
0.029009    0.080653     0.02641    0.013093   -0.067134   -0.044398   -0.019388
0.040052     0.06896     0.02641    0.014392   -0.060963   -0.034978   -0.010293
0.050771    0.067011    0.028684    0.014717   -0.051868   -0.021337 -0.00087364
0.058566     0.07773    0.032257    0.016016   -0.045697  -0.0073698   0.0046481
0.058566    0.089423     0.03583     0.01764   -0.046996    0.003024   0.0075714
0.047523    0.092996    0.038103    0.017316   -0.056416   0.0072465   0.0062721
0.026735    0.084551     0.03453    0.011794   -0.071032   0.0069217   0.0026992
-0.0015233    0.066686    0.028684   0.0052977   -0.090521   0.0062721  -0.0021729
-0.026533    0.043625     0.01829 -0.00087364    -0.11261   0.0023744  -0.0031473
-0.047646    0.023162   0.0023744  -0.0089938    -0.13437  -0.0063954  -0.0028225
-0.062587   0.0052977   -0.016464   -0.018413    -0.14996   -0.018738  -0.0011985
-0.068109   -0.010618    -0.03303   -0.026533    -0.15613   -0.027508  0.00010078
-0.064211   -0.025559   -0.043099   -0.031081    -0.15061   -0.030106 -0.00054884
-0.055441   -0.036278   -0.042124   -0.034004    -0.13827   -0.027183  -0.0028225
-0.046022   -0.039526   -0.028157   -0.039201    -0.12982   -0.021986  -0.0096434
-0.039526   -0.035628   -0.010618   -0.046347    -0.12852   -0.023285   -0.019712
-0.036927   -0.028157      0.0014   -0.053492    -0.12885   -0.027183   -0.027508
-0.034978   -0.022961   0.0036737   -0.053492    -0.12365   -0.028807   -0.027833
-0.027183    -0.02361  -0.0021729   -0.042774    -0.10806   -0.026209   -0.017439
-0.011267   -0.027508   -0.011917    -0.02426   -0.079802   -0.018413   0.0026992
0.0078962   -0.029457   -0.023285  -0.0024977   -0.046996  -0.0054209    0.026735
0.029333   -0.025234    -0.03173    0.019914   -0.017764    0.010495    0.044924
0.045899   -0.010293   -0.035303     0.03583   0.0017248    0.020239    0.054993
0.046873    0.015042   -0.031406    0.037778   0.0059473    0.019264    0.057592
0.033556    0.042001   -0.019388     0.02706  -0.0083442   0.0046481    0.049472
0.015042    0.061489  -0.0073698   0.0088706    -0.03238   -0.019063    0.031932
-0.0018481     0.06831      0.0014  -0.0096434    -0.04927   -0.041475    0.009845
-0.017114    0.063438   0.0026992   -0.022311   -0.051219   -0.054792  -0.0099683
-0.030756    0.049472  -0.0034721   -0.024585   -0.039526   -0.059339   -0.023285
-0.045047    0.030308   -0.013866   -0.020362   -0.019063   -0.060963   -0.030431
-0.059989   0.0078962   -0.021661   -0.011267   0.0062721   -0.065186   -0.032055
-0.071357    -0.01549   -0.021661  -0.0011985    0.037778   -0.072981    -0.03238
-0.07493   -0.041799   -0.019388   0.0059473    0.072858   -0.080776   -0.034654
-0.070382   -0.071682   -0.018088   0.0052977     0.10177   -0.088572   -0.036927
-0.057065   -0.096367   -0.020037  -0.0054209     0.11541   -0.095068   -0.030431
-0.036602    -0.10384   -0.021661    -0.01549     0.11346   -0.096367   -0.014191
-0.011592   -0.090196   -0.015165   -0.015815    0.097543   -0.091495   0.0078962
0.013093   -0.061937 -0.00022403  -0.0037969    0.066362   -0.080127    0.029333
0.032257   -0.032705    0.015692     0.01017    0.011469    -0.06681     0.04395
0.040052   -0.013541    0.026085    0.016016   -0.069408   -0.056091    0.047198
0.03583  -0.0073698    0.025761   0.0095202     -0.1701   -0.053168    0.036479
0.021213   -0.012242    0.017965  -0.0037969    -0.27111   -0.054467    0.018615
0.00075039   -0.019712   0.0059473   -0.016789    -0.34614   -0.056416   0.0036737
-0.019388   -0.027833  -0.0063954   -0.024585    -0.37538   -0.053168  -0.0054209
-0.030431   -0.033354   -0.018088   -0.023285    -0.35394    -0.04862  -0.0067202
-0.028482   -0.035628   -0.029782  -0.0096434    -0.29125   -0.044073  -0.0031473
-0.014516    -0.03173    -0.04115     0.01017    -0.20225   -0.037252   0.0043233
0.0056225   -0.021012   -0.053168    0.031282    -0.10806   -0.029457    0.012119
0.024461  -0.0034721   -0.060313    0.047198   -0.020687   -0.021337    0.016991
0.038103    0.020564   -0.061288    0.053369    0.053044   -0.010618     0.01894
0.042326     0.04395   -0.053817    0.053369     0.10599   0.0010752    0.017965
0.039402    0.057917   -0.038227    0.054344     0.13295   0.0095202    0.014068
0.030957    0.056292   -0.016464    0.059216     0.13522    0.012443   0.0095202
0.016016    0.038103   0.0023744    0.065712     0.11995   0.0095202   0.0095202
-0.00054884   0.0075714    0.009845     0.06831    0.096569   0.0043233    0.014717
-0.011267   -0.021337    0.003024    0.062789    0.075131  0.00010078    0.023487
-0.0093186   -0.043423   -0.014191    0.050771    0.060515   0.0010752    0.033556
0.0039985   -0.054792   -0.030756    0.037129     0.05272    0.009845    0.037778
0.021213   -0.053492   -0.035303    0.027709     0.05142    0.020888     0.03518
0.03453   -0.039526   -0.022636    0.022837     0.05272    0.029009    0.028684
0.038428   -0.016789 -0.00022403    0.023162    0.054993    0.032582    0.023162
0.030308   0.0095202    0.022837    0.029333    0.057592    0.032257    0.021863
0.012119    0.030633    0.040377    0.042975    0.062139    0.032257    0.022512
-0.012892    0.042975    0.050446    0.057592    0.071883    0.036804    0.026085
-0.037902    0.045574    0.051745    0.066686    0.084226    0.044275    0.031607
-0.055766    0.039078    0.046873    0.065712     0.09397    0.050446    0.033881
-0.06551    0.030633    0.040052    0.054668    0.098517    0.050121    0.029333
-0.067134    0.022188    0.033556    0.036804    0.093645    0.040702     0.01829
-0.059989    0.019589    0.023812    0.014717    0.078379    0.027709   0.0095202
-0.039201    0.023487     0.01017  -0.0073698    0.049796    0.013743   0.0072465
-0.0089938    0.031932  -0.0067202   -0.027833    0.012119   0.0036737   0.0085458
0.021863    0.040377   -0.021012   -0.045047   -0.029132  0.00075039   0.0085458
0.045899    0.042975   -0.029132   -0.056741   -0.072006   0.0010752   0.0075714
0.062789    0.040702    -0.03173   -0.062587    -0.10903  0.00010078   0.0056225
0.067011     0.03518   -0.029782   -0.062912    -0.13404  -0.0015233      0.0014
0.06084    0.031282    -0.02361    -0.05739    -0.13859  -0.0018481  -0.0060706
0.046548    0.031607    -0.01549    -0.04862    -0.12008  0.00075039   -0.012242
0.033231    0.035505  -0.0041217   -0.042449     -0.0837   0.0059473   -0.015815
0.029983    0.041351    0.008221   -0.038227   -0.039201   0.0095202   -0.017114
0.037454    0.044275    0.020888   -0.035628   0.0033489    0.008221    -0.01614
0.048822    0.043625    0.030633   -0.031406    0.040377   0.0017248    -0.01549
0.061165    0.036479    0.035505   -0.026533     0.06896  -0.0024977    -0.01484
0.066362    0.024461     0.03453   -0.018088      0.0852  -0.0021729   -0.015815
0.059216     0.01017    0.029333  -0.0093186     0.08585  0.00042559   -0.018088
0.03453  0.00075039    0.022837  -0.0050961    0.069934   0.0023744   -0.020687
0.0010752    0.003024    0.019264  -0.0093186     0.04395   0.0033489   -0.021661
-0.026858    0.015367    0.017316   -0.015815    0.013743   0.0026992   -0.025559
-0.039526    0.033881    0.015692   -0.019063   -0.019063  -0.0018481   -0.034654
-0.037577    0.052395    0.012768   -0.020687   -0.052518   -0.011592   -0.046022
-0.025884    0.063438    0.011794   -0.021337   -0.086298   -0.022636   -0.055766
-0.0096434    0.063763    0.012119   -0.018413    -0.11943   -0.030431   -0.059014
0.0039985    0.058891    0.011469  -0.0096434    -0.15418   -0.027833   -0.051219
0.013093    0.050446   0.0088706 -0.00022403    -0.19219   -0.014191   -0.037577
0.016016    0.041676   0.0049729   0.0052977    -0.23344   0.0062721   -0.021661
0.016666    0.030633  0.00075039   0.0039985    -0.27599    0.028359  -0.0099683
0.01764    0.017965  -0.0031473   0.0017248    -0.31204    0.042001  -0.0031473
0.023487  0.00042559  -0.0099683    0.003024    -0.33445    0.045249 -0.00087364
0.032257   -0.021986   -0.024909    0.009845    -0.33802    0.040702 -0.00054884
0.038103   -0.048945   -0.045372    0.021538    -0.32536    0.031607 -0.00054884
0.033881   -0.072006   -0.059989    0.027709    -0.30165    0.015367  -0.0034721
0.021213   -0.085324   -0.063237    0.020239    -0.26981  -0.0073698  -0.0089938
0.0072465   -0.085973   -0.054467   0.0020496    -0.22694    -0.03173   -0.015815
-0.0024977   -0.075255   -0.036927   -0.022311    -0.17822   -0.054792   -0.018413
-0.0063954   -0.057715   -0.015815   -0.046347    -0.11813   -0.073306   -0.013541
-0.0089938   -0.037902   0.0062721   -0.063886   -0.051219     -0.0837  -0.0041217
-0.011267   -0.021337    0.024137   -0.067459    0.013743   -0.081751   0.0072465
-0.012242   -0.012892    0.034206   -0.059014    0.069285   -0.070058    0.016341
-0.010943   -0.008669    0.034206   -0.039201     0.11086    -0.05804    0.020564
-0.0047713  -0.0047713    0.025436   -0.013216     0.13749   -0.047646    0.019264
0.0046481 -0.00022403    0.016341    0.010495     0.15211   -0.038551    0.014717
0.012443   0.0039985    0.008221    0.027385     0.15828   -0.029457   0.0062721
0.011144   0.0020496  -0.0015233    0.035505     0.16153   -0.021986   0.0017248
0.0046481   -0.007045   -0.014191    0.037778     0.16153   -0.018738   0.0026992
-0.0034721   -0.013866    -0.02361    0.036154     0.16056   -0.022311   0.0072465
-0.0063954   -0.012242   -0.023935    0.033231     0.16868   -0.033679   0.0091954
0.00042559  -0.0044465   -0.014191    0.031932     0.19336   -0.046022   0.0039985
0.015042   0.0026992  0.00075039    0.033881     0.23364    -0.04862  -0.0050961
0.028034   0.0043233    0.014392    0.036804     0.28398   -0.037252   -0.015165
0.032257   0.0033489    0.021213    0.038428     0.32946   -0.019063   -0.020362
0.029009   0.0046481    0.020239    0.040702     0.35771  -0.0037969   -0.018738
0.023812    0.011469     0.01829    0.039727     0.37071   0.0039985   -0.011592
0.022188    0.026085    0.020564    0.039727     0.37655   0.0091954 -0.00022403
0.019914    0.046548    0.028359      0.0433     0.37948    0.015042    0.014392
0.012443    0.066362    0.036804    0.046873     0.38142    0.022512    0.032906
0.0017248     0.07708    0.043625    0.048172     0.38272    0.028684     0.05142
-0.010293    0.073182    0.047847    0.046223     0.38175    0.028684    0.063113
-0.019388    0.055968    0.047198    0.044275     0.37915    0.025111    0.064413
-0.024585    0.032582    0.038428    0.040702     0.37623     0.01829    0.054668
-0.029132   0.0059473    0.021863    0.034206     0.37168   0.0091954    0.037129
-0.035628   -0.016789   0.0049729    0.021213     0.36226  -0.0037969     0.01764
-0.043099   -0.030106  -0.0067202   0.0023744       0.347   -0.018738      0.0014
-0.044073   -0.031081  -0.0096434   -0.017114     0.32621   -0.032705  -0.0093186
-0.034329   -0.021986  -0.0037969   -0.034329      0.2908   -0.038227   -0.012567
-0.016789  -0.0096434   0.0059473   -0.044723     0.22097   -0.037577  -0.0067202
0.0026992  -0.0028225    0.011794    -0.04927    0.087149   -0.033679   0.0059473
0.020564  -0.0060706    0.008221   -0.050894    -0.13697   -0.033679    0.020888
0.03453    -0.01549  -0.0073698   -0.049595    -0.45658   -0.036602    0.033231
0.04395   -0.022636   -0.026209   -0.045047    -0.82913   -0.042774    0.040377
0.048172    -0.01614   -0.042774   -0.037902     -1.1663   -0.053168    0.040702
0.044599   0.0049729    -0.04992   -0.031081     -1.3829   -0.062587     0.03583
0.031282    0.031932   -0.047971   -0.025884     -1.4339   -0.065186    0.029658
0.014068    0.050446    -0.04115   -0.022636     -1.3225   -0.060963    0.025436
-0.0034721     0.05207   -0.030431   -0.017764     -1.0945   -0.050244    0.024461
-0.021986    0.038428   -0.017764  -0.0096434    -0.81744   -0.037902    0.021538
-0.038876    0.014717  -0.0037969   0.0017248    -0.55142   -0.028807    0.016666
-0.051219   -0.010943   0.0062721    0.013743    -0.33413   -0.024585     0.01017
-0.057715   -0.033679     0.01017    0.025436    -0.17562   -0.024585   0.0085458
-0.054467   -0.046022   0.0085458    0.033556   -0.061613   -0.021337    0.018615
-0.042124   -0.047646   0.0046481    0.036154    0.024137   -0.011267    0.037454
-0.02361   -0.039526  -0.0024977    0.031282    0.091047   0.0039985    0.056292
-0.00087364   -0.027833  -0.0060706    0.024461     0.14139    0.014392    0.064088
0.023487    -0.01484  -0.0050961    0.021213     0.17907    0.016666    0.056617
0.038753  -0.0050961  -0.0018481    0.022188     0.20765   0.0085458    0.036479
0.042001 -0.00054884   0.0039985    0.026085     0.22584  -0.0050961   0.0088706
0.033881      0.0014    0.013743    0.030957     0.23364   -0.016789   -0.020687
0.019589   0.0036737    0.023162    0.036479     0.23591   -0.023935   -0.045047
0.0088706    0.012119    0.033881    0.041351     0.24078   -0.025884   -0.060313
0.0056225     0.02706    0.038753     0.04395     0.25085   -0.025559   -0.066485
0.0059473    0.044924    0.033556    0.044599     0.26514   -0.023935    -0.06616
0.0059473    0.057267    0.019264    0.041676     0.27781    -0.02426   -0.061937
0.00075039    0.059541   0.0036737    0.037454     0.29113   -0.025234   -0.053168
-0.007045    0.051745  -0.0041217    0.039727     0.31159   -0.020362   -0.038551
-0.016464    0.040052  -0.0011985    0.051745      0.3392  -0.0037969   -0.016789
-0.025884    0.027709   0.0065969    0.066362     0.36421    0.022512    0.010819
-0.034978    0.012119    0.013418    0.074157     0.38013    0.051745     0.03583
-0.042774  -0.0037969    0.017316    0.071234      0.3798    0.074806     0.05272
-0.047321    -0.01549    0.019264    0.064737     0.36161    0.083901     0.06019
-0.043423    -0.02426    0.015367    0.059541     0.32458    0.076106    0.056617
-0.033354   -0.031081   0.0059473    0.062464     0.27814    0.057917    0.045574
-0.022636   -0.035953  -0.0076946     0.06896     0.22714    0.040702    0.029658
-0.017114   -0.041799   -0.020687    0.070584     0.17907    0.032906    0.014392
-0.018738   -0.047321   -0.029457    0.066037     0.14074     0.03453   0.0056225
-0.026209   -0.052843   -0.031081    0.062464     0.11216    0.041351   0.0059473
-0.04115   -0.056091   -0.027833    0.063438    0.095269    0.043625    0.009845
-0.056416   -0.054467   -0.021661     0.06831    0.086824    0.035505   0.0085458
-0.064536   -0.044398   -0.013541    0.067336    0.082277    0.023487 -0.00054884
-0.061288   -0.027183  -0.0099683    0.056617    0.074806    0.015692   -0.013866
-0.04862  -0.0073698   -0.013216    0.038428    0.063438    0.014392   -0.028157
-0.032055   0.0095202   -0.024585    0.017965    0.061165    0.019914   -0.035303
-0.01549    0.021863   -0.038876   0.0039985    0.074482    0.026085   -0.037252
-0.0015233    0.028684    -0.04992  -0.0015233    0.099817    0.031932   -0.035628
0.0078962    0.031932   -0.050569  0.00010078     0.12255    0.034855    -0.03173
0.015042     0.03453   -0.038227   0.0039985     0.13327     0.03583   -0.028807
0.023162    0.039078   -0.016789     0.01017     0.13197    0.037129   -0.027183
0.031932    0.043625   0.0043233    0.019264      0.1245    0.037778   -0.023935
0.03518    0.050771    0.020564    0.027709      0.1206    0.034855    -0.01614
0.03518    0.057592    0.031282    0.032906     0.12353    0.029009  -0.0083442
0.03583    0.062139    0.039078    0.034855     0.13327     0.02706  -0.0047713
0.03583    0.061489    0.039727     0.03518     0.13912    0.028034  -0.0031473
0.034206    0.055968    0.032582    0.033556      0.1284    0.030308  -0.0031473
0.031932    0.050121    0.021863    0.031607    0.092021    0.028359  -0.0060706
0.029009    0.045574    0.012443    0.028034    0.029009    0.022837   -0.010618
0.022512    0.044599   0.0056225    0.021863   -0.050894    0.014392   -0.015815
0.011144    0.045249  -0.0018481    0.013093    -0.12852   0.0020496   -0.018738
-0.0031473    0.050121   -0.007045 -0.00022403    -0.18536   -0.014191   -0.019712
-0.014191    0.054668   -0.011267   -0.016464    -0.21037   -0.029782   -0.019388
-0.021012    0.051096    -0.01484   -0.032705     -0.2055   -0.037252   -0.025234
-0.028482    0.033231   -0.020687   -0.043423    -0.18082   -0.034329   -0.037252
-0.036278   0.0020496   -0.034654   -0.052843    -0.14964   -0.020037    -0.04992
-0.043423   -0.034654   -0.052193   -0.059664     -0.1217  0.00042559   -0.056416
-0.045697   -0.064536    -0.06551   -0.059014   -0.096692    0.017965   -0.055441
-0.042774   -0.078503   -0.071357   -0.048296   -0.078503     0.02706    -0.04862
-0.035303   -0.071682   -0.069408   -0.034004   -0.069408    0.026735   -0.038551
-0.022636   -0.050569   -0.062587   -0.020687   -0.072656    0.019589   -0.025884
-0.0080194    -0.02426   -0.054792   -0.016789   -0.084024    0.009845   -0.013541
0.0017248  -0.0031473    -0.04927   -0.022636   -0.097666   0.0020496 -0.00054884
0.0091954   0.0075714   -0.042124   -0.030756    -0.11391  -0.0021729    0.013743
0.014068   0.0088706   -0.031081   -0.034004    -0.13404  -0.0031473    0.022837
0.017316   0.0033489   -0.018088   -0.032055    -0.16425  -0.0050961    0.022188
0.020239  -0.0067202  -0.0060706   -0.027183    -0.20518   -0.012567    0.010495
0.020239   -0.017764    0.008221   -0.018088    -0.24545   -0.026209  -0.0057458
0.019914   -0.024909    0.025111  -0.0073698    -0.27176   -0.041475   -0.017764
0.019914   -0.022636    0.042975    0.003024    -0.27728   -0.056091   -0.019388
0.015692   -0.017439    0.056617    0.010495    -0.26234   -0.068109   -0.014191
0.0020496   -0.019712    0.060515    0.015367    -0.23051    -0.07493  -0.0073698
-0.01549   -0.029782    0.052395    0.019589    -0.19121   -0.075579  -0.0028225
-0.029457   -0.039851    0.034206    0.017965    -0.15158   -0.073955  -0.0073698
-0.033354   -0.046996    0.012443   0.0072465    -0.11748   -0.071682   -0.013541
-0.02426   -0.049595   -0.008669  -0.0096434   -0.086948   -0.071682   -0.017764
-0.0076946   -0.048296   -0.029132    -0.02361    -0.05804   -0.068758   -0.019712
0.013743   -0.040825   -0.045047   -0.027508   -0.027183   -0.058689   -0.021012
0.033556    -0.02426   -0.056091   -0.026209   0.0088706   -0.044398   -0.020687
0.045249  -0.0011985   -0.057715   -0.023285     0.05142   -0.031406    -0.01614
0.045899    0.023487   -0.048296   -0.018088    0.098193   -0.020362  -0.0047713
0.037778    0.044599   -0.035303   -0.010943     0.13977   -0.010943    0.010819
0.025111    0.056292   -0.026858  -0.0060706     0.15763  -0.0047713    0.023487
0.011469    0.055968    -0.02361  -0.0050961     0.13522  -0.0041217    0.029009
0.0026992    0.047523   -0.018413  -0.0060706    0.070259  -0.0080194    0.027709
-0.0021729    0.036154  -0.0089938   -0.008669   -0.021986   -0.016464    0.024137
-0.0057458     0.02706   0.0043233   -0.015165    -0.11748   -0.026209    0.022512
-0.0099683    0.020239     0.01829    -0.02426    -0.19673   -0.036927    0.026085
-0.0099683    0.014068    0.023487   -0.034978    -0.24448   -0.044073    0.029333
-0.0034721   0.0085458    0.017316   -0.043748    -0.25845   -0.045697    0.025436
0.0062721  0.00075039   0.0010752   -0.048296    -0.24675   -0.039851    0.016016
0.014717   -0.011917   -0.015165   -0.049595    -0.21752   -0.032055   0.0072465
0.01829   -0.026209    -0.02361   -0.044073    -0.18114   -0.027833  -0.0015233
0.016666   -0.038876   -0.020687   -0.034654    -0.14736   -0.028157  -0.0073698
0.0095202   -0.045372   -0.010293   -0.023935    -0.11975   -0.029782  -0.0060706
-0.0011985   -0.046671   0.0010752   -0.016789    -0.10059   -0.030756   0.0026992
-0.0067202   -0.045047    0.008221   -0.012567   -0.085973   -0.030106    0.011469
-0.0060706    -0.04115   0.0095202   -0.010943   -0.075255   -0.029782    0.011794
-0.0034721   -0.033354    0.008221  -0.0063954   -0.060313   -0.030106   0.0043233
0.00042559    -0.02361   0.0062721   0.0020496   -0.035303   -0.029782  -0.0093186
0.0043233   -0.018738   0.0046481    0.011794   0.0026992   -0.029132   -0.020037
0.0091954   -0.018413   0.0046481    0.022837    0.046873   -0.025884   -0.018413
0.014392   -0.018738   0.0065969     0.03453    0.087474   -0.019712  -0.0011985
0.020564   -0.011917   0.0091954    0.044924     0.11898   -0.013541    0.025436
0.02641    0.003024    0.008221    0.050121     0.13717   -0.010293    0.044275
0.029009    0.021863   0.0056225    0.047198     0.14302   -0.013216    0.042975
0.026735    0.038103   0.0052977    0.036154     0.14432   -0.021986     0.02641
0.019914    0.046873   0.0091954    0.021863     0.14821   -0.028157   0.0056225
0.016341     0.05207    0.014717    0.011794     0.15958   -0.025559  -0.0080194
0.021538    0.055968    0.021863   0.0065969     0.18069   -0.015815  -0.0099683
0.033231    0.059541    0.034206   0.0078962     0.20246  -0.0028225  -0.0018481
0.044924    0.058891    0.046223    0.015367     0.21415   0.0043233    0.010819
0.054993    0.049147    0.053694    0.020888     0.20765   0.0020496    0.021213
0.061165    0.033231    0.055318    0.021863     0.18557   -0.008669    0.024461
0.064088    0.016016     0.05272    0.013743     0.15471   -0.022636    0.020239
0.063763   0.0023744    0.046223   0.0043233     0.11216   -0.035628    0.008221
0.057267  -0.0063954    0.037129  -0.0041217    0.062139    -0.04115  -0.0073698
0.048497   -0.013216    0.030308   -0.011267   0.0095202   -0.037902   -0.017764
0.031932   -0.020687     0.02641   -0.015815   -0.037252    -0.03303   -0.021337
0.0052977   -0.027183    0.024461   -0.013216   -0.070058   -0.031406   -0.019712
-0.025559   -0.027833    0.021538  -0.0041217     -0.0824    -0.03173   -0.021012
-0.053817   -0.023285     0.01829   0.0078962   -0.076229   -0.029132   -0.023285
-0.069408   -0.012892    0.016991    0.020888   -0.055766   -0.025884   -0.020687
-0.070382  0.00010078    0.020564    0.030957    -0.03303    -0.02426   -0.012242
-0.060638    0.013743    0.021863    0.039727   -0.021012   -0.025884   0.0023744
-0.047321    0.024786    0.019264    0.048822    -0.02426   -0.026209    0.020888
-0.036927    0.031607    0.015042    0.054993   -0.036278   -0.025559    0.040052
-0.031406    0.033881    0.011144    0.054668   -0.049595   -0.021012    0.057267
-0.031081    0.031932    0.008221    0.046548   -0.061613  -0.0099683    0.067661
-0.034004    0.024461   0.0056225    0.033556   -0.077203   0.0043233    0.067986
-0.037902    0.015367   0.0049729    0.021538   -0.096367    0.016341    0.059541
-0.042449   0.0056225   0.0043233    0.012768    -0.11683    0.020239    0.045899
-0.046671  -0.0031473   0.0046481   0.0062721    -0.13307    0.015692    0.032582
-0.047321  -0.0093186   0.0059473   0.0020496    -0.14509   0.0052977    0.024137
-0.043748   -0.010618   0.0062721  -0.0011985    -0.15451  -0.0024977    0.020239
-0.039201  -0.0089938   0.0033489  -0.0067202     -0.1636 -0.00022403    0.019589
-0.03238  -0.0054209  -0.0034721   -0.013866    -0.17237    0.010819    0.022188
-0.02361  -0.0021729   -0.011917   -0.020037    -0.17659    0.023162    0.024461
-0.012892  -0.0034721   -0.019712   -0.025559     -0.1714    0.032906    0.028034
0.0014  -0.0093186   -0.025559   -0.029782    -0.15321    0.040702    0.034206
0.020239   -0.015815   -0.028807   -0.034004     -0.1256    0.046873    0.041027
0.045574   -0.018088   -0.031081     -0.0405   -0.093769    0.053694    0.047523
0.074806   -0.013866   -0.033354   -0.045697    -0.06551    0.064088    0.055643
0.099492  -0.0031473    -0.03303     -0.0405   -0.047321    0.076431    0.067011
0.11703    0.012119   -0.026533   -0.023285     -0.0405    0.090072    0.080653
0.12353    0.032257   -0.013216 -0.00054884   -0.039201     0.10339    0.091696
0.11995    0.050771   0.0020496    0.020239   -0.037252     0.11281    0.098517
0.11118    0.065387    0.011469    0.031932   -0.035303     0.11346    0.098517
0.10209    0.074806    0.013093    0.033881   -0.039201     0.10599    0.091696
0.094295     0.07773   0.0088706    0.028359   -0.046996    0.090397    0.082277
0.08585    0.072858   0.0010752     0.01764   -0.052193    0.073507    0.072208
0.075131    0.063113  -0.0041217   0.0036737   -0.050569    0.057917    0.063113
0.058566    0.052395  -0.0057458   -0.008669   -0.043423      0.0433    0.053044
0.037778    0.041676  -0.0021729   -0.015815    -0.03238    0.031932    0.042001
0.017965    0.032906   0.0033489   -0.013216   -0.023935    0.028034    0.027709
0.0059473    0.025761   0.0078962  -0.0031473   -0.016464    0.028684    0.014717
0.0039985    0.020888   0.0091954    0.013093  -0.0096434    0.024786   0.0088706
0.0059473    0.019264   0.0078962    0.029983  0.00075039    0.016991   0.0088706
0.0088706    0.021863   0.0046481    0.041351    0.013093    0.012768    0.011794
0.0085458    0.024461 -0.00087364      0.0433    0.022837    0.013418    0.014392
0.0062721     0.02706  -0.0047713    0.039727    0.030308    0.015042    0.010819
0.00075039    0.027385  -0.0044465    0.033231    0.036154    0.011794   0.0049729
-0.0054209    0.022188  0.00010078    0.025436    0.039078   0.0043233   0.0023744
-0.011592    0.012768   0.0026992    0.017965    0.038428  -0.0060706   0.0020496
-0.01484   0.0010752 -0.00054884    0.013093    0.034206   -0.014516   0.0033489
-0.015165  -0.0073698   -0.010943    0.014392     0.03453   -0.018738   0.0085458
-0.01614   -0.013216   -0.023285    0.019264    0.041027   -0.015815    0.013418
-0.01614   -0.014516   -0.030106    0.021863    0.052395  -0.0099683    0.012443
-0.017439    -0.01484   -0.033354    0.019914    0.064413  -0.0067202   0.0069217
-0.023285   -0.016464   -0.034329     0.01894    0.069285  -0.0073698  -0.0047713
-0.03173   -0.016464    -0.03238    0.022837    0.067661   -0.012892   -0.018413
-0.037902    -0.01614   -0.027508    0.029983    0.061814   -0.023285   -0.030756
-0.038876   -0.012242   -0.021012     0.03518    0.054993   -0.032055   -0.040825
-0.037577  -0.0063954   -0.015165     0.03583    0.048172   -0.037252   -0.047321
-0.038876   0.0010752  -0.0093186    0.032257    0.040052   -0.039201    -0.04992
-0.044723   0.0078962  -0.0063954    0.027709    0.033231     -0.0405   -0.050244
-0.04992    0.015692  -0.0067202    0.022188     0.02706   -0.038876   -0.047646
-0.047321    0.024461  -0.0076946     0.01829    0.023812   -0.037902   -0.045697
-0.036927    0.031932  -0.0080194    0.019914     0.02641   -0.038551   -0.046996
-0.022636    0.036154   -0.007045    0.025436    0.031282   -0.042774   -0.051544
-0.012242    0.036804   -0.007045    0.028034    0.036804   -0.043099   -0.055441
-0.0080194     0.03453  -0.0063954    0.030308    0.042975   -0.036278   -0.059339
-0.0076946    0.032582  -0.0044465     0.03583    0.047198   -0.026209   -0.064211
-0.0063954    0.029983 -0.00054884    0.042975    0.045574   -0.019063   -0.068758
-0.0018481    0.027385   0.0039985    0.047198    0.036154   -0.017764    -0.06616
0.0072465    0.027709    0.009845    0.049796    0.024461   -0.019388   -0.055766
0.016991    0.029009    0.014392    0.049472    0.016991   -0.019712   -0.041475
0.02641    0.029983    0.016991    0.044599    0.015367   -0.017439   -0.029782
0.033556    0.028684    0.016666    0.038103    0.017316   -0.014191    -0.02426
0.036804    0.025436    0.015367    0.032257    0.020564   -0.014191   -0.021661
0.038428    0.022188    0.013743    0.029333    0.021538   -0.016464   -0.019388
0.038428     0.01894    0.011794    0.027709    0.019589   -0.020362    -0.01614
0.037129    0.019264     0.01017    0.028684    0.014068   -0.026858   -0.013216
0.03518    0.020888   0.0088706    0.032582    0.008221   -0.034654   -0.010943
0.036154    0.024137   0.0072465    0.036804  -0.0021729    -0.04115  -0.0096434
0.039402    0.025761   0.0052977    0.041676    -0.01549   -0.046347  -0.0096434
0.040377    0.024786   0.0049729      0.0433   -0.027833    -0.04927   -0.012567
0.034206    0.020239   0.0065969    0.036804   -0.038876    -0.04927   -0.021012
0.019914    0.015367   0.0075714    0.022512   -0.044723    -0.04927    -0.03238
0.003024    0.012119 -0.00022403   0.0049729   -0.046022   -0.052193   -0.045047
-0.017764   0.0085458   -0.021012   -0.011592   -0.046347   -0.059339   -0.057065
-0.036602  0.00042559    -0.04862   -0.022311   -0.047971   -0.064536   -0.070058
-0.046347   -0.014516   -0.075904   -0.029782   -0.048296    -0.06616   -0.079802
-0.048945   -0.033679   -0.093119   -0.033679   -0.044723   -0.068758   -0.085648
-0.050569   -0.051544   -0.098641   -0.034978   -0.036278   -0.071032   -0.085324
-0.053168   -0.062587   -0.092145   -0.030431   -0.022961    -0.06616   -0.079477
-0.052518   -0.061613   -0.074605   -0.018413  -0.0060706   -0.054142   -0.062262
-0.047321    -0.04862   -0.048296 -0.00087364    0.009845   -0.035628   -0.034654
-0.034329   -0.029782   -0.019063    0.013743    0.018615   -0.010293  -0.0024977
-0.01549  -0.0093186    0.008221    0.019914    0.018615    0.014717    0.023812
0.0052977   0.0052977    0.026735     0.01829    0.010819    0.027709    0.031607
0.024461    0.011794    0.033881    0.011144  -0.0041217    0.020888     0.01764
0.039078     0.01017    0.033231   0.0020496   -0.025234  -0.0060706   -0.013216
0.04395   0.0026992    0.024786  -0.0073698   -0.046347   -0.046347   -0.046022
0.03518  -0.0044465    0.011144   -0.016789   -0.064536   -0.087597   -0.068758
0.013093  -0.0073698  -0.0057458   -0.023935   -0.072331    -0.11261   -0.070382
-0.021337  -0.0037969   -0.017114   -0.024909   -0.064536    -0.11196   -0.057065
-0.060313   0.0039985   -0.020037   -0.020687   -0.041799    -0.09182   -0.038551
-0.095068   0.0091954    -0.01614  -0.0063954  -0.0089938    -0.06551   -0.022961
-0.1204   0.0049729   -0.008669    0.016341    0.029333   -0.043748   -0.015815
-0.13632   -0.017114  -0.0021729    0.034855    0.066037   -0.035953   -0.016789
-0.14671    -0.05804   0.0036737    0.042326    0.097868   -0.040825    -0.01614
-0.15418    -0.10871   0.0056225    0.041027      0.1232   -0.051544  -0.0083442
-0.16653    -0.14996   0.0033489    0.031282     0.14594   -0.059014   0.0043233
-0.18439     -0.1623  0.00075039    0.011469     0.16283   -0.056416    0.016016
-0.19511    -0.13599  -0.0024977   -0.014191     0.16673   -0.048945    0.024461
-0.18374   -0.076554  -0.0083442   -0.037577     0.15471   -0.042774    0.030308
-0.14639  -0.0041217   -0.018413   -0.051544      0.1297   -0.039201    0.032582
-0.09182    0.057917   -0.030106   -0.055766     0.10079   -0.035953    0.030633
-0.032705    0.090397   -0.044073   -0.053492    0.073182   -0.031081    0.027709
0.019264    0.090072   -0.058689   -0.047321    0.043625   -0.019388    0.027709
0.062464    0.067336   -0.070382   -0.041799    0.016666  -0.0031473    0.033231
0.099167    0.039078   -0.073631   -0.036278   0.0010752    0.019264    0.044275
0.13132    0.020239   -0.065186   -0.027508   0.0052977    0.047523    0.059865
0.15731    0.021538   -0.043099    -0.01484    0.024461    0.076431    0.084226
0.1716    0.046548  -0.0076946  -0.0034721    0.045249     0.10047     0.11281
0.16608    0.086175    0.034855   0.0043233    0.054344     0.11476     0.13522
0.14204      0.1258    0.074157   0.0056225    0.046548     0.11703     0.14302
0.10664     0.15211     0.10339   0.0010752    0.022512     0.10826     0.13522
0.070584     0.15796     0.11931  -0.0034721   -0.013541    0.091047     0.11573
0.038428     0.14269     0.11801  -0.0031473    -0.05739    0.068635    0.092671
0.014392     0.10956     0.10534    0.003024    -0.10254    0.046873    0.072858
-0.0050961    0.071558    0.085525    0.010495    -0.13892    0.033231    0.056942
-0.020687    0.035505    0.059541    0.013093    -0.16035    0.030633    0.047198
-0.034329   0.0049729    0.034206    0.011144    -0.16782    0.032257     0.04395
-0.042774   -0.015815    0.012443   0.0059473     -0.1662    0.030633    0.044924
-0.040825   -0.027183  -0.0041217   0.0023744    -0.15256    0.021538    0.048172
-0.028807   -0.030431  -0.0099683 -0.00054884    -0.12722   0.0026992    0.051096
-0.014516   -0.024909  -0.0054209  -0.0011985   -0.093119   -0.018738    0.053044
-0.00022403   -0.015815   0.0046481  0.00010078   -0.053492   -0.036278     0.05272
0.016016  -0.0050961    0.016341   0.0059473  -0.0099683   -0.046671    0.048172
0.037129   0.0075714    0.026085    0.012443    0.031282   -0.053492    0.039078
0.061165    0.021213    0.033231    0.019589     0.06084   -0.056741    0.031282
0.079354    0.032906    0.037778    0.027385    0.070909   -0.053168    0.029009
0.087799    0.040052    0.037454    0.036479    0.065062   -0.042124    0.033231
0.087799    0.036804    0.029333    0.045249    0.055318   -0.026209    0.040052
0.081627    0.021863    0.010819    0.049796    0.053369   -0.011592    0.042975
0.06896   0.0010752   -0.011592    0.051745    0.056942  -0.0037969    0.038428
0.047523   -0.018413   -0.025559    0.055318    0.057592  -0.0018481    0.030308
0.026085    -0.03238    -0.02361    0.059865    0.045574  -0.0018481    0.022837
0.0095202   -0.038227  -0.0099683     0.06084    0.018615  -0.0018481    0.019589
0.0036737   -0.038876    0.008221    0.057917   -0.018088  -0.0024977    0.016666
0.0043233   -0.035303    0.020564    0.050771   -0.049595  -0.0067202    0.013093
0.0020496    -0.03238    0.024137    0.040702   -0.059339   -0.014516   0.0023744
-0.0073698   -0.027183     0.01764    0.029333   -0.039526   -0.026533   -0.015165
-0.018088    -0.01614    0.010495     0.01764   0.0017248   -0.040825   -0.038227
-0.02361  -0.0034721   0.0065969    0.010495    0.045249   -0.054792   -0.056416
-0.021337   0.0049729   0.0072465     0.01017    0.073182   -0.060638   -0.063561
-0.015815   0.0059473    0.012119    0.015692    0.082277   -0.054792   -0.058689
-0.0093186  -0.0015233    0.016341    0.020564    0.082277   -0.038227   -0.050894
-0.0031473   -0.018088    0.015692    0.021213    0.083251   -0.015815   -0.050569
-0.0018481   -0.039201   0.0085458    0.020239    0.087799   0.0052977   -0.059989
-0.0018481   -0.059014      0.0014     0.01894     0.10079    0.019914   -0.071682
-0.0011985   -0.068758 -0.00022403    0.016016     0.12125    0.024137   -0.077203
-0.0034721   -0.063886    0.003024    0.008221     0.14691    0.022188    -0.07493
-0.010293   -0.044398   0.0085458  -0.0034721      0.1677    0.022512   -0.064211
-0.018738   -0.017764   0.0095202   -0.011267     0.17712    0.028684   -0.050244
-0.02361   0.0062721   0.0052977   -0.011917     0.17355    0.038103   -0.036927
-0.020687     0.01829  -0.0089938  -0.0089938     0.16088    0.043625   -0.025559
-0.0099683    0.013743   -0.027508  -0.0093186     0.13912    0.044599   -0.016789
0.0046481  -0.0054209   -0.043748    -0.01484     0.11151    0.043625   -0.012892
0.013743   -0.028157   -0.049595   -0.014516    0.079354    0.041027   -0.011267
0.015042   -0.045697   -0.044073  -0.0080194    0.042001    0.039727  -0.0050961
0.0095202   -0.056416   -0.034004  0.00075039  -0.0057458    0.036804   0.0043233
0.0039985   -0.057065    -0.02361   0.0056225   -0.073955    0.030308    0.013418
0.0049729   -0.051544   -0.017764   0.0033489    -0.17724    0.021863    0.021213
0.014068   -0.046022   -0.017114  -0.0060706    -0.31594    0.014068    0.023812
0.023162   -0.044723   -0.021986   -0.022961    -0.48451    0.008221     0.01829
0.024786   -0.051544   -0.029782   -0.039201    -0.65601   0.0010752   0.0085458
0.017316   -0.060313   -0.035953    -0.04927    -0.78528  -0.0047713  -0.0021729
0.0046481   -0.064861   -0.034654    -0.04992    -0.83076  -0.0093186  -0.0083442
-0.0076946   -0.061937   -0.027833   -0.041475    -0.77424   -0.010293  -0.0054209
-0.016789   -0.050569   -0.017764   -0.028482     -0.6297   -0.008669   0.0069217
-0.018738   -0.033679  -0.0096434   -0.021661    -0.43352  -0.0063954    0.017316
-0.014516   -0.014516  -0.0041217   -0.024585    -0.22986  -0.0024977    0.023162
-0.0096434   0.0049729  -0.0011985    -0.03238    -0.04862  0.00010078    0.022837
-0.0073698    0.022188 -0.00022403   -0.038551    0.089748  -0.0011985     0.01764
-0.014516    0.031932  -0.0028225   -0.036927      0.1768   -0.007045    0.010495
-0.025559    0.033556  -0.0089938   -0.030431      0.2148   -0.017114   0.0046481
-0.035628    0.027385    -0.01614   -0.023935     0.20993   -0.026209   0.0049729
-0.038551    0.014068   -0.022636   -0.018738      0.1651   -0.034654   0.0091954
-0.034654  0.00042559   -0.025234   -0.015815    0.085525   -0.040825    0.014068
-0.028157  -0.0093186   -0.022311   -0.013541   -0.025884   -0.042124    0.016016
-0.024909   -0.012567   -0.016789   -0.012892    -0.15451   -0.040825    0.013418
-0.025559   -0.010293   -0.014191   -0.012242    -0.27631   -0.037252   0.0049729
-0.027833  -0.0044465   -0.015165   -0.014191    -0.36206    -0.03173  -0.0044465
-0.031081 -0.00087364   -0.015815   -0.016464    -0.38934   -0.024909  -0.0099683
-0.034004 -0.00022403   -0.016464   -0.016789    -0.35426   -0.017764   -0.011917
-0.03173 -0.00022403   -0.020037   -0.013216    -0.27046   -0.018413  -0.0096434
-0.025234  -0.0011985   -0.026533  -0.0054209    -0.16263   -0.027833  -0.0096434
-0.016789  -0.0015233   -0.034978  -0.0021729   -0.063561   -0.044073   -0.014191
-0.0080194      0.0014   -0.036927  -0.0067202   0.0065969   -0.058689   -0.023285
-0.00054884   0.0056225   -0.029132    -0.01614    0.048172   -0.068434   -0.030431
0.0043233    0.011144    -0.01484   -0.023285    0.071234   -0.070707   -0.030756
0.0069217    0.015042  -0.0011985   -0.019712    0.083576   -0.070058   -0.024585
0.0085458    0.015692    0.008221   -0.007045    0.088773   -0.067459   -0.018738
0.009845    0.014717    0.010495   0.0088706    0.091047   -0.067459   -0.018738
0.010819    0.011469   0.0095202    0.023487    0.095269   -0.069083   -0.023935
0.0062721   0.0091954    0.010495    0.037778     0.11216   -0.068434   -0.027833
-0.0060706    0.008221    0.012443    0.049796     0.14302   -0.064861   -0.024585
-0.021986   0.0085458    0.014717    0.057592     0.18654   -0.056416   -0.017114
-0.033679     0.01017     0.01829    0.064737     0.23299   -0.044398   -0.010618
-0.035953    0.017965    0.021213     0.06831     0.26969   -0.033679  -0.0028225
-0.024909    0.031282     0.01829    0.069285     0.29015   -0.029132   0.0023744
-0.0047713    0.045899    0.009845    0.065387     0.29178   -0.028482   0.0036737
0.016016    0.056292  0.00075039    0.056617     0.27456   -0.025559    0.003024
0.030633    0.056292  -0.0041217    0.045249     0.24858   -0.019388   0.0039985
0.037454    0.048497  -0.0018481     0.03453     0.21707  -0.0099683    0.009845
0.037129    0.038753   0.0065969    0.024786     0.18199  -0.0018481    0.015692
