0.0069217   0.0043233    0.046548     0.27944    0.095269    0.041351   -0.020362
0.030957    0.021863    0.092671     0.49771     0.10177    0.049796  -0.0096434
0.054019    0.037129     0.12872     0.62536     0.10274    0.059216    0.003024
0.064088    0.044275     0.14042     0.64777    0.089423    0.063763    0.014392
0.059216    0.042001      0.1258       0.588    0.054993    0.059216    0.019589
0.044275    0.032582    0.093645     0.48601  -0.0067202    0.047198    0.021213
0.025111    0.021538    0.054993     0.37558   -0.089221     0.03518    0.020888
0.0059473    0.012443     0.01894     0.28073    -0.15808     0.02641     0.01894
-0.008669   0.0095202  -0.0073698     0.21317    -0.17432    0.023162    0.016341
-0.018088    0.011794   -0.018738     0.17322    -0.10611     0.02641    0.012443
-0.021986    0.016991   -0.019712     0.15276    0.042001    0.036804   0.0078962
-0.021337     0.01894   -0.010293     0.13717     0.24013    0.055643   0.0078962
-0.019063    0.016341   0.0023744     0.11573     0.44476    0.079679    0.016016
-0.018088    0.010495    0.011794    0.083576     0.62113     0.10599    0.029009
-0.017114   0.0065969    0.011794    0.044275     0.75235      0.1271    0.044275
-0.012567   0.0043233   0.0072465   0.0078962     0.83875      0.1362    0.057917
-0.0054209   0.0010752  0.00010078   -0.020037     0.88065     0.12905    0.065062
0.00042559  -0.0024977  -0.0041217   -0.039201     0.87253     0.10664    0.062464
0.0020496  -0.0050961  -0.0054209   -0.053168     0.82121    0.074482    0.052395
-0.00087364  -0.0047713  -0.0015233   -0.065835     0.74618    0.042651    0.042001
-0.0047713  -0.0011985   0.0020496   -0.082076      0.6731    0.016341    0.033881
-0.0080194   0.0043233  -0.0021729   -0.098965     0.61041 -0.00022403    0.025436
-0.010293   0.0088706    -0.01549    -0.10968     0.54805   -0.008669    0.017316
-0.010943    0.011469   -0.029457    -0.11618     0.47172    -0.01549    0.011469
-0.010618    0.011144   -0.036927    -0.12917     0.35609   -0.026858   0.0033489
-0.0073698     0.01017   -0.036602    -0.15256     0.15958   -0.046996  -0.0067202
-0.0044465   0.0078962   -0.030756    -0.17172    -0.14964   -0.081751   -0.014191
-0.0057458   0.0059473   -0.025884    -0.17854    -0.56247    -0.12982   -0.019388
-0.0073698   0.0062721   -0.020362    -0.17465     -1.0107    -0.18536   -0.025234
-0.0054209     0.01017   -0.014516    -0.16003     -1.3885    -0.23961    -0.03173
-0.00087364    0.016341  -0.0067202    -0.12852     -1.6152    -0.28313   -0.037577
0.0014    0.022837  0.00075039   -0.076554     -1.6801    -0.31269   -0.045372
-0.00087364    0.026085   0.0065969  -0.0089938      -1.609    -0.32698   -0.051544
-0.010293    0.025761    0.014717    0.058566     -1.4252    -0.32763   -0.053817
-0.021337    0.021213    0.022188     0.11086     -1.1513    -0.31659   -0.050569
-0.032055    0.012443    0.020564     0.13652     -0.8077     -0.2971   -0.037902
-0.043099   0.0010752    0.009845     0.13035     -0.4241    -0.27079   -0.021661
-0.051219  -0.0080194  -0.0099683    0.098842   -0.044398    -0.23798   -0.008669
-0.055766   -0.011592   -0.029132     0.06019     0.27781    -0.19836 -0.00054884
-0.055441  -0.0080194   -0.038876    0.026735     0.49901    -0.15418   0.0036737
-0.053168  -0.0031473   -0.035303   0.0046481     0.61366    -0.10579   0.0049729
-0.048296  -0.0015233   -0.023285  -0.0089938     0.64289   -0.057715   0.0075714
-0.042124  -0.0031473  -0.0089938   -0.016789     0.62373   -0.013541    0.015692
-0.033679  -0.0041217   0.0049729   -0.020687     0.58703    0.021213    0.025111
-0.025559  -0.0024977    0.013418   -0.018738     0.55097    0.044599    0.028684
-0.019063 -0.00087364    0.016016   -0.012567     0.51654    0.057917    0.022837
-0.016789   0.0020496    0.012768  -0.0031473     0.47952    0.059541   0.0069217
-0.018413   0.0023744   0.0026992   0.0020496     0.43567     0.05207   -0.011267
-0.026209   0.0020496   -0.011917  -0.0050961       0.385    0.042001   -0.022636
-0.036278  0.00042559   -0.029132   -0.023935     0.33173    0.031932   -0.021012
-0.042124 -0.00087364   -0.046996   -0.046022     0.28171    0.024461  -0.0089938
-0.039526  0.00042559   -0.063561   -0.057715     0.23818    0.025111   0.0036737
-0.026209   0.0036737   -0.072981    -0.04992     0.19888    0.036154    0.013093
-0.0089938   0.0065969   -0.072331   -0.028807     0.16543    0.056617    0.013418
0.0062721   0.0085458   -0.063561   0.0010752     0.13457    0.078055   0.0059473
0.01829    0.009845   -0.049595    0.031607     0.10079    0.089748  0.00075039
0.028034   0.0088706   -0.033354    0.054344    0.067011    0.086175   0.0020496
0.03453   0.0020496   -0.018413    0.066686     0.03518    0.073182   0.0078962
0.034206  -0.0080194  -0.0093186    0.069934    0.011794    0.063763    0.014392
0.027385   -0.016464  -0.0028225    0.066362  0.00075039    0.066362     0.01829
0.019589   -0.022961  -0.0034721    0.058241    0.012443    0.080653    0.020239
0.012768   -0.022311  -0.0096434    0.045899    0.062139    0.095919    0.021538
0.01017   -0.018413   -0.015165    0.031607     0.15601     0.10144    0.021863
0.012443   -0.013866   -0.019712    0.019914     0.27911    0.090397    0.019589
0.017316   -0.010293   -0.020362    0.011469     0.40124    0.066037    0.016666
0.020239   -0.007045   -0.022636   0.0069217     0.49088    0.039402    0.014068
0.018615  -0.0028225   -0.026209   0.0017248     0.53343    0.018615    0.012768
0.015692  -0.0018481   -0.028157  -0.0037969     0.52824   0.0069217   0.0085458
0.013418  -0.0021729   -0.024585  -0.0057458     0.48699   0.0036737  -0.0015233
0.011794  -0.0044465   -0.017439  -0.0037969     0.43372   0.0069217    -0.01549
0.009845  -0.0063954  -0.0093186   0.0052977     0.39117    0.014068   -0.027183
0.0078962  -0.0083442  -0.0028225     0.01894     0.37233    0.024461   -0.031081
0.0062721   -0.007045  0.00042559     0.03518     0.37395    0.033231   -0.024585
0.0014 -0.00087364  0.00042559    0.047847     0.38662     0.03583   -0.012242
-0.0041217    0.008221  -0.0015233    0.043625     0.40189    0.030308  -0.0041217
-0.010293    0.014392  -0.0031473   0.0085458     0.41553     0.01829  -0.0073698
-0.019388    0.014068  -0.0041217   -0.053817     0.41553    0.003024   -0.017439
-0.028482   0.0078962  -0.0047713    -0.12527     0.39117   -0.010618    -0.02426
-0.03303   0.0010752  -0.0063954    -0.19056      0.3392   -0.017114   -0.021337
-0.028482  -0.0034721   -0.011917    -0.24578     0.25897   -0.015165  -0.0063954
-0.01484  -0.0063954   -0.021012     -0.2932     0.14691  -0.0011985     0.01764
0.0065969   -0.008669   -0.027833    -0.31464  0.00075039    0.025111    0.046548
0.034855  -0.0073698   -0.019712    -0.25975    -0.17789    0.059541    0.076755
0.065062  -0.0028225   0.0052977    -0.10026    -0.39909    0.091047     0.10144
0.0865   0.0036737    0.031607      0.1245    -0.66348     0.10761     0.11411
0.089423   0.0056225    0.043625     0.32621    -0.94119    0.099492     0.11021
0.072858  -0.0015233    0.036804     0.43924     -1.1751    0.070259     0.09462
0.045249   -0.013541    0.018615     0.44541     -1.3108    0.028684     0.06961
0.021213   -0.022961   0.0017248     0.36843      -1.318   -0.010943    0.042326
0.0062721   -0.024909  -0.0093186      0.2515     -1.2033   -0.037252     0.01829
-0.0011985   -0.021337   -0.012567     0.14009     -1.0094   -0.045047   0.0046481
-0.0080194   -0.014516  -0.0080194    0.057917    -0.78788   -0.033354   0.0020496
-0.016789  -0.0047713   0.0020496   0.0065969    -0.56929   -0.010943   0.0049729
-0.025884   0.0059473    0.013743   -0.026209    -0.36628    0.013743   0.0075714
-0.035953    0.015042    0.021863   -0.055116    -0.18017    0.036479    0.008221
-0.043423    0.020888    0.027385   -0.090521  -0.0099683    0.055643   0.0078962
-0.044073    0.022188    0.031282    -0.13242     0.13879    0.064088   0.0069217
-0.040175    0.019589    0.030957    -0.16912     0.24078    0.059216   0.0046481
-0.039851    0.013418    0.023487    -0.18699     0.25572    0.031932  -0.0021729
-0.044398  0.00075039   0.0078962    -0.18212      0.1664   -0.018738   -0.015165
-0.056741   -0.017114   -0.014191    -0.16295    0.008221   -0.089546   -0.038876
-0.069408   -0.034004   -0.036602    -0.14671    -0.13437    -0.16815    -0.06551
-0.077203   -0.040175   -0.051219    -0.15093    -0.17789    -0.23636   -0.089871
-0.077203   -0.029132   -0.051544    -0.18147   -0.097341    -0.27534    -0.10579
-0.06681  -0.0031473   -0.035953    -0.22304    0.014392    -0.27339    -0.11391
-0.048296    0.028684   -0.014516    -0.25845   -0.021337    -0.24026    -0.11521
-0.029782     0.05142   0.0023744    -0.27404    -0.34517     -0.2016    -0.11651
-0.016789    0.057267   0.0091954    -0.26137    -0.90936    -0.17497    -0.11748
-0.013216    0.046548   0.0017248    -0.21557     -1.5025    -0.16328     -0.1178
-0.020037     0.02641   -0.013541    -0.13534     -1.8896    -0.15873    -0.11261
-0.030756   0.0069217   -0.026858   -0.034978     -1.9367    -0.15256   -0.098965
-0.035303  -0.0018481   -0.033679    0.062789     -1.6431    -0.13599   -0.079477
-0.025884   0.0017248   -0.035303     0.13327     -1.1182    -0.11066   -0.057715
-0.0028225    0.013418   -0.032705       0.169    -0.52381   -0.085648   -0.039851
0.020888    0.026085   -0.026209     0.18524  0.00075039   -0.067134   -0.029457
0.03518     0.03453   -0.016464     0.20116     0.37688    -0.05804   -0.029132
0.038103    0.039078  -0.0034721     0.23006      0.5945   -0.055116   -0.035303
0.033556    0.039727   0.0088706     0.26904     0.68837   -0.054142   -0.043423
0.026085     0.03583    0.018615     0.30282       0.715   -0.047646   -0.048945
0.015042    0.027709    0.023812     0.31906      0.7202   -0.034978   -0.049595
0.0049729     0.01764    0.030308     0.30737     0.73157    -0.01549   -0.044723
-0.00022403   0.0085458    0.038428     0.27002     0.75658    0.009845   -0.036927
-0.00087364  0.00075039    0.051096     0.22422     0.78549    0.034855   -0.030431
0.0033489  -0.0031473    0.065712     0.18914     0.80562     0.05272   -0.027508
0.011794  -0.0031473    0.078379     0.16868     0.80238    0.065062   -0.025234
0.020239  -0.0021729    0.084876     0.15471     0.77282    0.073832   -0.019712
0.021538  -0.0034721    0.086175     0.14204      0.7163    0.079354   -0.011592
0.011794  -0.0083442    0.083251      0.1362      0.6377    0.078055  -0.0073698
-0.011592   -0.014516    0.076106     0.13522     0.55292     0.06961  -0.0096434
-0.039526   -0.021661     0.06019     0.11638     0.48114    0.056942   -0.018088
-0.059989   -0.028807    0.031282    0.057917     0.43892      0.0433   -0.029457
-0.063561   -0.034329   -0.010943   -0.034329     0.43339    0.030957   -0.038227
-0.048945   -0.033679   -0.055116    -0.13015     0.45223    0.023487   -0.042124
-0.029132   -0.025559   -0.089871    -0.19511     0.46717    0.021213   -0.038227
-0.012892  -0.0080194    -0.10546    -0.21037     0.45808    0.023162   -0.026858
-0.0018481    0.012768    -0.10156    -0.17854     0.41228    0.030633   -0.008669
0.0033489    0.028684   -0.081101    -0.11748     0.33303    0.038103    0.010819
0.0052977    0.030633   -0.054142   -0.053168     0.22877    0.042001    0.025436
0.0069217    0.021538   -0.029457   -0.007045     0.12255    0.037778    0.030957
0.008221   0.0095202   -0.011592    0.012119    0.039727    0.027385    0.030633
0.0088706      0.0014  -0.0021729   0.0056225  -0.0034721    0.013093    0.029658
0.0046481  -0.0015233   0.0010752   -0.016464  -0.0015233  0.00042559    0.031607
-0.00022403 -0.00087364   0.0043233   -0.047321    0.037778   -0.011592     0.03518
-0.0024977 -0.00087364   0.0091954   -0.075255    0.089098   -0.024909     0.03453
-0.0021729  -0.0024977    0.012768   -0.095068     0.12872   -0.042774    0.029658
-0.0054209   -0.007045    0.012443    -0.10416      0.1362   -0.066485    0.022188
-0.0083442   -0.012892   0.0075714    -0.10254     0.10274    -0.09117    0.015042
-0.0076946    -0.01614      0.0014   -0.093444     0.04395    -0.11066    0.012443
-0.0050961   -0.012242  -0.0047713   -0.080127    -0.01484    -0.12008    0.010495
-0.0057458  -0.0021729   -0.010943   -0.068109   -0.053817    -0.12203    0.012119
-0.008669   0.0078962   -0.018088   -0.063237   -0.064536    -0.11878    0.016016
-0.010943    0.013743   -0.024909   -0.063561   -0.053168    -0.11293    0.022188
-0.0089938    0.016991   -0.030431   -0.063561   -0.033354    -0.10611    0.030633
-0.0034721    0.020564    -0.03173   -0.055116   -0.019712   -0.098965    0.039727
0.00075039    0.024461   -0.029457     -0.0405   -0.012567   -0.087922    0.049147
0.0023744     0.02641   -0.025884   -0.021337  -0.0089938   -0.075255    0.054019
0.00042559    0.023162   -0.022961  -0.0041217  -0.0060706   -0.061613    0.050771
-0.0050961    0.016666   -0.018738   0.0069217   -0.008669   -0.051868    0.041676
-0.016789   0.0095202    -0.01549    0.010495   -0.018738   -0.046671    0.028034
-0.030431  0.00042559   -0.013216    0.008221   -0.033354   -0.041799    0.013743
-0.037252   -0.011592   -0.011917   0.0017248   -0.052518   -0.033679   0.0010752
-0.032055   -0.023935   -0.013541  -0.0089938   -0.090845   -0.017764  -0.0041217
-0.018738    -0.03303   -0.019388   -0.021337    -0.15581   0.0078962   0.0020496
-0.0028225   -0.035628   -0.027508   -0.034004     -0.2435    0.039727    0.015692
0.012119   -0.030431   -0.037902   -0.039851    -0.34257    0.072858    0.032582
0.024461   -0.022636   -0.046996   -0.039851    -0.44034    0.095269    0.044924
0.03518   -0.014516   -0.050894   -0.034978    -0.51245     0.10112    0.049796
0.039402  -0.0080194   -0.051219   -0.028157    -0.52934    0.095269    0.044924
0.033231  -0.0044465   -0.046671   -0.018738    -0.47964    0.082602    0.038428
0.017965  -0.0050961   -0.035628  -0.0099683    -0.37765    0.069934    0.033881
0.0043233   -0.008669   -0.020362  -0.0011985    -0.25877    0.061814    0.028034
-0.0041217   -0.014191  -0.0047713   0.0056225    -0.15938    0.059216    0.021538
-0.0076946   -0.018738   0.0043233     0.01017    -0.09929    0.062139    0.017316
-0.0060706   -0.017439   0.0095202    0.015367   -0.079152    0.071558     0.01764
-0.00087364   -0.011917    0.015367    0.022512   -0.099615      0.0852    0.021538
0.0088706  -0.0057458    0.023812    0.034855     -0.1649    0.099817    0.024137
0.021538  -0.0018481    0.032257    0.050121    -0.28865     0.10761    0.021213
0.030308   0.0023744    0.032257    0.059216    -0.47867     0.10566    0.016016
0.028034   0.0072465    0.024786    0.057917    -0.72195    0.093321    0.012768
0.019914    0.012443    0.015367    0.051096    -0.96653     0.06896    0.016341
0.011144    0.017316   0.0065969    0.040702     -1.1416    0.038428    0.021538
0.009845    0.020888 -0.00054884    0.031282     -1.1975    0.012443    0.019914
0.016991    0.020888  -0.0034721    0.023812     -1.1289  -0.0047713   0.0095202
0.025111    0.017965  -0.0034721    0.022512    -0.97302   -0.013541  -0.0011985
0.031932    0.013743  -0.0076946    0.023162    -0.79048    -0.01484  -0.0083442
0.036479    0.010819   -0.017764    0.019589     -0.6375   -0.013866  -0.0099683
0.039078    0.011144   -0.032705    0.010495    -0.53096   -0.016789  -0.0067202
0.038753   0.0091954   -0.043748  -0.0011985    -0.44943   -0.029457  -0.0057458
0.03453   0.0039985   -0.043099   -0.012242    -0.35979   -0.047971   -0.010293
0.027385  -0.0024977   -0.031081   -0.019712    -0.24578   -0.069408   -0.020687
0.016991  -0.0093186   -0.013866   -0.019063    -0.10903   -0.089221   -0.035303
0.0065969    -0.01484  0.00010078   -0.013866    0.029333    -0.10481   -0.049595
-0.0050961   -0.017764   0.0049729  -0.0076946     0.15471    -0.11391   -0.055441
-0.014516   -0.018088   0.0023744  -0.0037969      0.2593    -0.11683   -0.053817
-0.019712   -0.020037  -0.0067202  -0.0044465     0.34407    -0.11358   -0.046996
-0.021661   -0.022311    -0.02426   -0.011267     0.41261    -0.11098   -0.038876
-0.020037   -0.026209   -0.043099   -0.022636     0.47107    -0.11456   -0.029782
-0.01484    -0.03173   -0.059339   -0.031081     0.52012     -0.1204   -0.021012
-0.0067202   -0.037902   -0.067784   -0.035628     0.56364    -0.12235   -0.014516
-0.00087364   -0.040175    -0.06551   -0.033354     0.60197    -0.11423  -0.0076946
0.003024   -0.037577   -0.056741   -0.027833     0.62665   -0.094093  -0.0031473
0.0056225   -0.028157   -0.040825   -0.020687     0.63997   -0.064536  0.00010078
0.009845   -0.015815   -0.021337   -0.013216     0.63965    -0.03238   0.0046481
0.014068  -0.0047713  -0.0021729  -0.0041217      0.6299  -0.0057458    0.011794
0.015692  0.00042559    0.011144   0.0043233     0.61074    0.010819     0.01764
0.016016 -0.00054884    0.014068     0.01017      0.5841     0.01829     0.01829
0.014392  -0.0057458   0.0062721   0.0095202     0.54968    0.027385    0.013743
0.01017   -0.014191  -0.0047713   0.0017248      0.5081    0.038753   0.0056225
0.003024    -0.02361   -0.011917  -0.0089938     0.45873    0.049472  -0.0015233
0.00042559   -0.029132   -0.012242   -0.014516     0.40708    0.056942  -0.0057458
-0.00087364   -0.029782   -0.007045   -0.011267     0.35999    0.059541  -0.0067202
-0.0037969   -0.025884  0.00042559  -0.0015233     0.31776    0.054993  -0.0060706
-0.0063954   -0.022311   0.0065969    0.011794     0.28041    0.045249  -0.0060706
-0.0054209   -0.017439   0.0085458     0.02641     0.25248    0.036804   -0.008669
0.0014   -0.010943    0.009845    0.038428     0.22747    0.036154   -0.010293
0.015692  -0.0015233   0.0095202    0.047847     0.20538    0.042975   -0.010293
0.031932    0.012119   0.0075714    0.049796     0.18232    0.048822   -0.008669
0.044275    0.024137   0.0043233    0.045574     0.14886    0.048172  -0.0076946
0.046873    0.029009   0.0026992    0.033881    0.099492    0.039078  -0.0060706
0.039727     0.02641 -0.00054884     0.01829     0.03453    0.020888  -0.0015233
0.028684    0.019264  -0.0083442   0.0059473   -0.035628  -0.0031473   0.0043233
0.019264   0.0072465   -0.017114   0.0020496   -0.095393    -0.02426   0.0078962
0.013418   -0.007045   -0.022311     0.01017    -0.13177   -0.036602   0.0052977
0.011144   -0.018413   -0.021337    0.025761    -0.13762   -0.034978  0.00010078
0.0088706   -0.022636   -0.012242    0.048497    -0.11456   -0.022636  -0.0034721
0.0039985   -0.017439    0.003024    0.077405   -0.077528  -0.0047713  -0.0044465
-0.0047713  -0.0073698    0.022837     0.10664   -0.039851    0.015042 -0.00087364
-0.011267   0.0033489    0.041351     0.13197  -0.0076946    0.034855   0.0078962
-0.01484   0.0072465    0.049147     0.13912     0.01829     0.05142    0.019264
-0.019388   0.0023744    0.044275     0.10859    0.041351    0.063113    0.029009
-0.025234  -0.0057458    0.026735    0.035505    0.074157    0.067661    0.037129
-0.028482  -0.0099683   0.0062721   -0.047646     0.14042    0.073507    0.045899
-0.026858  -0.0057458  -0.0024977   -0.098641     0.25572    0.082927     0.05207
-0.023935   0.0062721  0.00042559   -0.093119     0.39604    0.093321    0.050771
-0.027183    0.020564    0.013093   -0.042774      0.5159     0.10014    0.042975
-0.03303    0.029658    0.028684    0.023162     0.58443    0.099817    0.034855
-0.038876    0.028034    0.038103    0.075131     0.58443    0.091047    0.028684
-0.043099    0.021213    0.037778    0.096244     0.52596    0.073507    0.024461
-0.050569    0.015367     0.02641      0.0865     0.43697    0.047847     0.01829
-0.059664    0.011469    0.010819    0.057917     0.35641    0.019589   0.0091954
-0.067134   0.0095202  -0.0031473    0.025436     0.31289  -0.0073698  -0.0034721
-0.070382   0.0085458   -0.013866   0.0020496     0.31062   -0.027183   -0.017764
-0.066485   0.0072465    -0.01614  -0.0057458     0.33075   -0.037902   -0.028807
-0.059989   0.0062721   -0.010293  -0.0037969     0.34602   -0.037902   -0.036927
-0.053492    0.003024  -0.0011985  0.00075039     0.33108   -0.035303   -0.043423
-0.045372   0.0020496   0.0043233   0.0023744     0.27424   -0.036927   -0.046996
-0.040175   0.0033489   0.0039985 -0.00054884     0.16835   -0.045372   -0.046022
-0.040825   0.0062721  -0.0034721  -0.0083442    0.022512   -0.064861   -0.042124
-0.045697   0.0075714   -0.016789   -0.024909    -0.13729    -0.09117   -0.041799
-0.053492    0.008221   -0.030106   -0.043748    -0.28118    -0.10936   -0.045697
-0.05804   0.0085458   -0.041799   -0.055116    -0.38674    -0.11326   -0.050244
-0.057715   0.0091954   -0.048945   -0.056741    -0.44846    -0.10189   -0.052843
-0.050569    0.010819   -0.049595   -0.050569    -0.47347     -0.0837   -0.053168
-0.040175    0.013093   -0.047646    -0.04115    -0.47639   -0.061613   -0.053168
-0.026533     0.01829   -0.041799    -0.03173    -0.46243   -0.038551   -0.050894
-0.013216    0.027709    -0.03173   -0.023285    -0.43222   -0.015815   -0.043423
-0.0037969    0.039078   -0.018413   -0.012892    -0.37278   0.0039985   -0.034004
-0.0018481    0.047847  -0.0034721  0.00042559    -0.27176    0.013418   -0.027183
-0.0083442    0.051745    0.009845    0.015042    -0.13924    0.011144   -0.024585
-0.018738    0.049147    0.021538    0.027385   0.0039985  -0.0021729   -0.023285
-0.02426    0.040377    0.031607    0.032257     0.12807   -0.019063   -0.023285
-0.021012    0.029983    0.038103    0.029009     0.20603   -0.033354    -0.02426
-0.0089938    0.022188    0.037129    0.021213     0.22519   -0.041475   -0.027508
0.0039985    0.017965    0.028034    0.014392     0.19011   -0.043099   -0.031081
0.0088706     0.01829    0.013743    0.012119     0.11313   -0.041799    -0.03303
0.0039985    0.021863  -0.0018481    0.015367    0.011144   -0.045697   -0.029132
-0.0057458    0.027385   -0.011592    0.019914   -0.085648   -0.059014   -0.025234
-0.01549    0.030633    -0.01484    0.026735    -0.15093   -0.078178   -0.026209
-0.023935    0.027709   -0.014516    0.033556    -0.16425    -0.10124   -0.030756
-0.033679    0.017316   -0.012892    0.041027     -0.1243     -0.1243   -0.038227
-0.044073  0.00042559   -0.010618    0.045899   -0.061613    -0.14346   -0.046022
-0.046996   -0.013541  -0.0099683    0.049147   -0.024585    -0.15386   -0.051219
-0.0405   -0.019388  -0.0093186    0.048822   -0.044398    -0.14931   -0.051219
-0.024585   -0.016789   -0.011592    0.042001    -0.11748    -0.13177   -0.044398
-0.0073698  -0.0073698   -0.013866     0.02641    -0.21979    -0.10806    -0.03303
0.0059473   0.0036737   -0.018088   0.0026992    -0.32568   -0.084999   -0.016789
0.014392    0.012443   -0.026209   -0.022961    -0.41663   -0.070707      0.0014
0.019264    0.016016   -0.035953   -0.046996    -0.48191   -0.065186    0.021538
0.024786    0.017316   -0.046347   -0.069408    -0.51115   -0.064861    0.041351
0.033231    0.016991   -0.059339   -0.085648     -0.5105   -0.060638    0.057917
0.044275    0.013418   -0.073306    -0.09182    -0.49426   -0.044398    0.069285
0.055643   0.0069217   -0.084024   -0.087922     -0.4699    -0.01614    0.070909
0.062789 -0.00087364   -0.084349   -0.077853    -0.43741    0.016666    0.064737
0.06084  -0.0063954    -0.07493    -0.06616    -0.39746    0.046548    0.057267
0.051096  -0.0093186   -0.056091   -0.052518    -0.36044    0.064737    0.049472
0.038103  -0.0096434   -0.035303   -0.038551     -0.3377     0.06831    0.042326
0.024786   -0.008669   -0.019388   -0.026209    -0.33478    0.059865    0.036154
0.008221   -0.010293   -0.012567   -0.017764    -0.34939    0.050121    0.028684
-0.0083442   -0.015815    -0.01484   -0.013541    -0.37148    0.045899    0.016341
-0.018413   -0.025234   -0.022311   -0.013216    -0.38934    0.050121   0.0017248
-0.021986   -0.033679   -0.030106   -0.012567    -0.39681    0.054668  -0.0096434
-0.021012   -0.037577   -0.032705   -0.011917    -0.39357    0.048497   -0.014516
-0.018088   -0.036927   -0.028157   -0.011592    -0.38382    0.031282   -0.010618
-0.016789   -0.034004   -0.018413  -0.0080194    -0.37408   0.0091954  0.00075039
-0.015165   -0.027833  -0.0057458  0.00075039    -0.36531   -0.007045    0.015692
-0.012567   -0.019063   0.0056225    0.016341    -0.35394  -0.0096434     0.02641
-0.0047713  -0.0083442    0.013093    0.031282    -0.33835 -0.00022403    0.031932
0.0059473  0.00075039    0.014717    0.040052    -0.32048    0.013093    0.033231
0.015692   0.0039985    0.015367    0.042326    -0.30652    0.022188    0.033881
0.017316  -0.0011985    0.016991    0.041676    -0.29612    0.028359    0.037129
0.012443   -0.010618    0.021538     0.04395    -0.28508    0.031932    0.040377
0.0049729   -0.018738    0.028359    0.047523    -0.26689    0.030957    0.041351
0.00075039   -0.020687    0.036479    0.049472    -0.24773    0.028034    0.040052
0.0014   -0.017439     0.04395    0.048822    -0.23701    0.026085    0.037778
0.0059473   -0.011267    0.046548    0.045899    -0.23571    0.025111     0.03583
0.011794  -0.0037969    0.046873    0.040702    -0.22564    0.024461    0.035505
0.015042  0.00075039    0.046873    0.037454    -0.17627    0.022512    0.037454
0.014068   0.0026992    0.044924    0.037778   -0.060313     0.01829    0.041027
0.010495   0.0026992    0.040702    0.036804      0.1232    0.012119    0.045899
0.0085458   0.0036737    0.033556    0.033881     0.34959   0.0095202    0.049147
0.011794   0.0052977    0.023487    0.032582     0.57696    0.013093    0.048172
0.019264   0.0056225    0.014068    0.033556      0.7621    0.019264    0.043625
0.025436   0.0052977   0.0069217    0.037129     0.87741    0.029658    0.039078
0.02706   0.0059473   0.0033489    0.042001     0.91281    0.039078     0.03518
0.025111   0.0095202   0.0033489     0.04395     0.86604    0.041676    0.034206
0.020888    0.014717   0.0059473    0.039078     0.75235    0.031932    0.029009
0.016666    0.019914   0.0091954    0.031932     0.59937    0.013743    0.020564
0.017316    0.025436    0.013418    0.025761     0.44281 -0.00054884    0.013418
0.021538    0.028359    0.014392    0.024137     0.31029 -0.00022403    0.012443
0.024461    0.026735    0.012119    0.023812     0.20993    0.016341    0.018615
0.024786    0.021863   0.0056225    0.021213     0.13522    0.038753    0.027709
0.025436    0.011794  -0.0015233    0.016016    0.066037    0.054019    0.033556
0.028684 -0.00087364  -0.0063954    0.008221   -0.023285    0.054019    0.031607
0.032257   -0.013866  -0.0099683  -0.0037969    -0.14899    0.039078    0.024461
0.031282   -0.020037   -0.013866   -0.015815    -0.30652    0.016341    0.013093
0.021213   -0.020687    -0.01614   -0.026533    -0.48224  -0.0096434  -0.0031473
0.011144   -0.018738    -0.01549   -0.035953    -0.66705   -0.034329   -0.021012
-0.00022403   -0.019388   -0.014516    -0.04927    -0.84505    -0.05739   -0.040825
-0.0096434    -0.02361   -0.015815   -0.062912    -0.97822   -0.085648    -0.05804
-0.019388    -0.03173   -0.018738   -0.073955      -1.026    -0.11618   -0.065835
-0.029457   -0.043099   -0.021986     -0.0837    -0.95646    -0.13989   -0.063886
-0.040175   -0.053817   -0.027508   -0.087922    -0.75865    -0.15353    -0.05739
-0.046347   -0.059989    -0.03303   -0.084024    -0.45236    -0.15451   -0.050894
-0.049595    -0.05804   -0.037577   -0.072331   -0.089546    -0.14411   -0.046022
-0.04927   -0.050244   -0.038551   -0.057715     0.27034     -0.1256   -0.043423
-0.042124   -0.038227   -0.036602   -0.046671     0.58865    -0.10221   -0.038227
-0.029457    -0.02426   -0.034654   -0.039851     0.86344    -0.07493    -0.03238
-0.013216   -0.011267   -0.030756   -0.033679      1.1174   -0.046996   -0.027833
-0.0011985      0.0014   -0.021986   -0.026858      1.3701   -0.019712   -0.022961
0.0069217    0.010819   -0.011592   -0.021337      1.6212   0.0062721   -0.019712
0.011469    0.016666  -0.0028225   -0.021012      1.8463    0.029333   -0.019712
0.013743     0.01829 -0.00022403   -0.020687      2.0123    0.042975   -0.024909
0.015042    0.017965  -0.0050961   -0.017114      2.0922     0.04395    -0.03238
0.016666    0.016341    -0.01614  -0.0083442      2.0545    0.036154   -0.034004
0.017316    0.016991   -0.021337   0.0046481      1.8434    0.028684   -0.030431
0.017316     0.01894   -0.013541    0.017965      1.3776    0.024786   -0.023935
0.012119    0.021863   0.0049729    0.027385     0.58378    0.019589   -0.018738
-0.00087364    0.024137    0.019589    0.026085     -0.5105  0.00042559   -0.019712
-0.01484    0.023487    0.023812    0.009845     -1.6688   -0.033679   -0.028157
-0.02426    0.020564    0.018615   -0.011592     -2.6062   -0.073955   -0.039526
-0.028482    0.019264   0.0088706   -0.028482     -3.1106    -0.11001   -0.051544
-0.028482    0.023487  -0.0021729   -0.040175     -3.1252    -0.13404   -0.060313
-0.026209    0.032582  -0.0076946    -0.04862     -2.7458    -0.13859   -0.060963
-0.021986    0.039402  -0.0089938   -0.054792     -2.1716    -0.12463   -0.049595
-0.01484    0.039402  -0.0067202   -0.061613     -1.6204    -0.10384    -0.03238
-0.0076946    0.032906  -0.0057458   -0.069083     -1.2368   -0.089546   -0.017764
-0.0063954    0.021863  -0.0073698   -0.080451     -1.0448   -0.088896   -0.010943
-0.015165    0.009845   -0.015165   -0.093769    -0.98991    -0.10514   -0.012892
-0.032705  -0.0011985   -0.029457    -0.10871    -0.97302    -0.13859   -0.022636
-0.052518  -0.0067202   -0.047321    -0.12138    -0.90156    -0.18212   -0.031406
-0.065186  -0.0057458   -0.061937     -0.1269    -0.72487    -0.22564   -0.034654
-0.067134  -0.0021729   -0.064536    -0.12073     -0.4556    -0.25292   -0.031406
-0.059014    0.003024   -0.056091    -0.10449    -0.14249     -0.2565   -0.023935
-0.046671   0.0088706   -0.042774   -0.077528     0.15503    -0.23831   -0.015815
-0.034654    0.012443   -0.025559   -0.031406     0.39084    -0.20518   -0.010943
-0.023285    0.015367  -0.0034721    0.040052     0.54123    -0.16295  -0.0034721
-0.011267    0.020564    0.016991     0.11995     0.60392    -0.11586   0.0078962
-0.0021729    0.028034    0.027385     0.18199     0.58833   -0.072331     0.01894
0.0020496    0.036154    0.029658     0.20733     0.51817   -0.041799    0.025111
0.0020496    0.042326    0.027385     0.19693     0.43437   -0.024909    0.020564
-0.00022403     0.04395    0.021213      0.1651     0.37558   -0.021012     0.01017
-0.0021729    0.040702    0.012768     0.12775     0.36453   -0.019388   0.0020496
-0.0024977     0.03453   0.0043233    0.098517     0.39864   -0.011917  -0.0018481
-0.0021729    0.027385  -0.0018481    0.078055     0.46328   0.0069217 -0.00054884
-0.00022403    0.021538  -0.0028225    0.067336     0.53051    0.038428   0.0065969
0.0056225    0.017965  0.00042559     0.06084     0.57079    0.077405    0.016991
0.013743    0.016341   0.0056225    0.057267     0.56819     0.11541    0.028359
0.022188    0.013093    0.010495    0.055968     0.51947     0.14432    0.034855
0.031932   0.0088706    0.014068    0.054019     0.43989     0.15536    0.036154
0.03518   0.0010752    0.015042    0.048497     0.35284     0.14854     0.03583
0.031932  -0.0073698    0.013743    0.037778     0.28431     0.12645    0.034855
0.018615   -0.013541    0.010819    0.025111      0.2541    0.097218    0.031932
0.003024    -0.01614   0.0043233    0.015692     0.26709    0.067336    0.023812
-0.008669    -0.01614  -0.0041217   0.0095202     0.32004    0.042651    0.015367
-0.010293   -0.013216   -0.011917   0.0020496     0.40481    0.024137   0.0088706
-0.0044465   -0.008669   -0.018413  -0.0093186     0.50615    0.011144   0.0075714
0.00042559  -0.0028225   -0.026209   -0.018413     0.60099   0.0049729   0.0062721
0.00010078   0.0026992   -0.031406   -0.022311     0.66726   0.0023744   0.0023744
-0.0047713   0.0049729   -0.034329   -0.021986     0.70039    0.003024  -0.0044465
-0.0089938   0.0036737   -0.035303   -0.016789     0.70721   0.0078962  -0.0089938
-0.0080194  -0.0018481   -0.035303  -0.0080194     0.69876     0.01764   -0.010943
-0.0018481  -0.0093186   -0.034978   0.0023744     0.68285    0.030633   -0.011267
0.0065969   -0.015815   -0.035303    0.011794     0.66726    0.042326   -0.014516
0.012443   -0.023285   -0.033354    0.016341     0.65134    0.047523   -0.021986
0.016666   -0.030431   -0.028482    0.015692      0.6312    0.047198   -0.029782
0.01764   -0.035628    -0.02361    0.009845     0.60132    0.041676   -0.033354
0.013418   -0.037577   -0.020362  -0.0041217     0.56137    0.037778   -0.030756
0.0056225   -0.033679   -0.018413   -0.030106     0.51135    0.039402   -0.021986
-0.0011985   -0.025884   -0.019712   -0.070707      0.4571    0.046223  -0.0089938
-0.0063954   -0.018088   -0.024909    -0.12463     0.40319    0.057592   0.0052977
-0.012567   -0.013866   -0.033679    -0.18731     0.35576     0.06896    0.019589
-0.017114   -0.015165     -0.0405     -0.2513     0.32328    0.078704    0.031607
-0.014516   -0.021986   -0.044723    -0.30035     0.31029    0.087474    0.041676
-0.0047713   -0.028482   -0.047971    -0.32893     0.31322    0.093321    0.049796
0.0088706   -0.033354   -0.053168    -0.35102     0.32426    0.091372    0.055968
0.016666   -0.034978   -0.064861    -0.37668      0.3418    0.079679    0.059541
0.012443    -0.03303   -0.077853    -0.37927     0.36583    0.063763    0.058566
0.00010078   -0.026209   -0.085324    -0.31042     0.40026    0.050446    0.057917
-0.014191   -0.016789    -0.07428     -0.1597     0.43274    0.045574    0.058241
-0.018738  -0.0083442   -0.045697    0.023812     0.43924    0.050446    0.060515
-0.011917  -0.0054209   -0.014191     0.16965     0.38467    0.061814    0.058241
-0.00054884   -0.007045   0.0072465     0.25507     0.24338    0.074482    0.049796
0.0078962   -0.012242    0.020564     0.32621    0.016341    0.080653    0.038103
0.014717    -0.01549    0.033881     0.44411    -0.26494     0.07708    0.025111
0.023812   -0.011267    0.055968     0.61269    -0.57091    0.064737    0.015367
0.038428   0.0023744    0.088773     0.77087    -0.87396    0.041027     0.01017
0.052395     0.01829      0.1232     0.84363     -1.1435   0.0075714    0.011469
0.062464    0.029009     0.14302     0.79036     -1.3371   -0.032705    0.016341
0.066037    0.032257     0.13814     0.62308     -1.4157    -0.07428    0.020239
0.061165    0.028684     0.11151     0.39507     -1.3517    -0.10838    0.019914
0.048822    0.020888    0.075456     0.17582     -1.1471    -0.12657    0.014392
0.034855    0.012443    0.039402    0.020888    -0.84375    -0.12333   0.0049729
0.021538   0.0026992    0.010819   -0.055116     -0.5092    -0.10254  -0.0076946
0.010495  -0.0067202  -0.0073698   -0.076879    -0.21785   -0.074605   -0.021661
0.0043233   -0.011917   -0.019063    -0.07493   -0.042449    -0.04992   -0.030756
0.00042559   -0.014191   -0.026858   -0.072006   -0.017114   -0.033679   -0.037902
-0.0034721   -0.012892   -0.027508   -0.070382    -0.11943   -0.022636    -0.04115
-0.0067202  -0.0076946   -0.021337   -0.070382    -0.27469   -0.011917   -0.042124
-0.0057458  0.00042559   -0.010618   -0.075904    -0.39422   0.0056225   -0.042449
-0.0015233    0.010495   0.0046481    -0.09929    -0.41695    0.029009     -0.0405
0.0069217    0.023487    0.023487    -0.13404    -0.32731    0.049796   -0.038551
0.015367     0.03518    0.041027     -0.1636    -0.15548    0.061165   -0.037577
0.017316    0.041027    0.053044     -0.1688    0.045249    0.061489   -0.035628
0.0091954    0.038103    0.055968    -0.14119     0.22357    0.050771   -0.034654
-0.0057458    0.027385    0.047523   -0.088247     0.34894    0.035505   -0.035953
-0.027183    0.010819    0.030633   -0.027183      0.4243    0.019914   -0.039526
-0.04992  -0.0083442   0.0095202    0.024461     0.46847   0.0052977   -0.043099
-0.067459   -0.025559   -0.013541    0.050771     0.50225  -0.0037969   -0.046347
-0.07428   -0.037252   -0.035303    0.042326     0.53701  -0.0041217   -0.050244
-0.070058   -0.042124   -0.050244    0.009845     0.56039  0.00075039   -0.051868
-0.060638   -0.044073   -0.054467   -0.026209     0.55065   0.0052977   -0.051544
-0.053817   -0.043099    -0.04992   -0.047646     0.49186   0.0020496   -0.049595
-0.052843   -0.039851    -0.04115   -0.042449     0.38175   -0.010618   -0.046671
-0.056741   -0.037577   -0.028807  -0.0096434     0.23818   -0.025559   -0.042774
-0.061613   -0.036278   -0.016789    0.040702      0.0865   -0.036278   -0.036602
-0.060963   -0.030756   -0.011917      0.0865   -0.050569   -0.046347   -0.029457
-0.052843   -0.021337   -0.014516     0.10989    -0.15418   -0.058365   -0.019712
-0.040175  -0.0099683   -0.021337     0.10274    -0.21979   -0.072331  -0.0096434
-0.03173  -0.0018481   -0.029132    0.072533    -0.25845   -0.087272  -0.0018481
-0.029457  0.00010078   -0.033354    0.033881    -0.28703   -0.097666  0.00075039
-0.032055  -0.0031473    -0.03238  -0.0018481    -0.32178    -0.10579   0.0010752
-0.034329  -0.0093186   -0.030756   -0.027833     -0.3718    -0.11618   0.0033489
-0.035953   -0.014191   -0.030756   -0.040825    -0.43644     -0.1256   0.0072465
-0.030431   -0.018088   -0.032705   -0.043748    -0.49556    -0.13145    0.011144
-0.018413   -0.018738   -0.034654   -0.041475    -0.52966     -0.1295     0.01829
-0.0021729   -0.015165   -0.033354   -0.035953    -0.52479     -0.1191    0.028034
0.012443   -0.011592   -0.026209   -0.029457    -0.48094    -0.09994    0.037454
0.017965  -0.0083442   -0.012892   -0.026209    -0.40428   -0.072656    0.045899
0.015367  -0.0057458 -0.00054884   -0.028482    -0.30684   -0.039526    0.054019
0.01017  -0.0021729   0.0065969   -0.034329    -0.19381  -0.0060706    0.061489
0.0095202      0.0014    0.008221     -0.0405    -0.07428    0.026735    0.065712
0.014717   0.0052977   0.0065969   -0.044723    0.037454    0.057592    0.065387
0.022188     0.01017   0.0065969   -0.050569     0.12613    0.080978    0.058241
0.02641    0.012768   0.0085458   -0.060963     0.17355    0.092671    0.044599
0.024786   0.0095202    0.009845   -0.074605     0.17452    0.094295    0.029983
0.022837   0.0026992    0.008221   -0.090845     0.14139    0.094945     0.01829
0.021213  -0.0057458   0.0043233    -0.10254    0.089098    0.099817    0.009845
0.019264   -0.012567      0.0014    -0.10871    0.028359     0.10859    0.003024
0.014068   -0.014516  0.00042559    -0.10968   -0.037577     0.11703  -0.0011985
0.0059473   -0.008669   0.0023744    -0.10838    -0.11391      0.1245  -0.0031473
-0.0067202 -0.00087364   0.0023744    -0.10481    -0.19771      0.1284  -0.0050961
-0.018738   0.0062721 -0.00022403    -0.10156    -0.26981     0.12028  -0.0083442
-0.02426    0.011144  -0.0083442    -0.10221    -0.30424    0.096893   -0.012242
-0.020687    0.014717   -0.020037    -0.10676     -0.2893    0.063763   -0.017439
-0.011917    0.015692    -0.03173    -0.11423    -0.23474    0.025111    -0.02426
-0.0044465    0.011794    -0.04115    -0.11813     -0.1727   -0.011592   -0.031081
-0.0028225   0.0046481   -0.045697    -0.12138    -0.13534   -0.044723   -0.036927
-0.007045  -0.0041217   -0.045047    -0.12463    -0.14964   -0.075904    -0.04115
-0.019063  -0.0096434   -0.039201    -0.12787    -0.23344    -0.10644   -0.042774
-0.036927   -0.012892   -0.034004    -0.12917    -0.37895    -0.13794   -0.041475
-0.04927   -0.010943   -0.034654    -0.12755    -0.54915     -0.1727   -0.039201
-0.050569  -0.0080194   -0.041475    -0.12495    -0.68362     -0.2042     -0.0405
-0.041799  -0.0028225   -0.046996     -0.1217    -0.73331    -0.22499   -0.044723
-0.031406   0.0049729   -0.045047    -0.11683    -0.68037    -0.23116   -0.052518
-0.025559    0.015692   -0.034004    -0.11066     -0.5433    -0.22402   -0.063237
-0.024909    0.022188   -0.020687    -0.10091    -0.36466    -0.20778   -0.069733
-0.028807    0.023162   -0.012242   -0.087597    -0.19251    -0.18569   -0.068109
-0.034329     0.01829   -0.011592   -0.073631   -0.060963    -0.16003   -0.056091
-0.037902    0.011469   -0.015815   -0.061937    0.021538    -0.13047   -0.037902
-0.038551   0.0075714   -0.017114   -0.052843    0.072858    -0.10384   -0.018413
-0.037902   0.0069217   -0.011592   -0.045372     0.12223   -0.081426  -0.0047713
-0.038551   0.0088706  -0.0018481   -0.036278     0.18622   -0.061937  -0.0021729
-0.038876    0.013743   0.0039985   -0.022311     0.27034   -0.045047  -0.0099683
-0.034329     0.01894   0.0065969  -0.0067202     0.36421   -0.034654   -0.020687
-0.027508    0.025111   0.0075714   0.0095202     0.45093   -0.028482   -0.030431
-0.021661    0.029983   0.0046481    0.025761     0.52044    -0.02426   -0.036602
-0.013866    0.034206  -0.0011985    0.038428     0.57079   -0.019388   -0.037902
-0.0047713    0.037129   -0.010293    0.042326     0.60489   -0.012892   -0.033679
0.003024    0.036479   -0.022961    0.037129     0.62243  -0.0060706   -0.027833
0.0049729    0.031282   -0.036278    0.022188     0.61334   0.0023744   -0.020037
0.0014    0.025111   -0.045697  -0.0028225     0.57111    0.011469  -0.0089938
-0.0044465     0.01894   -0.048945   -0.033679     0.49348    0.017316   0.0072465
-0.010618    0.016341   -0.045372   -0.061613     0.38337    0.019264    0.021863
-0.014191    0.017965   -0.037577   -0.072981     0.24241     0.01894    0.030308
-0.019063    0.023812   -0.029457   -0.063237    0.073182    0.016016    0.029983
-0.02361    0.030633   -0.028482   -0.039851    -0.12008    0.011469    0.025111
-0.025884    0.033556   -0.036602  -0.0099683    -0.32828   0.0062721    0.019264
-0.022311    0.031607   -0.048296    0.029658    -0.54005  -0.0015233    0.016016
-0.01549    0.024786   -0.050569    0.086175    -0.73494   -0.008669    0.017965
-0.0096434     0.01829   -0.035628     0.15049    -0.90221   -0.011917    0.023812
-0.0076946    0.017316  -0.0034721     0.19596      -1.039  -0.0093186    0.029333
-0.0073698    0.022512    0.039402     0.20343      -1.139  -0.0015233    0.032906
-0.0047713    0.029009    0.082277      0.1703     -1.1809   0.0085458    0.031282
0.0043233    0.032582     0.11248     0.11216     -1.1419    0.020564    0.027709
0.018615    0.029983      0.1219     0.05207      -1.012    0.031282    0.021863
0.031607    0.023812     0.10956    0.009845    -0.80445    0.038753    0.015367
0.039402    0.017965    0.086175   -0.007045    -0.56084    0.042326   0.0088706
0.039727    0.012768    0.061814 -0.00054884     -0.3351    0.041676   0.0039985
0.032906    0.009845    0.041351    0.018615    -0.16815    0.031932   0.0036737
0.019914    0.008221    0.024786    0.033231    -0.07493    0.013093   0.0036737
0.0075714   0.0056225    0.013418    0.034855   -0.054792   -0.010943  0.00042559
0.00075039   0.0020496    0.010495    0.025436   -0.094093   -0.035628  -0.0067202
0.0049729  -0.0031473    0.014392    0.010819    -0.18147   -0.055441   -0.011917
0.017316  -0.0089938    0.016666  -0.0021729    -0.30067   -0.067459   -0.015165
0.031932   -0.013541    0.014392  -0.0076946    -0.42994   -0.067784    -0.01614
0.039078   -0.016789    0.011794  -0.0050961    -0.53551   -0.057715    -0.01549
0.03518   -0.021661   0.0085458  -0.0021729    -0.58195   -0.046671   -0.014516
0.022837   -0.028482   0.0075714  0.00042559     -0.5472   -0.044723   -0.015815
0.0065969    -0.03303   0.0075714  0.00010078    -0.43319   -0.052843   -0.018413
-0.0093186   -0.032705   0.0075714   0.0017248    -0.26072   -0.062912   -0.019388
-0.019388   -0.028482    0.009845    0.010819   -0.053817   -0.063886    -0.01484
-0.022636   -0.025559    0.011469    0.027385     0.16283   -0.046347  -0.0057458
-0.018738   -0.023935    0.010819    0.046223     0.37038   -0.011917   0.0065969
-0.012242   -0.024585   0.0062721    0.064413      0.5552    0.027385    0.017316
-0.0050961   -0.022636      0.0014    0.081952     0.71013    0.063763    0.024786
0.0059473    -0.01484  -0.0034721     0.10014     0.82998    0.088124    0.025436
0.019914  -0.0037969  -0.0073698     0.11736     0.91216    0.095919    0.021213
0.033556   0.0069217  -0.0063954     0.13165     0.95439    0.090722    0.013093
0.039402    0.014068  -0.0011985     0.14204     0.95439    0.078704   0.0039985
0.031282    0.015042   0.0062721     0.14886      0.9258    0.066037  -0.0021729
0.016666    0.012443    0.011144     0.15114     0.88845    0.058241 -0.00054884
0.0046481   0.0072465   0.0095202     0.13912     0.86019    0.057592   0.0088706
0.0017248 -0.00087364   0.0010752     0.10729     0.84135     0.06019    0.020888
0.0085458   -0.011592   -0.019063    0.061165     0.81732    0.065062     0.03453
0.025436   -0.020037   -0.050244    0.011469     0.77964     0.06831    0.048822
0.044924   -0.019388    -0.08305   -0.029132      0.7267    0.065712    0.064737
0.06084   -0.011267    -0.10709   -0.055441     0.66791    0.058241    0.077405
0.064737  -0.0024977    -0.11748   -0.065835     0.61594    0.047198    0.080653
0.056292    0.003024    -0.11488   -0.061613     0.57306    0.032582    0.072858
0.041676    0.003024    -0.10059   -0.047971     0.54058    0.012119    0.061814
0.026085  -0.0024977   -0.080776   -0.030106     0.53961   -0.013866    0.050771
0.014717   -0.012567   -0.062262   -0.010943     0.60359   -0.048296    0.038753
0.0095202   -0.021986   -0.046671    0.012119     0.73871   -0.089221    0.023162
0.0088706   -0.027508   -0.034654    0.039402      0.8813    -0.13372   0.0062721
0.009845   -0.026209    -0.02361    0.067011     0.89202    -0.17432   -0.010943
0.0091954    -0.02361   -0.018738    0.082602     0.62536    -0.20355   -0.025559
0.0023744   -0.022636   -0.025234    0.065712    0.039402    -0.21849   -0.037902
-0.010293   -0.021661   -0.044398  -0.0031473    -0.70895    -0.22012   -0.048296
-0.026858   -0.020687   -0.071032     -0.1204     -1.3595    -0.21135   -0.053492
-0.038551   -0.018088   -0.097017     -0.2474     -1.6999    -0.19121   -0.052843
-0.037252   -0.014191    -0.11326    -0.33153     -1.6558    -0.16035   -0.042449
-0.025234  -0.0073698    -0.11098     -0.3429     -1.3021    -0.11683   -0.026209
-0.0096434   0.0023744   -0.087922    -0.28151     -0.8077   -0.070058   -0.010618
0.0075714    0.013093   -0.052518    -0.17367    -0.34549   -0.029132    0.003024
0.023812    0.026085  -0.0096434   -0.058365   -0.029132  -0.0015233    0.011144
0.038428    0.038428    0.035505    0.037454     0.11606    0.012768    0.013093
0.050121    0.046548    0.070259     0.10242     0.13425    0.020564    0.008221
0.054019    0.047847    0.085525     0.14172    0.089098    0.030308   0.0026992
0.048172    0.039402    0.079679     0.15893    0.039727    0.041027  0.00010078
0.031282    0.025111    0.061814     0.16153    0.016016    0.045574   0.0010752
0.008221    0.011144    0.044599     0.15991    0.022188    0.037454   0.0062721
-0.0099683  0.00075039     0.03518     0.16445    0.047847     0.01764     0.01017
-0.017439  -0.0050961    0.033556     0.18264    0.074806  -0.0047713    0.010495
-0.01484  -0.0044465    0.040052      0.2122    0.092671   -0.025234   0.0059473
-0.0050961      0.0014    0.049796     0.24078    0.099492   -0.037577 -0.00054884
0.0078962   0.0095202    0.056292     0.25475    0.097218   -0.036602  -0.0031473
0.021538    0.014392    0.054993      0.2463    0.090072   -0.019388 -0.00022403
0.033231    0.015042    0.046873      0.2187    0.093645    0.013093   0.0078962
0.036154    0.012443    0.038428     0.18232      0.1323    0.047198    0.016666
0.028684   0.0072465    0.030957     0.14626     0.22324    0.067661    0.021213
0.014068   0.0059473    0.024461     0.11703     0.36129    0.069934    0.020564
-0.00054884   0.0075714     0.01764    0.098517     0.50323    0.058566     0.01764
-0.010943    0.011469   0.0088706    0.084551     0.60749    0.041676    0.012443
-0.015815    0.016341      0.0014     0.06831     0.65296    0.022837   0.0049729
-0.021337    0.016341  -0.0024977    0.044924      0.6403   0.0059473  -0.0031473
-0.031406    0.012443  -0.0015233    0.021863     0.58346  -0.0031473   -0.012567
-0.045372   0.0065969   0.0046481   0.0039985     0.50225  -0.0028225   -0.022311
-0.058689  0.00010078    0.013418  -0.0057458      0.4152   0.0010752    -0.03173
-0.068758  -0.0057458    0.022512   -0.007045     0.34277   0.0020496   -0.042774
-0.078503   -0.010618     0.02706  -0.0060706      0.2921 -0.00087364   -0.054467
-0.087272    -0.01614    0.023812   -0.010943     0.25475   -0.007045   -0.064861
-0.090845   -0.021661    0.013093   -0.021337     0.22162   -0.011592   -0.069733
-0.0837   -0.025234  -0.0028225   -0.030106     0.18719    -0.01549   -0.068758
-0.066485   -0.025234   -0.020362   -0.029132     0.14529   -0.021986   -0.065835
-0.047646   -0.021337   -0.034004   -0.013866     0.10339   -0.032705   -0.059014
-0.034329   -0.015165   -0.038227    0.009845    0.069934   -0.044723    -0.04927
-0.028807  -0.0099683   -0.034004     0.03518    0.049147   -0.051868   -0.036278
-0.031406  -0.0067202    -0.02426    0.061814     0.02641   -0.044723   -0.024909
-0.038876  -0.0067202   -0.016464    0.088124   -0.015815   -0.022311   -0.020037
-0.047646  -0.0067202   -0.012242     0.10891   -0.086948    0.003024   -0.019063
-0.054142  -0.0050961   -0.011267     0.11248    -0.17594    0.025761   -0.019388
-0.052193 -0.00054884   -0.014191    0.085525    -0.25682    0.041351   -0.017439
-0.035628   0.0046481   -0.021986    0.023812    -0.30132     0.05142   -0.010943
-0.0073698   0.0088706   -0.034978   -0.063237    -0.30035    0.054993   0.0036737
0.025436    0.013093   -0.050244    -0.15093    -0.27274    0.054993    0.021863
0.054668    0.016991   -0.062587    -0.21395    -0.25227    0.055318    0.038753
0.074482     0.01829   -0.070058    -0.24026    -0.26169    0.054668    0.052395
0.083576    0.010819   -0.072656    -0.23344    -0.30327    0.053044    0.060515
0.083251  -0.0044465   -0.074605    -0.20225    -0.36596    0.049472    0.066362
0.070909   -0.019712   -0.076554    -0.16003    -0.42832    0.042975    0.070259
0.048497   -0.029457   -0.073955     -0.1204     -0.4673    0.035505    0.072208
0.019914    -0.03238   -0.060963   -0.089546    -0.47282    0.029333    0.071234
-0.0041217   -0.030756   -0.038227   -0.068109    -0.45106    0.024461    0.066037
-0.01484   -0.028482   -0.013866   -0.051544    -0.40396    0.019589    0.057592
-0.011267   -0.022636   0.0072465   -0.037577    -0.32893    0.010495    0.044275
0.0010752   -0.010618    0.022512   -0.023285    -0.22661  -0.0031473    0.028034
0.019264   0.0046481     0.03518   -0.010943    -0.10579   -0.018413   0.0095202
0.036154    0.016991    0.048172  -0.0018481    0.026085   -0.033354   -0.011592
0.046873     0.01894    0.057592  -0.0018481     0.15926   -0.047646   -0.028482
0.048822    0.010819    0.056617   -0.011267     0.28073   -0.057715   -0.035953
0.042326  -0.0015233      0.0433   -0.027508     0.37136   -0.059664   -0.030756
0.029658   -0.010293    0.020239   -0.049595     0.41001    -0.05804   -0.016789
0.015367    -0.01614  -0.0044465    -0.07428     0.38597   -0.056741  0.00075039
0.0072465   -0.018738   -0.024909   -0.096367     0.30152   -0.055766    0.016016
0.0069217   -0.022636   -0.038551    -0.11228     0.18134   -0.051868    0.025761
0.011144    -0.02361   -0.041799    -0.12203    0.064737   -0.040175     0.02706
0.015692   -0.021986   -0.034329    -0.12527   -0.014516   -0.018413    0.019914
0.016991   -0.018088   -0.021986    -0.11618   -0.043748   0.0095202     0.01017
0.013418   -0.014191  -0.0083442   -0.095068   -0.033354    0.037129   0.0020496
0.0078962   -0.010618   0.0036737   -0.067459   -0.007045    0.062789  -0.0021729
0.0049729   -0.010943    0.010819   -0.041475   0.0078962    0.081952  -0.0015233
0.0026992   -0.013216    0.012768   -0.021986  -0.0054209     0.09462      0.0014
-0.0028225   -0.017764    0.015367  -0.0089938   -0.046347    0.098193   0.0036737
-0.012242   -0.021012    0.020564  0.00042559    -0.10449    0.095269   0.0046481
-0.022636   -0.022961    0.024137   0.0095202    -0.16653     0.08585 -0.00022403
-0.028157   -0.021661    0.024786    0.015367    -0.22142    0.073182  -0.0034721
-0.023935   -0.019388    0.021213    0.013418    -0.25617    0.058891  -0.0073698
-0.015815   -0.017439    0.011469 -0.00054884    -0.26592    0.043625  -0.0063954
-0.0076946   -0.017114  -0.0037969   -0.027508    -0.25942    0.026735 -0.00087364
-0.0031473    -0.01614   -0.021337   -0.069408    -0.24578     0.01017   0.0052977
-0.0031473   -0.011592   -0.036278    -0.12463    -0.22304  -0.0060706   0.0078962
-0.0060706  -0.0034721   -0.047321    -0.18049    -0.18212   -0.021661   0.0059473
-0.011267   0.0046481   -0.053492    -0.20908    -0.12268   -0.035953   0.0023744
-0.01484    0.015042   -0.049595    -0.18861   -0.052843   -0.047971  0.00042559
-0.013541    0.024461   -0.030106    -0.12073    0.011144   -0.058689   0.0010752
-0.0099683    0.032906  -0.0021729   -0.019712    0.048172   -0.068109 -0.00054884
-0.0089938    0.039402    0.027385    0.089423    0.040052   -0.076229  -0.0060706
-0.01484    0.042651    0.052395     0.18329   -0.017764   -0.081426    -0.01549
-0.025559    0.041351     0.06961     0.24468    -0.11683   -0.087597   -0.027183
-0.037902     0.03453    0.076431     0.27034    -0.23084   -0.094418   -0.036602
-0.046022    0.023162    0.074482     0.26287    -0.32925    -0.10026   -0.041799
-0.051868    0.011469    0.064413     0.22747    -0.37603    -0.10351   -0.043099
-0.059014   0.0033489    0.051745     0.17647     -0.3416    -0.10416   -0.043748
-0.06616   0.0023744    0.042001      0.1271    -0.21395    -0.10286   -0.046022
-0.072331   0.0078962    0.038753    0.093321   -0.013541   -0.096367   -0.052518
-0.073631     0.01894    0.039727    0.079679      0.2044   -0.084674   -0.062262
-0.067459    0.031282    0.042651    0.080653     0.37428   -0.070382   -0.068109
-0.051219    0.042326    0.046223      0.0865     0.43632   -0.056416   -0.064536
-0.027508    0.048822    0.047523    0.087799     0.34764   -0.038551   -0.050569
-0.0021729    0.047847    0.041027    0.080328    0.086175   -0.016464   -0.027508
0.017965    0.039402    0.026085     0.06961     -0.3364   0.0039985  -0.0021729
0.02706     0.02706    0.009845    0.061814     -0.8483    0.016991    0.017965
0.019264    0.013743  -0.0034721    0.056292     -1.3293     0.01894    0.026735
-0.00087364   0.0026992   -0.012242    0.053044     -1.6645    0.015042    0.020888
-0.021661  -0.0047713   -0.017114     0.05207     -1.7785    0.014068   0.0069217
-0.03238  -0.0083442   -0.020687     0.05207     -1.6694    0.020888  -0.0099683
-0.03173  -0.0083442   -0.024585    0.047847     -1.3891     0.03518   -0.022636
-0.021986   -0.007045   -0.032055    0.033881      -1.024    0.053369   -0.026209
-0.0067202  -0.0050961   -0.041475    0.009845    -0.64951    0.071234   -0.018738
0.0049729  -0.0037969   -0.049595   -0.017114    -0.31106    0.084876  -0.0057458
0.0078962  -0.0024977   -0.048945   -0.042449   -0.036927    0.091696   0.0069217
0.0046481  -0.0021729     -0.0405   -0.062262     0.14496    0.087149    0.014392
0.003024 -0.00022403   -0.025884   -0.075579     0.21188    0.071883    0.014068
0.0069217  0.00075039   -0.012242    -0.08305     0.15958    0.045249    0.008221
0.014717   0.0020496  -0.0021729   -0.090521   -0.018413    0.010819  -0.0015233
0.025111      0.0014  -0.0028225    -0.09994    -0.30229   -0.026533   -0.010618
0.033881  -0.0018481    -0.01614    -0.11033    -0.62191   -0.059014    -0.01614
0.040702  -0.0041217   -0.045372    -0.12527    -0.87655   -0.084024    -0.01549
0.047523  -0.0037969   -0.082076    -0.16035    -0.98601    -0.10059   -0.010293
0.05142  -0.0024977    -0.11456    -0.22337    -0.92625    -0.10514  -0.0024977
0.050121      0.0014    -0.13729    -0.30847    -0.73007    -0.10189   0.0059473
0.042326   0.0062721    -0.14996    -0.39779    -0.47412    -0.09929    0.010819
0.030957    0.010495    -0.15451    -0.47379    -0.24123    -0.10351   0.0056225
0.018615    0.012119    -0.15321    -0.52089   -0.087272    -0.11845  -0.0093186
0.008221    0.011469    -0.14216    -0.51439  -0.0099683    -0.14411   -0.031081
-0.0031473    0.010495    -0.11813    -0.40461    0.042975    -0.16912   -0.050569
-0.015815     0.01017   -0.081101    -0.17335     0.11476    -0.18504   -0.063886
-0.034329   0.0065969   -0.035303     0.12483     0.21252    -0.18926   -0.068434
-0.058365  0.00010078   0.0043233     0.39214     0.30315    -0.18731   -0.070058
-0.081751  -0.0096434    0.025761     0.54773     0.35934    -0.18277   -0.073306
-0.09994   -0.019388    0.022837     0.56721     0.37395    -0.17757   -0.076229
-0.11033   -0.027508   0.0017248     0.48017     0.36908     -0.1688   -0.082076
-0.10871   -0.029782   -0.025234      0.3444     0.38175    -0.14736   -0.084349
-0.098641   -0.028807   -0.045372      0.2122     0.43177    -0.11586   -0.082725
-0.079802    -0.02361   -0.050894     0.11573     0.51362   -0.081426   -0.075579
-0.055441   -0.019063   -0.041475    0.065387     0.60554    -0.04862   -0.065186
-0.027833   -0.012242   -0.025559    0.051096     0.67538    -0.02361   -0.055766
-0.0034721  -0.0037969   -0.013541    0.055968     0.70266  -0.0041217   -0.046347
0.013093   0.0010752   -0.010293    0.065387     0.68902   0.0091954   -0.034004
0.021538    0.003024   -0.010618    0.067011     0.65556    0.017316   -0.018738
0.023487  0.00042559   -0.013541    0.057917     0.61951    0.020564  -0.0018481
0.019264  -0.0054209   -0.013541     0.04395     0.59222    0.022512    0.016666
0.013418  -0.0093186  -0.0089938    0.033231     0.57826    0.021863    0.030957
0.0069217  -0.0089938  -0.0041217    0.029333     0.57598    0.019589    0.036479
0.0020496  -0.0050961 -0.00087364    0.031607     0.58248    0.017316    0.034206
-0.00054884  0.00010078  0.00042559    0.036804     0.58475    0.016016    0.030308
-0.0037969   0.0056225  -0.0011985    0.039402     0.57826    0.020564     0.02706
-0.0080194   0.0072465  -0.0015233    0.040052     0.56494    0.027709    0.026085
-0.012567   0.0075714   0.0020496    0.037129     0.54935    0.034855    0.029333
-0.012567   0.0075714    0.012119    0.029983     0.53311    0.039727    0.038103
-0.0080194   0.0056225     0.02706    0.020888     0.52337    0.043625    0.045574
-0.0015233      0.0014    0.044599    0.018615     0.51622    0.048172     0.05207
0.0046481  -0.0015233    0.062789    0.023487      0.5068    0.056942    0.057917
0.0062721  -0.0044465    0.074482    0.032257     0.49121    0.070909    0.062464
0.0014   -0.011267    0.079354    0.040377      0.4649    0.088773    0.067011
-0.0031473   -0.018088    0.074482    0.046548       0.423     0.10566    0.073182
-0.0011985   -0.021986    0.065712    0.051096     0.36421     0.11573    0.083901
0.0069217   -0.022636    0.058241    0.054019     0.29113     0.11931    0.099817
0.013418   -0.017439    0.054993    0.056617      0.2148     0.11736     0.11346
0.016666  -0.0073698    0.056292     0.06084     0.15471     0.11118     0.12158
0.015367   0.0026992     0.06084    0.064737     0.12678     0.10371      0.1219
0.014717    0.008221    0.062789    0.067986     0.13392    0.095594     0.11313
0.012119    0.008221    0.058891    0.066686     0.16965    0.091696    0.099817
0.0088706   0.0056225    0.048172    0.063113     0.23169    0.094945      0.0852
0.0062721   0.0062721    0.037129    0.059541     0.31159     0.10079    0.073182
0.0010752   0.0088706    0.030633    0.054019     0.39474     0.10371    0.064413
-0.0021729    0.011144    0.028684    0.044275     0.45613     0.10144    0.058241
-0.0034721    0.013418    0.030633    0.031932     0.47075    0.092346     0.05207
-0.0076946    0.012443    0.029983     0.01894     0.42527    0.071234    0.045249
-0.01549   0.0075714    0.025761   0.0017248     0.31906    0.032582    0.036479
-0.025559  -0.0015233    0.015692   -0.024585     0.17095   -0.017114    0.019914
-0.036927   -0.013541  -0.0011985   -0.058365   0.0078962   -0.064861  -0.0050961
-0.049595    -0.02361   -0.019712   -0.090196    -0.16035   -0.097341   -0.028807
-0.059014   -0.029132   -0.035953    -0.10871    -0.34614    -0.11326   -0.046022
-0.061613   -0.028157   -0.046347    -0.11748     -0.5394    -0.11553   -0.055441
-0.059014   -0.020037    -0.04862    -0.12203    -0.70668    -0.11001   -0.059339
-0.051868  -0.0080194   -0.044723     -0.1269    -0.80445    -0.10319   -0.060963
-0.037252 -0.00022403   -0.037902    -0.12722    -0.79925   -0.092145   -0.062262
-0.019712   0.0017248   -0.030756    -0.12073    -0.68524   -0.076879   -0.065835
-0.0037969   0.0010752    -0.02361    -0.10546    -0.48971   -0.059989   -0.070058
0.0065969  0.00010078   -0.017764    -0.08305    -0.25585   -0.042124   -0.069408
0.012119  -0.0021729   -0.012567   -0.060963   -0.023935   -0.024585   -0.064536
0.012443  -0.0044465  -0.0057458   -0.043099     0.18297  -0.0028225   -0.059664
0.012443  -0.0076946 -0.00022403   -0.032705     0.35934    0.021213   -0.057065
0.011144  -0.0083442   0.0033489   -0.030756     0.50258    0.042975   -0.054792
0.0085458  -0.0054209 -0.00022403   -0.030106     0.61334     0.05142   -0.051544
0.0036737 -0.00022403  -0.0093186   -0.028482      0.6809    0.045574   -0.050244
-0.0011985   0.0026992   -0.022961   -0.025234     0.69844    0.026735   -0.050244
-0.0063954 -0.00022403   -0.036927    -0.02361     0.67473  0.00042559   -0.050569
-0.010618  -0.0044465   -0.043099   -0.022961     0.62698   -0.024585   -0.047971
-0.012242  -0.0076946     -0.0405   -0.023935     0.57209   -0.039851   -0.041799
-0.010618  -0.0067202   -0.027508   -0.022311     0.51752   -0.046996   -0.032705
-0.0063954  -0.0021729   -0.012242   -0.013541     0.46717   -0.047321   -0.027183
-0.00022403   0.0043233  0.00075039   0.0026992     0.41196   -0.046022   -0.024585
0.0043233   0.0078962    0.008221     0.01829     0.34147   -0.046022    -0.02361
0.010495   0.0052977    0.013093    0.025111     0.23916   -0.049595   -0.019712
0.017316  0.00075039    0.012768    0.022837    0.099167    -0.05739   -0.014516
0.025436  -0.0024977    0.008221    0.014717    -0.06616    -0.06551  -0.0073698
0.031607  -0.0076946 -0.00022403   0.0065969    -0.23376   -0.071357 -0.00087364
0.033881  -0.0080194  -0.0076946   0.0043233    -0.37992   -0.073631   0.0095202
0.031607  -0.0047713  -0.0096434   0.0069217    -0.49361    -0.07493    0.022188
0.025436  -0.0015233  -0.0047713    0.013743    -0.57318   -0.077203    0.032906
0.015367   0.0010752   0.0043233    0.020239    -0.62223   -0.082076    0.039402
0.0069217   0.0039985    0.013418    0.024137    -0.64951   -0.090521     0.04395
0.0010752   0.0095202    0.019264    0.024461    -0.66283   -0.097341      0.0433
0.0020496    0.016341    0.017965    0.023487    -0.66218   -0.098641     0.03453
0.01017    0.023487    0.012768    0.021213    -0.64529   -0.088896    0.025111
0.021538    0.026735   0.0062721    0.014392    -0.61379   -0.069408    0.019264
0.030633    0.021538  -0.0031473   0.0026992    -0.58098   -0.046022     0.01764
0.030957   0.0075714   -0.017439  -0.0063954    -0.56117   -0.028157    0.017316
0.021213  -0.0080194   -0.030106  -0.0096434    -0.56409   -0.024909    0.016666
0.0036737   -0.017764   -0.034978   -0.011267    -0.59365   -0.034329    0.013093
-0.01549   -0.019063   -0.029782    -0.01484    -0.64464   -0.053817    0.008221
-0.028157   -0.013216   -0.020037   -0.017439    -0.70636   -0.076229   0.0062721
-0.031406  -0.0050961  -0.0073698   -0.011917    -0.75183   -0.092469     0.01017
-0.026858   0.0056225   0.0062721   0.0033489    -0.74988   -0.096692    0.019589
-0.018088    0.014068    0.017965    0.026085    -0.66835   -0.085648    0.032257
-0.0083442     0.01894    0.025436    0.048497    -0.49426   -0.057715    0.044599
0.0052977    0.021538    0.027385    0.067661    -0.24318   -0.018088    0.053044
0.015692    0.020239    0.024461    0.081303    0.045574    0.024137    0.055968
0.021863    0.016341    0.022188     0.08585     0.32036    0.060515    0.055968
0.024786    0.013418    0.020888    0.083901     0.53571    0.082602    0.054993
0.024786    0.013743    0.020239    0.079679     0.66596    0.092021    0.055318
0.026735     0.01894    0.020239    0.078704     0.71922    0.091372    0.055643
0.031282    0.025111     0.01829    0.079029     0.73189    0.083576    0.054668
0.033231    0.031607    0.011794    0.078055     0.75463    0.073507    0.054344
0.032906    0.036804  0.00075039    0.072208     0.82706    0.058241     0.05142
0.031607    0.041027   -0.012242    0.060515     0.94399    0.039402    0.043625
0.028684    0.040052   -0.024585    0.047847      1.0411    0.021213    0.032906
0.024786    0.036804   -0.035953    0.038428      1.0018   0.0059473    0.021538
0.022188    0.034855   -0.043748    0.030633     0.68285  -0.0060706    0.013093
0.020564    0.032906   -0.046022    0.017316   0.0085458   -0.015165   0.0062721
0.017316    0.027385    -0.04115  -0.0050961    -0.89604   -0.027508  -0.0024977
0.010495    0.016991    -0.03173   -0.029782     -1.7487   -0.045372   -0.016464
0.0010752   0.0046481   -0.024909   -0.048296      -2.283   -0.068109   -0.029782
-0.0060706  -0.0021729   -0.028157   -0.054792     -2.3681    -0.09182   -0.041799
-0.010943  -0.0018481   -0.040825   -0.052843     -2.0452    -0.11391    -0.04862
-0.014191   0.0039985   -0.052843   -0.045047     -1.4917    -0.12885   -0.050244
-0.017764    0.009845   -0.056741   -0.034654    -0.92105    -0.13534    -0.04927
-0.021012    0.015042   -0.052843   -0.026533    -0.48841    -0.13372   -0.046347
-0.021337    0.017316   -0.047646   -0.023285    -0.23571    -0.12852    -0.04115
-0.016789    0.015367   -0.042124   -0.019712    -0.11456    -0.12138   -0.033679
-0.010943   0.0091954   -0.033354   -0.013866   -0.045372    -0.11033   -0.029782
-0.0054209   0.0010752   -0.020362  -0.0044465    0.035505   -0.092794   -0.030106
-0.00022403  -0.0041217  -0.0047713   0.0056225     0.14919   -0.064861   -0.034654
0.0049729  -0.0054209   0.0072465    0.012119     0.27489   -0.031406   -0.034004
0.008221  -0.0054209   0.0062721    0.016666     0.37493   0.0078962   -0.028482
0.0088706  -0.0063954  -0.0057458    0.019264     0.41358    0.049147   -0.020362
0.0039985   -0.008669   -0.020037    0.017316      0.3772    0.086824   -0.014191
-0.0054209   -0.012567   -0.029132    0.009845     0.26709     0.11508  -0.0080194
-0.012892   -0.019063   -0.028807 -0.00022403     0.10599     0.12807  -0.0015233
-0.012242   -0.028482   -0.026533  -0.0093186   -0.073631     0.12385   0.0033489
-0.0063954   -0.037902   -0.027833   -0.017764    -0.24123     0.11086    0.003024
0.00010078   -0.042774   -0.036602   -0.029782     -0.3744    0.096244  -0.0018481
-0.0018481   -0.039201   -0.050569   -0.046347    -0.46502    0.087474   -0.015815
-0.0089938   -0.029132   -0.063237   -0.069408    -0.51472    0.085525   -0.036278
-0.013541   -0.017439   -0.069733   -0.094743    -0.54168    0.087799   -0.056416
-0.017439  -0.0099683   -0.072006    -0.11683    -0.58455    0.087149   -0.070707
-0.023935   -0.010618   -0.074605    -0.12365    -0.66056    0.074482   -0.081426
-0.03173   -0.018738   -0.081751    -0.11456    -0.75475    0.047198   -0.087272
-0.044073   -0.033354    -0.09182   -0.092794    -0.82718    0.011144   -0.089871
-0.054467   -0.045372   -0.097017    -0.06616    -0.83888   -0.021012   -0.089871
-0.05739   -0.048945   -0.087272   -0.044723    -0.75703   -0.038876   -0.087597
-0.04862   -0.041475   -0.059664   -0.029457    -0.57448   -0.039526   -0.083375
-0.030106   -0.022636   -0.019388   -0.021986    -0.32113   -0.028482   -0.075255
-0.0083442  0.00042559    0.024786   -0.021986   -0.046671   -0.013216   -0.066485
0.0056225    0.020564    0.059216   -0.024909     0.19628  -0.0047713   -0.057065
0.01017    0.033881    0.075131   -0.021661     0.37915  -0.0041217   -0.046671
0.011469    0.042326    0.070909  -0.0041217     0.49478  -0.0057458   -0.033679
0.014717    0.044275    0.054993    0.025436     0.55065   -0.007045   -0.017439
0.021538    0.043625     0.03583    0.054993      0.5578   -0.007045  -0.0024977
0.029333    0.040377    0.019589     0.06961     0.53571   -0.010293   0.0075714
0.034206     0.03518   0.0091954    0.056292     0.49641   -0.016789    0.009845
0.031607    0.029009   0.0010752   0.0078962     0.44996   -0.029132   0.0049729
0.019264    0.020564  -0.0047713   -0.074605     0.40319   -0.045372  -0.0067202
0.0017248    0.008221   -0.015165    -0.18114     0.36616   -0.063561   -0.021986
-0.01614  -0.0073698   -0.032055    -0.29028     0.35024   -0.076229   -0.036602
-0.030756   -0.020037   -0.052193     -0.3744     0.36681   -0.075579   -0.045372
-0.041799   -0.027183   -0.069083    -0.41435     0.41845   -0.062262   -0.047971
-0.052193    -0.03238   -0.079802    -0.42182     0.49543   -0.043748   -0.044398
-0.05739   -0.036927     -0.0824    -0.41403     0.58248   -0.022961   -0.034978
-0.053817   -0.040825   -0.071032    -0.36985     0.66953  -0.0024977   -0.020037
-0.041799   -0.036927   -0.046347    -0.24058      0.7569     0.01829  0.00010078
-0.023285   -0.021012  -0.0080194   -0.022636      0.8407    0.040377    0.025111
-0.00054884   0.0078962    0.035505     0.22877     0.90891    0.063438     0.05142
0.019589    0.041027    0.076431     0.43827     0.94139    0.082277    0.071558
0.030957    0.066362     0.10794      0.5565      0.9219    0.090397    0.080328
0.028034    0.074806     0.12093     0.57663     0.84915    0.084876    0.080328
0.012119    0.065387     0.10956     0.52954     0.74001    0.067011    0.073182
-0.0067202    0.042975    0.080653     0.45418     0.61594    0.041351    0.062789
-0.016464    0.015692    0.047523     0.38207     0.49965    0.016991    0.051745
-0.013541  -0.0067202    0.022837     0.32491     0.40676   0.0026992    0.040377
-0.0018481   -0.019712    0.012768     0.28106      0.3418  -0.0021729    0.029658
0.0088706   -0.020687    0.015692     0.24046     0.30477  -0.0011985    0.017316
0.011469    -0.01484    0.026735     0.19856     0.29048   0.0036737    0.009845
0.0078962  -0.0031473    0.037778     0.15731     0.28723   0.0085458    0.012443
0.0023744    0.011469    0.045899      0.1245     0.28756    0.013743    0.027709
-0.0047713    0.024461    0.047847     0.10014     0.28853    0.016666    0.045899
-0.010943    0.035505    0.044275    0.081303     0.28561    0.016666    0.058241
-0.014191    0.041676    0.037778    0.063763     0.26774    0.010819    0.063763
-0.015165    0.042651    0.030308    0.045574      0.2148   0.0039985    0.064413
-0.01484    0.040052    0.024786    0.026735     0.11151  0.00042559    0.062464
-0.011267    0.033231    0.022188    0.013743   -0.057715   0.0033489    0.056617
-0.0096434    0.023162    0.025436   0.0033489    -0.29353   0.0072465    0.045899
-0.011917    0.015692    0.029333  -0.0093186    -0.57189   0.0078962    0.034855
-0.016789    0.011144    0.029009   -0.025559    -0.82913   0.0026992    0.025761
-0.021337    0.010819    0.022188   -0.041475    -0.97919  -0.0050961    0.017965
-0.025234    0.013743    0.011144   -0.053168    -0.95418   -0.020037    0.016666
-0.028807    0.017965 -0.00087364   -0.055441    -0.73949   -0.035953    0.023162
-0.03173    0.020564  -0.0073698   -0.052843    -0.38122   -0.049595    0.031932
-0.035628    0.018615   -0.008669    -0.04992     0.01764   -0.059014    0.034855
-0.036602    0.010819  -0.0041217   -0.050569     0.35219    -0.06616    0.027709
-0.039201  0.00010078   0.0036737   -0.051219     0.55844   -0.070382    0.013093
-0.045372  -0.0099683    0.008221   -0.050569     0.62763   -0.071357  -0.0037969
-0.054142   -0.017114   0.0088706   -0.048296     0.58508   -0.064861   -0.018413
-0.058689   -0.019388   0.0026992     -0.0405     0.47692   -0.048945   -0.028807
-0.056091   -0.019063  -0.0073698   -0.031081     0.33855   -0.025234    -0.03238
-0.045372   -0.018088   -0.020362   -0.023285     0.18849  -0.0024977   -0.030106
-0.028157   -0.019388   -0.031406   -0.022636    0.014392    0.011469   -0.022961
-0.010618   -0.021012   -0.036927   -0.030106    -0.20096    0.010819    -0.01484
0.0026992   -0.021337   -0.036602   -0.043748    -0.43806  -0.0089938   -0.010293
0.0085458   -0.020362   -0.028482   -0.057715    -0.63132   -0.044398  -0.0096434
0.010495   -0.020037   -0.016789   -0.063561    -0.70506   -0.084674   -0.011592
0.010495   -0.019712  -0.0067202   -0.061288    -0.62515     -0.1178   -0.015165
0.012119   -0.018738  -0.0037969   -0.056416    -0.41468    -0.13567   -0.019712
0.010819   -0.015815  -0.0093186    -0.05739    -0.13729    -0.13827   -0.027508
0.00010078   -0.012892   -0.019063   -0.063561      0.1258    -0.12917   -0.039201
-0.01484   -0.012567   -0.030756   -0.072656     0.30445    -0.11715   -0.053168
-0.026533   -0.015815   -0.039526   -0.078503     0.37006    -0.10351   -0.062912
-0.026533   -0.024585   -0.042774   -0.083375     0.33335   -0.092145   -0.061937
-0.018738   -0.036602   -0.043099   -0.084999     0.22097   -0.084999   -0.049595
-0.010618   -0.045372   -0.040825   -0.084024    0.048822   -0.087272   -0.033679
-0.0050961   -0.050569   -0.036602    -0.08305    -0.16685   -0.097017   -0.026533
-0.0028225   -0.052843   -0.028807     -0.0837    -0.39129    -0.10936   -0.026858
0.0010752   -0.048945   -0.019712   -0.084349    -0.58001    -0.11975   -0.029457
0.0065969   -0.038227   -0.010618   -0.082725    -0.69012    -0.12527   -0.028157
0.014392   -0.021661  -0.0047713   -0.078178    -0.70473    -0.12333   -0.021661
0.023162   -0.007045  -0.0024977   -0.074605    -0.63555    -0.11196   -0.013541
0.031932  0.00075039  -0.0041217   -0.076229    -0.51309   -0.094418   -0.007045
0.036804   0.0010752   -0.010618   -0.084349     -0.3757   -0.072981  -0.0034721
0.041351  -0.0015233   -0.022311   -0.099615     -0.2526    -0.04992  -0.0011985
0.046548  -0.0063954   -0.037902    -0.12138    -0.15711   -0.022311  -0.0011985
0.05272  -0.0080194   -0.054792    -0.14411    -0.09182   0.0039985  -0.0047713
0.059216  -0.0021729   -0.068758    -0.15483    -0.04862    0.025111   -0.007045
0.061489    0.009845   -0.072656    -0.13404    -0.01484    0.038428  -0.0067202
0.06084    0.021538   -0.062262    -0.07493    0.022837    0.046548 -0.00087364
0.06019    0.027385   -0.045047    0.011144    0.079679    0.051096   0.0069217
0.057267    0.024786   -0.026209     0.10534     0.16153    0.054344    0.015692
0.047847    0.015367  -0.0089938     0.18459     0.26157    0.053369    0.019914
0.034206   0.0039985   0.0062721     0.23104     0.36389    0.052395    0.017316
0.024786  -0.0060706    0.016016     0.23883      0.4571    0.048497     0.01017
0.022837   -0.013866    0.021213      0.2148     0.53051    0.045574    0.008221
0.028359   -0.019063    0.021538     0.17647     0.57923    0.049796    0.011794
0.03453   -0.021661     0.01764     0.13782     0.59352    0.058566    0.015367
0.036154   -0.022636    0.011794     0.10599     0.56527    0.068635    0.013418
0.032906   -0.021986   0.0088706    0.085525     0.49186    0.073832   0.0049729
0.024786   -0.021986   0.0091954    0.072533     0.38078    0.075456  -0.0054209
0.016016   -0.023285    0.012119    0.059541     0.23721    0.074482   -0.014191
0.012119   -0.022636    0.016016    0.038428    0.060515    0.073832   -0.013866
0.013418   -0.019712    0.022512    0.008221    -0.15581    0.076431  -0.0041217
0.019264   -0.016464    0.029983   -0.030106    -0.41695    0.076755   0.0069217
0.021863    -0.01484    0.031932   -0.073631    -0.70538    0.070584    0.013418
0.021863   -0.013866    0.026735    -0.11228    -0.97367    0.054344    0.015692
0.017965    -0.01484    0.012768    -0.13892     -1.1604    0.031282    0.014068
0.010819   -0.017439  -0.0050961    -0.14899     -1.2221   0.0059473    0.011144
0.0043233   -0.019388   -0.021012    -0.14184     -1.1471   -0.017114   0.0078962
0.0017248   -0.020687   -0.034004    -0.12722    -0.96945   -0.035953   0.0062721
0.0020496    -0.02426   -0.046671    -0.11651    -0.75248   -0.045697   0.0059473
0.0014   -0.028157   -0.062262    -0.11066    -0.55045   -0.047971   0.0036737
-0.00054884   -0.029782   -0.077203   -0.098316    -0.37765   -0.044073 -0.00022403
-0.00087364   -0.027508   -0.082725   -0.075904    -0.22077   -0.035628   0.0010752
0.0014   -0.022311   -0.076554   -0.052843   -0.063886   -0.020687   0.0069217
0.0026992   -0.012892   -0.058689   -0.035628    0.089423  -0.0011985    0.013743
0.0046481 -0.00022403   -0.034978   -0.021337     0.22065    0.017316    0.020564
0.0059473    0.016666   -0.013541  -0.0011985     0.30152    0.024461    0.021863
0.011794    0.033231  -0.0021729    0.029009     0.31386    0.022188    0.020564
0.01764     0.04395  -0.0034721    0.071234     0.27294    0.010495    0.015042
0.01829    0.043625   -0.014516      0.1232     0.21285  -0.0093186   0.0065969
0.01017    0.033556   -0.027508     0.17777     0.17192   -0.030106  -0.0034721
-0.0044465    0.017965   -0.034978     0.21967     0.17842   -0.046996   -0.015815
-0.021012   0.0049729   -0.035303     0.23786     0.23071   -0.059014   -0.026209
-0.036602  -0.0018481   -0.030106     0.23104     0.30347   -0.064536   -0.035303
-0.044723  -0.0024977   -0.021986      0.2057     0.36713   -0.063886   -0.040825
-0.044723      0.0014   -0.013541     0.17192     0.39539   -0.057715   -0.040175
-0.038876   0.0065969  -0.0093186     0.13847     0.38337   -0.048945   -0.034654
-0.033679   0.0069217   -0.013541     0.10566     0.34245   -0.043748   -0.026533
-0.031081   0.0033489    -0.02361    0.072858     0.29243   -0.042449   -0.021986
-0.030431  -0.0011985   -0.032055    0.044924     0.24598   -0.045372   -0.017764
-0.03238 -0.00087364   -0.034004    0.025436      0.2057   -0.051219   -0.012242
-0.035953    0.003024   -0.030106    0.011794      0.1625   -0.059339  -0.0018481
-0.039201    0.008221   -0.022961    0.003024     0.09462   -0.069083    0.008221
-0.040825    0.014068   -0.016789  -0.0037969   -0.012242   -0.081426    0.015367
-0.042774    0.019914   -0.010943  -0.0076946    -0.13729   -0.089871     0.01829
-0.044723    0.023162  -0.0050961   -0.011917    -0.24903   -0.087597    0.019589
-0.045372    0.022837   0.0020496   -0.016464    -0.31626   -0.075904    0.020888
-0.044398     0.01829   0.0085458   -0.023285     -0.3312   -0.058365    0.019264
-0.041475    0.010819    0.013418   -0.025234    -0.30814   -0.038551    0.014717
-0.037902   0.0023744    0.015692   -0.020687    -0.26104   -0.021337   0.0078962
-0.030106  -0.0031473    0.016341   -0.012242     -0.2016  -0.0080194   0.0010752
-0.02361  -0.0031473    0.016666  -0.0037969    -0.13177   0.0020496  -0.0050961
-0.019712   0.0020496    0.016341      0.0014   -0.039526   0.0088706  -0.0047713
-0.021337    0.011144    0.012443   0.0036737    0.088124    0.015692   0.0046481
-0.023935    0.022512   0.0075714   0.0056225     0.26092    0.020888    0.022188
-0.026858    0.030633   0.0069217   0.0046481     0.47399    0.026085    0.041027
-0.030106    0.033231    0.011144   0.0039985     0.70006    0.027385    0.053694
-0.034978    0.030633    0.016016   0.0043233     0.89267    0.022188    0.054993
-0.040825    0.025761    0.016016   0.0046481      1.0083    0.014717    0.047523
-0.039851    0.020888    0.011794   0.0010752      1.0184    0.012119    0.033556
-0.030431    0.012119   0.0065969  -0.0034721      0.9219     0.01764    0.017965
-0.015165  -0.0011985   0.0043233  -0.0067202     0.74618    0.027709   0.0020496
-0.0011985    -0.01549   0.0059473  -0.0063954     0.52954    0.036479  -0.0099683
0.0072465   -0.025559    0.008221  -0.0028225     0.30867    0.038753    -0.01549
0.0078962   -0.029457     0.01017  0.00010078     0.10696    0.032906   -0.010943
0.0062721   -0.026209    0.009845   0.0023744   -0.068434    0.023812   0.0033489
0.0017248   -0.017114    0.008221   0.0065969    -0.21785    0.021538    0.023812
-0.0024977  -0.0031473    0.008221    0.013093    -0.34387    0.029009    0.044924
-0.0024977    0.010495    0.009845    0.022837     -0.4556    0.038753    0.060515
0.0023744    0.022512    0.016991    0.029983    -0.56864    0.040377     0.06961
0.012443    0.031282    0.029333    0.032582    -0.70018    0.032257    0.072208
0.023487    0.032582    0.040377    0.029009    -0.85447    0.014717    0.066362
0.031282     0.02706    0.045249     0.01894     -1.0318   -0.012242     0.05272
0.029983    0.016016    0.042326   0.0023744     -1.2247   -0.046022     0.03453
0.016016   0.0017248    0.034206   -0.015815     -1.3985   -0.084024    0.015042
-0.0057458   -0.015165    0.023812   -0.030106     -1.4989    -0.11683  -0.0047713
-0.024585   -0.030106    0.016016   -0.035953     -1.4774    -0.13859   -0.023935
-0.034654   -0.038227    0.011144   -0.033354     -1.3173    -0.14249   -0.036602
-0.034329   -0.034004   0.0078962   -0.025559      -1.038     -0.1282   -0.039526
-0.022961   -0.018738   0.0052977   -0.017439    -0.69336    -0.10156   -0.034329
-0.00087364 -0.00022403   0.0026992   -0.012242    -0.35946   -0.064861   -0.025234
0.023162    0.014068 -0.00087364   -0.010943    -0.10709   -0.028482   -0.020037
0.03453    0.022188  -0.0060706   -0.011917    0.025436 -0.00087364   -0.020687
0.028684    0.026085   -0.011592   -0.012567    0.053694    0.015367   -0.025884
0.011469    0.031932   -0.012567   -0.012892    0.023812    0.018615   -0.034978
-0.0073698    0.038428   -0.008669   -0.014516  -0.0047713    0.014392   -0.044398
-0.022636    0.043625   0.0020496   -0.018088   0.0085458   0.0095202   -0.052518
-0.03303    0.043625    0.015367   -0.024585    0.062789   0.0091954   -0.055441
-0.037902    0.040052    0.020239   -0.033679     0.13262    0.014392   -0.048945
-0.0405     0.03518    0.009845   -0.043423     0.18232    0.019589   -0.037252
-0.045372    0.030308   -0.012567   -0.051544     0.19628    0.020239   -0.027833
-0.048296    0.025436   -0.034654   -0.059014     0.18622     0.01764   -0.023935
-0.046347    0.022188    -0.04992   -0.063561     0.18004    0.013743   -0.026858
-0.039526    0.017965   -0.053168   -0.064211     0.20148    0.011794   -0.032055
-0.027183    0.012119   -0.041799   -0.064211      0.2619     0.01017   -0.036927
-0.01549   0.0062721   -0.021012   -0.065835     0.35609   0.0039985   -0.039851
-0.008669  0.00010078 -0.00087364   -0.070707      0.4675   -0.010618   -0.041799
-0.0050961  -0.0057458     0.01017   -0.076229     0.58248   -0.034329   -0.044723
-0.0028225   -0.013866   0.0072465   -0.079477     0.69421   -0.068434   -0.052518
-0.0054209   -0.027183   -0.008669    -0.07493     0.80692    -0.10546   -0.064861
-0.016464   -0.042449   -0.032705   -0.059014     0.93392    -0.13989   -0.079152
-0.032705   -0.054142    -0.05804   -0.037902      1.0804     -0.1636   -0.092469
-0.043099    -0.05804   -0.075579   -0.019063      1.2389     -0.1662    -0.10384
-0.040825   -0.055441   -0.081751  -0.0073698      1.3828    -0.14476    -0.11033
-0.025559   -0.047321   -0.079802  -0.0073698      1.4556    -0.10416    -0.11033
-0.0060706   -0.034978   -0.077203   -0.025559      1.3656   -0.056416    -0.10059
0.012119    -0.02426   -0.077853   -0.070058      1.0025   -0.017439   -0.081751
0.024461   -0.017764   -0.082725    -0.13729     0.30542   0.0043233   -0.055766
0.029983   -0.012892   -0.088247    -0.19381    -0.61866   0.0052977    -0.03173
0.031607  -0.0076946   -0.082725    -0.20615     -1.4992  -0.0073698   -0.013866
0.026735 -0.00054884   -0.059339    -0.16003     -2.0852   -0.018738  -0.0047713
0.022512    0.010495   -0.022636   -0.071682      -2.255   -0.015815  -0.0015233
0.015042    0.020888    0.017965    0.023162     -2.0468 -0.00022403   0.0033489
0.0052977    0.030308    0.045574    0.093321     -1.6226    0.019589    0.010495
-0.0050961    0.033881    0.053044      0.1245     -1.1734    0.039078     0.01764
-0.012567    0.031607    0.042975      0.1245    -0.84277     0.05272    0.021538
-0.011592    0.026085    0.021863     0.10794    -0.68589    0.057592    0.024137
-0.0047713    0.021213  0.00042559    0.088124    -0.66446    0.058241    0.029009
0.0043233    0.019589   -0.014191    0.073507    -0.68979     0.06084    0.033231
0.011144    0.020564    -0.01549    0.070909    -0.67193    0.064413    0.036804
0.012768    0.019264  -0.0044465    0.073182    -0.56312    0.065062    0.037129
0.012768    0.017316    0.011469    0.074157    -0.35914    0.064737    0.039402
0.016666    0.016341     0.02641    0.071234   -0.094093    0.065712    0.045574
0.022188    0.017316    0.034206    0.062789     0.17939    0.066686    0.052395
0.029333    0.015367    0.032257    0.046873     0.42495    0.065387    0.058891
0.035505    0.010495    0.022837    0.019589     0.62048    0.060515    0.064413
0.039402   0.0020496    0.013093   -0.013866      0.7673    0.056617     0.06896
0.040702  -0.0060706   0.0020496   -0.041475     0.87448    0.055318    0.071234
0.037454   -0.012567  -0.0093186   -0.053168     0.96056    0.055643     0.06961
0.030633   -0.013541   -0.020362   -0.046671      1.0382    0.054019    0.062789
0.019589   -0.011267   -0.034329   -0.025234       1.098    0.048497    0.051096
0.0056225   -0.010618   -0.051868   0.0049729      1.1126    0.040052    0.035505
-0.0096434   -0.011267   -0.064211    0.049796      1.0625    0.029333    0.020239
-0.020362   -0.010943   -0.061613     0.10989     0.92645    0.016991    0.011469
-0.019388  -0.0044465   -0.037577     0.16478     0.69227      0.0014   0.0078962
-0.0080194   0.0091954   0.0026992     0.18914     0.37948   -0.014191   0.0062721
0.0023744    0.023162    0.046873     0.16998    0.045574   -0.029782   0.0052977
0.0046481    0.032257    0.081627     0.11313    -0.22174   -0.048945   0.0023744
-0.0021729    0.032582    0.095919    0.038428    -0.34809   -0.073955  -0.0054209
-0.011592    0.020239    0.085525    -0.03173    -0.30457   -0.098641   -0.019388
-0.020037  -0.0018481    0.054668   -0.079477     -0.1243    -0.11456   -0.037577
-0.029132   -0.028157    0.016666    -0.10026     0.11541    -0.11488   -0.052843
-0.035953   -0.050894   -0.014191   -0.097991      0.3353    -0.10156    -0.05804
-0.039526   -0.062587   -0.029782   -0.080451     0.48049   -0.077853   -0.052843
-0.039851    -0.06616   -0.030431   -0.057715     0.53343   -0.048296   -0.041799
-0.037252   -0.061613   -0.020687   -0.036278       0.512   -0.017114   -0.029132
-0.027508   -0.053168  -0.0093186   -0.020362     0.44736   0.0091954    -0.01614
-0.013541   -0.039851 -0.00022403   -0.008669     0.36616    0.024786  -0.0050961
-0.00087364   -0.024909   0.0069217  0.00010078     0.28528    0.026735   0.0046481
0.0046481  -0.0093186    0.010819   0.0062721     0.20505    0.013093    0.013093
0.0069217   0.0065969   0.0065969    0.012119     0.11638   -0.011592    0.020888
0.010495    0.019914   0.0017248    0.021213   0.0091954   -0.038876    0.028684
0.016016    0.030633   0.0020496    0.035505    -0.11326   -0.061288    0.033231
0.022188    0.036154    0.011144    0.055968    -0.22759   -0.072656     0.03518
0.027709    0.037454    0.025111    0.081952    -0.30912   -0.070707    0.035505
0.032582    0.035505    0.037778     0.10826    -0.35946   -0.059014    0.034206
0.036804    0.033881    0.047198       0.131    -0.40006   -0.045372    0.031932
0.041351    0.034206    0.052395     0.14399     -0.4543   -0.036602    0.032906
0.041027    0.032582    0.055643     0.14334    -0.51797    -0.03303     0.03518
0.035505    0.028034     0.05272     0.13652    -0.55889   -0.030756    0.039727
0.031932    0.023487    0.045899     0.12613     -0.5459   -0.023935    0.046873
0.030633    0.020888     0.03583     0.10534    -0.46243   -0.011917    0.052395
0.027709    0.017965     0.02641    0.061165    -0.32081   0.0033489    0.053369
0.020564    0.012768    0.016991  -0.0047713    -0.15126    0.017316    0.048822
0.014717   0.0049729   0.0072465   -0.081101    0.023812    0.027709    0.042001
0.011794  -0.0044465  -0.0054209    -0.15061     0.18881    0.033231    0.035505
0.0085458   -0.013216   -0.019388    -0.20583     0.33628    0.032582    0.029333
0.00010078   -0.016789   -0.035628    -0.25487     0.47042    0.025436    0.021213
-0.015165   -0.015165   -0.051219    -0.29417     0.60262    0.015692    0.011144
-0.031081   -0.013216   -0.055766    -0.27793     0.74943   0.0078962      0.0014
-0.039526   -0.011592    -0.04115    -0.15841     0.91119   0.0039985  -0.0073698
-0.036278  -0.0089938  -0.0096434    0.050771       1.058   0.0036737   -0.014191
-0.027183  -0.0080194     0.02641     0.27359      1.1467   0.0056225   -0.020037
-0.017764  -0.0073698    0.048822     0.42787      1.1373   0.0049729   -0.025559
-0.012892  -0.0050961     0.05207     0.47432      1.0151  -0.0011985   -0.032705
-0.015815  -0.0050961    0.039402      0.4191     0.79198   -0.011267   -0.041799
-0.026533  -0.0080194    0.021538     0.30477     0.50777   -0.021012   -0.050569
-0.040825   -0.012892   0.0023744     0.17842     0.21805   -0.026533   -0.056416
-0.054792   -0.017439   -0.016464    0.072208   -0.026858   -0.029132   -0.059014
-0.067459    -0.02361   -0.038551  -0.0024977    -0.20843   -0.031081   -0.055766
-0.076554   -0.034329   -0.060963   -0.051219    -0.32601   -0.036602   -0.050569
-0.078178   -0.047971   -0.081426   -0.081751     -0.3848   -0.043099   -0.044723
-0.071357    -0.05739   -0.095717    -0.10774    -0.39454   -0.053492   -0.037902
-0.059339   -0.061613    -0.10091    -0.13957    -0.36596   -0.066485   -0.030431
-0.044723    -0.05739    -0.10221     -0.1701    -0.30944   -0.076229   -0.020362
-0.027183   -0.046022    -0.10059    -0.18179    -0.24805   -0.078503   -0.007045
-0.0073698   -0.032055   -0.095393     -0.1675    -0.20258   -0.070707   0.0043233
0.010819   -0.017764   -0.084349    -0.13307    -0.18277   -0.059014   0.0095202
0.021213  -0.0047713   -0.069733   -0.089221    -0.19024   -0.050569   0.0088706
0.023487   0.0056225   -0.059339   -0.047321    -0.21395   -0.046671   0.0049729
0.015367    0.015367   -0.053492   -0.018088     -0.2461   -0.042774   0.0023744
0.0052977    0.023487   -0.051219  -0.0021729    -0.28053   -0.037577   0.0039985
-0.0018481    0.028684   -0.047646   0.0043233    -0.30847   -0.031406   0.0072465
0.0017248    0.031607   -0.039851   0.0059473    -0.32731    -0.02361     0.01017
0.01017    0.032257   -0.028807   0.0049729     -0.3416   -0.015165    0.010495
0.015367    0.031282   -0.016789   0.0020496    -0.35686  -0.0080194    0.011144
0.015692     0.02706  -0.0073698 -0.00087364    -0.37505  -0.0021729    0.018615
0.015692    0.019264  -0.0034721  -0.0024977    -0.39129   0.0065969    0.032257
0.01829    0.012768  -0.0054209  0.00010078    -0.40396    0.019264    0.049472
0.024786    0.009845  -0.0083442   0.0056225    -0.41078    0.031282    0.066037
0.03453    0.014392   -0.007045    0.010495    -0.41598    0.041351    0.074482
0.042651    0.022837  -0.0015233    0.011144    -0.41695    0.045574    0.073507
0.047847    0.029658   0.0049729   0.0085458    -0.40883    0.042975    0.064088
0.048172    0.032582    0.011469   0.0043233    -0.39357    0.036479    0.054344
0.041676    0.028684    0.014068  0.00010078    -0.37635    0.026735    0.045574
0.031282    0.020564    0.012443  -0.0037969    -0.36238    0.014717    0.037778
0.020564    0.011144    0.008221  -0.0080194    -0.35167   0.0023744    0.030957
0.011794   0.0039985   0.0049729  -0.0093186     -0.3351  -0.0073698    0.026085
0.0036737  -0.0024977   0.0052977  -0.0076946    -0.30262   -0.014191    0.022188
-0.0057458  -0.0037969   0.0065969  -0.0060706    -0.25325   -0.017764    0.016991
-0.018088  -0.0011985   0.0072465  -0.0067202    -0.19673    -0.01614   0.0085458
-0.029457  0.00010078   0.0078962  -0.0099683    -0.14736  -0.0083442  -0.0028225
-0.034978 -0.00022403   0.0075714   -0.013541    -0.11196  0.00042559   -0.014191
-0.03303  -0.0028225   0.0017248   -0.016464   -0.098316   0.0075714    -0.02361
-0.028482  -0.0054209   -0.008669   -0.012567    -0.10351    0.011469   -0.029132
-0.021661  -0.0047713   -0.017114  -0.0018481    -0.11586    0.009845   -0.029782
-0.017114   0.0017248    -0.01484    0.008221    -0.12268   0.0069217   -0.026209
-0.011917    0.010495  -0.0096434   0.0088706     -0.1204   0.0062721   -0.021661
-0.0076946    0.019589  -0.0047713   0.0020496    -0.11033   0.0065969   -0.022311
-0.0089938    0.024137  -0.0018481  -0.0047713   -0.097666   0.0010752   -0.026533
-0.017764    0.020888  -0.0024977  -0.0083442   -0.080776   -0.012242   -0.034654
-0.028807    0.010819   -0.007045   -0.008669   -0.056091   -0.031081   -0.043748
-0.038551 -0.00022403   -0.015815  -0.0083442    -0.02361   -0.050244    -0.04927
-0.041475  -0.0080194   -0.025234   -0.007045    0.011794   -0.062587   -0.052518
-0.037252   -0.011592   -0.030756  -0.0041217    0.037778   -0.063886   -0.051868
-0.029782  -0.0073698   -0.027508   0.0017248    0.032582   -0.055766   -0.046347
-0.021986  0.00075039   -0.014516    0.009845   -0.025884   -0.043099   -0.034654
-0.01484    0.010495  0.00075039    0.012443    -0.15646   -0.031406   -0.021337
-0.010293    0.016016   0.0088706    0.009845    -0.35264   -0.025559   -0.016464
-0.0080194     0.01764   0.0085458   0.0017248    -0.57189   -0.029782   -0.023935
-0.0037969    0.015042   0.0043233  -0.0073698    -0.75638   -0.042774   -0.037902
-0.00022403    0.011794   0.0020496   -0.014191    -0.85512   -0.055441   -0.051868
-0.0021729   0.0046481   0.0023744    -0.01549    -0.85025   -0.063561   -0.059989
-0.0099683  -0.0011985   0.0069217  -0.0099683    -0.75865    -0.06616   -0.059989
-0.017764  -0.0044465    0.012443   0.0010752    -0.62515   -0.060638   -0.054467
-0.023285  -0.0015233    0.017965    0.012768    -0.48841   -0.050244   -0.046671
-0.023935   0.0046481     0.01894    0.021213    -0.37278   -0.039201   -0.038551
-0.019063    0.011794     0.01829    0.023487    -0.28118   -0.029457   -0.032055
-0.010293     0.01764    0.014392    0.017965     -0.2068   -0.020362   -0.033354
0.0023744    0.019589   0.0072465   0.0033489    -0.14541   -0.014191   -0.040175
0.012119    0.015042  -0.0028225   -0.014516   -0.097666   -0.014516   -0.046671
0.015042   0.0059473   -0.012892   -0.030431   -0.070382   -0.022311   -0.046022
0.0085458  -0.0034721   -0.021012   -0.041799   -0.064211   -0.032705   -0.036602
-0.00087364  -0.0073698   -0.026858    -0.04862   -0.069083   -0.043099   -0.022961
-0.0080194  -0.0054209    -0.03238   -0.050244   -0.075904   -0.053168   -0.010618
-0.0099683  -0.0044465   -0.036278   -0.048296   -0.077528   -0.058365  -0.0044465
-0.0024977   -0.008669   -0.042449   -0.046996   -0.072331   -0.055441  -0.0073698
0.0069217   -0.016464   -0.046996    -0.04927   -0.059989   -0.045697   -0.013216
0.016666   -0.022961   -0.044723   -0.053492   -0.042449   -0.034004   -0.017764
0.023162   -0.023935   -0.033354   -0.053168   -0.021012   -0.024585   -0.018738
0.024786   -0.021337    -0.01549   -0.043423   0.0095202   -0.018738   -0.017764
0.019589   -0.016464   0.0046481   -0.028482     0.05142   -0.010943   -0.017114
0.012768   -0.011592    0.022188   -0.017439     0.10534  -0.0018481   -0.018088
0.01017   -0.011917    0.031282   -0.017114     0.17225   0.0062721   -0.019063
0.012119   -0.017764    0.029658   -0.020687     0.25183    0.010819   -0.021012
0.015367   -0.023285    0.021863   -0.020362     0.34602   0.0091954   -0.023935
0.015692   -0.025559    0.011469  -0.0099683     0.45191   0.0017248   -0.026533
0.010819   -0.023285    0.003024   0.0039985     0.55617   -0.010618   -0.027833
0.0023744   -0.019388 -0.00022403    0.017965     0.64257   -0.017764    -0.02361
-0.0044465   -0.015165  0.00010078    0.029983     0.69779   -0.017439   -0.018088
-0.011592   -0.013216  -0.0011985    0.034855     0.71403   -0.013866   -0.017114
-0.015165   -0.012242  -0.0067202    0.032257     0.68642   -0.013541   -0.020687
-0.015815   -0.011592   -0.014191    0.022512     0.62113    -0.01614    -0.02426
-0.017439   -0.010293   -0.021661   0.0078962     0.53376    -0.01614    -0.02426
-0.019063   -0.011592   -0.029782  -0.0089938     0.44216  -0.0076946   -0.021661
-0.017764   -0.014516   -0.035628   -0.020362     0.35999   0.0072465    -0.01549
-0.012567   -0.015165   -0.035628   -0.021337       0.296    0.022512  -0.0044465
-0.0034721   -0.012567    -0.03238   -0.016464      0.2554     0.03453   0.0065969
0.0059473   -0.008669   -0.028807   -0.011917     0.23169    0.041027     0.01829
0.014392  -0.0060706   -0.027183    -0.01549     0.22032    0.048172    0.026085
0.020888  -0.0057458   -0.028482   -0.027508      0.2174    0.060515    0.030308
0.021213  -0.0083442   -0.033679   -0.044073     0.22032    0.079679    0.030633
0.014717   -0.012567   -0.037252   -0.054792     0.22584    0.099817    0.029658
0.0020496   -0.020687   -0.037577   -0.053817     0.22519     0.11541    0.028034
-0.0073698   -0.027833   -0.034654     -0.0405     0.21577     0.12515    0.026085
-0.01484   -0.030106   -0.032705   -0.011917     0.20213     0.13262    0.023812
-0.019388   -0.026209   -0.026533    0.031282      0.1781     0.14074    0.022512
-0.022961   -0.017114  -0.0080194    0.080003     0.14074     0.14886    0.022512
-0.018413  -0.0024977    0.022188     0.12483    0.093321     0.15049    0.029333
-0.0028225    0.015367    0.059216     0.15536    0.046223     0.14334    0.042326
0.017965    0.032906    0.092346     0.16478   0.0023744      0.1271    0.054668
0.035505    0.045249     0.11281     0.15406   -0.036927     0.10664     0.06019
0.044275    0.049147     0.11866       0.131   -0.070058    0.086824    0.055318
0.043625     0.04395     0.10956     0.10534   -0.097666    0.063438    0.044275
0.038103    0.033556    0.090397    0.083251    -0.12105     0.03453    0.033881
0.029333    0.024137    0.067336    0.065387    -0.14314   0.0046481     0.02706
0.020888    0.014392    0.048822    0.052395      -0.161   -0.019388    0.023812
0.013743   0.0052977    0.037129    0.042326    -0.16198   -0.037577    0.024137
0.0088706  -0.0015233    0.031607    0.033556    -0.12722   -0.052193    0.029658
0.0072465  -0.0011985     0.02706    0.025761   -0.041799   -0.064211    0.038753
0.009845   0.0078962    0.023812    0.021213    0.092346   -0.080451    0.044599
0.014717    0.019589    0.020239    0.022837     0.24013    -0.10091     0.04395
0.015042    0.029009     0.01764    0.023162     0.35804     -0.1243    0.038103
0.008221    0.030633    0.015367     0.01829     0.41358    -0.14541    0.026735
-0.0034721    0.024786   0.0085458   0.0065969     0.40091    -0.16198    0.014717
-0.010943    0.014068   0.0017248  -0.0047713     0.33173    -0.16945   0.0088706
-0.0076946   0.0020496  0.00042559   -0.012242     0.23104     -0.1649   0.0091954
0.0023744   -0.008669   0.0017248   -0.015165      0.1219    -0.15126    0.012443
0.011469    -0.01484   0.0046481   -0.014516    0.019914    -0.13437    0.011794
0.012443    -0.01614   0.0072465   -0.012892   -0.076229    -0.11715   0.0069217
-0.00022403    -0.01484   0.0046481  -0.0093186    -0.17789    -0.09929      0.0014
-0.020037    -0.01484  -0.0054209  -0.0011985     -0.2919   -0.084349   0.0020496
-0.037252   -0.013866   -0.013866   0.0052977    -0.41728   -0.072981   0.0039985
-0.047971   -0.011917   -0.021661 -0.00054884    -0.54558    -0.06551  0.00075039
-0.054467  -0.0096434   -0.030756    -0.03173    -0.65146   -0.063886  -0.0096434
-0.059989  -0.0083442     -0.0405   -0.079802    -0.70148   -0.064536   -0.019712
-0.060313  -0.0089938   -0.044073    -0.12008    -0.66056   -0.061613   -0.026858
-0.050569  -0.0076946   -0.042449    -0.13307    -0.50822   -0.049595   -0.026533
-0.030106  -0.0011985   -0.038551    -0.11845    -0.26202   -0.029132   -0.020037
-0.0041217    0.009845   -0.033679   -0.087922    0.020888  -0.0041217   -0.010293
0.016666    0.022188   -0.028482   -0.054142     0.27229     0.01764   0.0017248
0.026085    0.032582   -0.021661    -0.02426     0.43437    0.031932    0.016666
0.022837    0.035505   -0.013866   0.0033489     0.49056    0.040377    0.030308
0.011794    0.033231  -0.0063954    0.025761     0.46458      0.0433    0.038428
-0.0024977     0.02706  -0.0021729    0.041676     0.39312    0.039402    0.040052
-0.012892    0.024137  -0.0050961    0.048497     0.32134    0.027385    0.036154
-0.013541    0.024461   -0.011267     0.04395     0.27749    0.009845    0.028684
-0.0063954     0.02706   -0.019388    0.033881     0.27521  -0.0096434    0.021863
0.0014    0.029658   -0.026533    0.028034     0.30639   -0.026209     0.01829
0.0078962    0.029009   -0.029782    0.029658     0.34862    -0.03238    0.017965
0.012443    0.024461   -0.026533     0.03583     0.37168   -0.024909    0.019914
0.014717     0.01764   -0.021986    0.039402     0.35057  -0.0054209    0.023487
0.014717    0.013093   -0.018088    0.038103     0.26904    0.024137    0.027385
0.013093    0.011144   -0.018088     0.03518     0.11541    0.055318    0.028359
0.0075714     0.01017   -0.022636    0.030633    -0.11975     0.07773     0.02706
-0.00022403   0.0065969   -0.029457    0.023812    -0.41858    0.081952    0.022837
-0.0089938   0.0010752   -0.034004    0.013093    -0.73299    0.063113    0.016341
-0.014191  -0.0054209   -0.031406  0.00075039    -0.98861    0.028034   0.0091954
-0.01549   -0.010618   -0.024909   -0.010618     -1.1085  -0.0096434   0.0026992
-0.014516   -0.012567   -0.021337   -0.018413      -1.051   -0.040825  -0.0063954
-0.014516   -0.011267   -0.021337   -0.022961    -0.81809   -0.059989   -0.020687
-0.016789  -0.0083442   -0.022636   -0.021661    -0.44294   -0.068434   -0.034978
-0.020362  -0.0037969   -0.024585   -0.018413    0.003024   -0.068758   -0.045372
-0.02361   0.0026992   -0.025884   -0.017114     0.43145   -0.063561   -0.046022
-0.025559    0.010819   -0.026533   -0.017114       0.766   -0.053168   -0.039526
-0.02426    0.016991   -0.024909   -0.018088     0.95926   -0.037577   -0.031081
-0.020037    0.019914   -0.021661    -0.01484      1.0018   -0.017439   -0.023935
-0.01614    0.020564   -0.018738  -0.0083442     0.91508   0.0017248   -0.019063
-0.018088    0.017965   -0.021661  -0.0050961     0.71857    0.011469   -0.022311
-0.027508    0.014717   -0.029132   -0.012242     0.42105      0.0014   -0.032055
-0.044073    0.010819   -0.036927   -0.031081    0.026735   -0.031406   -0.043099
-0.062912   0.0062721   -0.040175   -0.059339    -0.46405   -0.077853   -0.050894
-0.079802   0.0020496   -0.038227   -0.087922      -1.036     -0.1269   -0.056091
-0.092469 -0.00087364   -0.034654    -0.10774     -1.6044    -0.16815   -0.062262
-0.097666  -0.0044465   -0.033354    -0.11521      -2.017    -0.19478   -0.069733
-0.09182   -0.010618   -0.033679    -0.11261     -2.1254     -0.2055   -0.077528
-0.076229    -0.01614   -0.033354    -0.10189     -1.8727    -0.20485   -0.078503
-0.058365   -0.016464   -0.029132   -0.085648     -1.3349    -0.19511   -0.069083
-0.043099   -0.014191   -0.019712   -0.068109    -0.68622    -0.17984   -0.052193
-0.033354   -0.011267  -0.0099683    -0.04992    -0.10838    -0.16458    -0.03303
-0.027508   -0.011592  -0.0060706    -0.03238     0.28561    -0.15776   -0.021986
-0.026209   -0.014516  -0.0096434   -0.019388     0.49121     -0.1597   -0.020362
-0.029132   -0.018088   -0.017114   -0.012567     0.56559    -0.16653   -0.026209
-0.034329   -0.020037   -0.023935   -0.010943     0.57501     -0.1701   -0.036278
-0.039851   -0.020362   -0.025234   -0.010618     0.56851    -0.16328   -0.046347
-0.043099   -0.021661   -0.021661  -0.0060706     0.57598    -0.14216   -0.053492
-0.043748   -0.024909   -0.020362   0.0033489     0.60262    -0.10514   -0.056416
-0.039526   -0.026209   -0.023935    0.016341      0.6364   -0.053817   -0.052843
-0.034329   -0.022961   -0.031081    0.027385     0.65621 -0.00022403   -0.044723
-0.028157    -0.01614   -0.039526    0.033231     0.65166    0.041351   -0.034654
-0.016464   -0.008669   -0.046022    0.034206     0.62243    0.063438   -0.024585
0.0017248  -0.0044465   -0.048296    0.032582     0.57209    0.066362    -0.01614
0.016666  -0.0031473    -0.04992    0.026735     0.49121     0.05272   -0.011267
0.023162  -0.0044465   -0.051219     0.01829     0.36648    0.024461  -0.0073698
0.022188   -0.008669   -0.048945    0.015042     0.20635   -0.010943  -0.0050961
0.019589   -0.012567   -0.042449     0.01894    0.051096   -0.040825  -0.0044465
0.019589   -0.014191   -0.033354    0.027385   -0.051544   -0.053168  -0.0054209
0.022837   -0.010293   -0.021012     0.03583   -0.073631   -0.048945  -0.0063954
0.029333  -0.0011985  -0.0067202    0.045249   -0.018738   -0.032055  -0.0011985
0.035505    0.012443   0.0065969    0.056617    0.083901   -0.010943   0.0088706
0.037778    0.023812    0.014717     0.06831     0.19726     0.01017     0.01764
0.039402    0.030957    0.019914    0.076106     0.28821    0.030957    0.023487
0.042975     0.03453    0.023162    0.076431     0.33628    0.049796    0.024786
0.047523    0.033556    0.023487    0.070259     0.33595    0.061814    0.024786
0.055318    0.029333    0.021863    0.061489     0.29373    0.067661    0.025436
0.065712    0.026085    0.016016    0.056942     0.22454    0.077405    0.030957
0.073832    0.028359   0.0085458    0.059541     0.14984    0.094945    0.041676
0.075781    0.032582   0.0043233     0.06831    0.093321     0.11573     0.05272
0.076755    0.033881   0.0078962    0.079029    0.053044     0.13717    0.060515
0.080003    0.029333    0.014392     0.08585    0.008221     0.15179    0.065387
0.080653     0.01894    0.019589    0.080978   -0.059989     0.15373     0.06831
0.072858   0.0039985     0.01894    0.063763    -0.15483     0.14237    0.066362
0.057592   -0.010943     0.01017    0.039078    -0.26559      0.1219    0.055643
0.040702   -0.018088  -0.0011985    0.016991    -0.38187    0.096893    0.040377
0.026085   -0.017114  -0.0076946   0.0036737    -0.49426    0.072858    0.031282
0.015367  -0.0080194  -0.0076946    0.003024    -0.59754    0.056292    0.028684
0.0095202   0.0026992 -0.00054884    0.009845    -0.69369    0.046223    0.027385
0.0085458   0.0095202    0.011144    0.017965    -0.77944    0.040702    0.023487
0.011794    0.011144    0.025111    0.024137    -0.82881    0.038103    0.016991
0.017965   0.0095202    0.036154    0.022188    -0.80347    0.036479   0.0088706
0.022837     0.01017    0.042651    0.012768    -0.67907    0.032906  0.00010078
0.027709    0.013743      0.0433 -0.00022403    -0.46892    0.028359   -0.007045
0.029009     0.01894    0.039402  -0.0076946     -0.2172    0.023812   -0.010943
0.02641    0.022188    0.031932   -0.010293    0.020888    0.023162   -0.007045
0.02641    0.021538    0.019589  -0.0089938     0.20376    0.023812   0.0010752
0.029983    0.016341   0.0049729  -0.0024977     0.32393    0.027385   0.0056225
0.033881    0.010495  -0.0083442   0.0065969     0.39117    0.028684  0.00042559
0.03583   0.0059473   -0.017114    0.015692      0.4165    0.027709   -0.011592
0.035505    0.003024   -0.020687    0.020239     0.42073    0.025111   -0.025559
0.032906 -0.00054884   -0.021986    0.015692     0.42592     0.01894   -0.033354
0.024786  -0.0080194   -0.021986   0.0036737     0.44379   0.0059473   -0.035953
0.012768   -0.018738   -0.018413   -0.011592      0.4714   -0.013216   -0.030756
0.0020496   -0.028807   -0.013541   -0.023935     0.49413   -0.030756   -0.020687
-0.0067202   -0.038227  -0.0060706    -0.03303     0.50063   -0.036278   -0.010293
-0.016464   -0.040825   0.0039985   -0.033354     0.48894   -0.028157  -0.0021729
-0.026858   -0.032705    0.012119    -0.02361     0.46782   -0.012242   0.0033489
-0.034654   -0.018413    0.014392  -0.0076946     0.45223   0.0020496   0.0065969
-0.033679  -0.0057458    0.011469   0.0091954     0.44314     0.01017   0.0085458
-0.028807   0.0020496   0.0065969    0.026735     0.43145    0.018615    0.013743
-0.026858   0.0033489   0.0043233    0.041351     0.41228    0.029658    0.022188
-0.029457      0.0014   0.0059473    0.047847      0.3889    0.042975    0.030633
-0.034978  -0.0031473    0.012443    0.045899     0.36324    0.055968    0.036154
-0.038551  -0.0060706    0.017965    0.039078     0.33628    0.062789    0.040702
-0.038876  -0.0057458    0.023162     0.03518     0.30802    0.063113    0.044924
-0.034329  -0.0021729    0.027709    0.035505     0.27846    0.056292    0.045249
-0.025884   0.0039985    0.030957    0.042001     0.24598    0.044599    0.037778
-0.021012   0.0069217    0.031607    0.045574     0.20538    0.030957    0.028034
-0.020037    0.003024    0.027385    0.043625     0.15536    0.020564    0.020564
-0.022636   -0.007045    0.016991    0.036479    0.098517     0.01894    0.022188
-0.028157   -0.018413   0.0046481    0.023487    0.032582    0.021863    0.026085
-0.035628   -0.028807  -0.0047713    0.011469   -0.046022    0.020564    0.030633
-0.039526   -0.037252  -0.0054209   0.0026992    -0.13957    0.012443    0.037778
-0.035628   -0.044723  0.00075039  0.00042559    -0.24935 -0.00054884    0.045899
-0.027833    -0.04992   0.0078962   0.0052977    -0.36856   -0.012242     0.05142
-0.020687   -0.048945    0.012119    0.016341    -0.48841   -0.021337     0.05272
-0.018088   -0.042124    0.012443    0.027385    -0.59949   -0.026533    0.048172
-0.021337   -0.034654   0.0095202    0.033231    -0.69629   -0.027508    0.041676
-0.026858   -0.029132   0.0072465    0.033881    -0.77197   -0.028482    0.038428
-0.031081   -0.027508   0.0043233    0.029658    -0.81906   -0.032055    0.037454
-0.030431   -0.029132 -0.00022403    0.024786    -0.81939   -0.038551    0.033881
-0.024909   -0.029782  -0.0060706    0.017316     -0.7632   -0.044073    0.025436
-0.013866   -0.027833  -0.0099683   0.0049729    -0.65796   -0.043748    0.016016
0.0023744   -0.021986   -0.008669  -0.0099683    -0.52934   -0.039526   0.0095202
0.019589   -0.015165  -0.0047713   -0.021986     -0.4124   -0.030756   0.0091954
0.030308  -0.0099683  -0.0041217   -0.027508    -0.34095   -0.019388    0.009845
0.031607  -0.0096434   -0.008669   -0.026533    -0.33802  -0.0057458   0.0088706
0.025111   -0.012892   -0.014191   -0.023285    -0.40688   0.0043233   0.0056225
0.014068   -0.018088    -0.01549   -0.019712    -0.53551   0.0069217  -0.0015233
0.0014   -0.022311   -0.012892   -0.014191    -0.68654  0.00075039   -0.011917
-0.0093186    -0.02361  -0.0093186  -0.0067202    -0.80802   -0.013866    -0.02361
-0.016789   -0.022636  -0.0067202  -0.0037969    -0.84635   -0.033679   -0.036278
-0.019063    -0.02361  -0.0063954   -0.011917    -0.77132   -0.054792    -0.04862
-0.020362   -0.029457   -0.008669   -0.034004    -0.58845   -0.075579   -0.058689
-0.021661   -0.035628   -0.011592   -0.067784    -0.33478   -0.094093   -0.065835
-0.022961   -0.038876   -0.017764    -0.10481   -0.061613    -0.10254   -0.067459
-0.026858   -0.040175   -0.023285    -0.14249     0.17647    -0.10059   -0.065835
-0.035303   -0.038876   -0.023285    -0.17302     0.34082    -0.09182   -0.063561
-0.045697   -0.034978   -0.018738    -0.19024     0.42073   -0.078503   -0.060963
-0.053817   -0.025234   -0.012567    -0.19186      0.4282   -0.066485   -0.059989
-0.055766   -0.010618   -0.010293    -0.17984     0.39117   -0.062262   -0.058689
-0.046671   0.0026992   -0.015165    -0.16653     0.33205    -0.06681   -0.052843
-0.032705   0.0095202   -0.026533    -0.16393       0.258   -0.073306   -0.043748
-0.021012    0.011469   -0.041475     -0.1727      0.1742   -0.075255   -0.035303
-0.013541    0.013418    -0.04927    -0.18277    0.090072   -0.075904   -0.029782
-0.011917    0.014717   -0.045372    -0.18244    0.030308   -0.076554   -0.029132
-0.013216     0.01764   -0.027508    -0.16847    0.015042   -0.075255   -0.027508
-0.014516    0.023162  -0.0054209    -0.13892    0.046548   -0.071682   -0.017439
-0.012567    0.033231    0.010495    -0.10384     0.10209   -0.059664  -0.0021729
-0.0076946    0.045899    0.014392   -0.073306     0.15503   -0.039851    0.011144
-0.0044465     0.05272   0.0059473   -0.055116     0.18622   -0.020037    0.013093
-0.0050961    0.049147  -0.0096434   -0.043099     0.18102  -0.0089938   0.0033489
-0.012892    0.036154   -0.026858   -0.016464     0.13587   -0.013866   -0.011592
-0.024585    0.021538   -0.037577    0.055968    0.063763   -0.034004   -0.026533
-0.035628    0.010819   -0.035628     0.19239   -0.011267   -0.061288   -0.034654
-0.041799   0.0088706   -0.022961     0.37753   -0.062262   -0.085648   -0.035303
-0.039851    0.016991  -0.0047713     0.55487   -0.069083    -0.10189    -0.03303
-0.030431    0.032257    0.015042     0.65491   -0.025559    -0.10903   -0.028807
-0.013541     0.05142    0.029009     0.64354    0.053044    -0.10579   -0.021661
0.0072465    0.066037    0.030633     0.52402     0.13262   -0.091495   -0.013866
0.020888    0.066037    0.015042     0.32686     0.18751   -0.068109  -0.0060706
0.026085    0.054019   -0.012567     0.10924      0.2135    -0.04115  0.00042559
0.025436    0.039402   -0.040175   -0.062262     0.23364   -0.012242   0.0049729
0.025761    0.029658    -0.05804    -0.14249      0.2619    0.019589   0.0078962
0.030957    0.029333   -0.062262    -0.12625     0.29925     0.05142    0.012119
0.042651     0.03583   -0.054467   -0.050894      0.3392    0.072208    0.019914
0.048822    0.041351   -0.040175    0.032582      0.3772     0.07773    0.029658
0.046223      0.0433   -0.023935    0.086175     0.40741     0.06961    0.038103
0.034206    0.042001   -0.010293     0.10242     0.41975    0.053369    0.044599
0.017316    0.038428  0.00042559    0.090072     0.40481    0.036804    0.044275
-0.0018481    0.035505   0.0088706    0.065712     0.35512    0.022837    0.037129
-0.017764    0.035505    0.013093    0.040702     0.27651    0.012443    0.023812
-0.022961    0.032582    0.012768    0.022837     0.18329   0.0036737    0.011794
-0.020037     0.02641    0.010819    0.009845    0.094945 -0.00022403   0.0020496
-0.011592    0.016016   0.0088706  -0.0041217    0.022837  -0.0011985  -0.0044465
-0.0021729   0.0078962   0.0095202   -0.020687   -0.031406  -0.0044465   -0.010293
0.0036737  0.00075039    0.008221   -0.036602   -0.065186   -0.012892    -0.01549
0.0056225  -0.0067202   0.0062721   -0.047321   -0.071682   -0.024585   -0.019712
0.003024   -0.012242   0.0069217   -0.044723   -0.047971   -0.036602   -0.028482
-0.0021729   -0.012892   0.0072465   -0.033679  -0.0044465   -0.051219   -0.040175
-0.0080194   -0.010293   0.0069217   -0.019388    0.037129   -0.069083   -0.051868
-0.0083442  -0.0057458   0.0091954   -0.010293    0.055968   -0.084024   -0.057715
-0.0034721  -0.0015233    0.015692  -0.0089938    0.044599   -0.092469   -0.050244
0.0046481   0.0023744    0.020888   -0.011592    0.016016   -0.091495   -0.037902
0.009845    0.003024    0.021863    -0.01549   -0.016464   -0.084999   -0.026858
0.0075714  -0.0011985    0.018615   -0.026209   -0.045372   -0.076879   -0.022636
0.00010078   -0.008669    0.010495   -0.043748   -0.060638   -0.071032   -0.023285
-0.013216    -0.01549  -0.0018481   -0.067134   -0.034329   -0.068758   -0.028157
-0.028807   -0.020037   -0.011592   -0.090521    0.065712   -0.070382   -0.030106
-0.043423   -0.024585    -0.01549    -0.10838     0.23591   -0.070382   -0.027833
-0.053492   -0.031081   -0.016464    -0.11845     0.41391   -0.063237   -0.024909
-0.055766   -0.038551   -0.021661    -0.12235     0.49121   -0.050894   -0.024585
-0.053168   -0.047321   -0.033679    -0.12203     0.33563   -0.043423   -0.028482
-0.052193   -0.054142   -0.047971    -0.12268    -0.13145   -0.047321   -0.034329
-0.054142   -0.054142   -0.055766    -0.12852    -0.82394   -0.064211   -0.039526
-0.05804   -0.047971   -0.056091    -0.13469     -1.5106   -0.090521   -0.043099
-0.059339   -0.038876   -0.050244    -0.13502     -1.9422    -0.11391   -0.044398
-0.048945   -0.031081   -0.045047     -0.1256     -1.9815    -0.12203   -0.042774
-0.031406   -0.023285   -0.045047    -0.10838     -1.6473    -0.10838   -0.034978
-0.013541   -0.015165   -0.048296   -0.090196     -1.0773   -0.073955   -0.025559
-0.0041217  -0.0089938    -0.04927   -0.073306     -0.4556   -0.029132   -0.017439
-0.0015233  -0.0037969   -0.049595   -0.059989    0.055968    0.011469   -0.012567
0.00042559  -0.0011985   -0.046347   -0.046347     0.36324    0.039402  -0.0096434
0.0046481   0.0010752   -0.043423   -0.034329      0.4571    0.047523  -0.0047713
0.014068   0.0036737   -0.037902   -0.024585     0.39214    0.039078   0.0049729
0.025111   0.0062721   -0.028482   -0.019388     0.25735    0.025436    0.016666
0.040052    0.011144   -0.017114   -0.018088     0.13165    0.017965    0.024461
0.055968     0.01829  -0.0083442   -0.019063    0.059216    0.020239    0.025761
0.071558    0.029009  -0.0031473   -0.019063    0.045249    0.033231    0.024786
0.079354    0.038753 -0.00022403   -0.013216    0.070909    0.051096    0.026085
0.079354    0.044924   0.0056225  -0.0041217     0.10729    0.068635    0.033556
0.075456    0.044275   0.0072465   0.0062721     0.12028    0.079354    0.044924
0.068635    0.037454 -0.00054884    0.016666    0.081303    0.081303    0.056617
0.059216    0.029983   -0.014516    0.022837   -0.008669    0.073832    0.065387
0.047198    0.025436   -0.024909    0.023162    -0.11326     0.06084    0.067011
0.036154    0.021863   -0.029132    0.016341    -0.18147    0.047523    0.061165
0.027709    0.015042   -0.025884   0.0049729    -0.18114    0.032906    0.050121
0.019264   0.0072465   -0.020687  -0.0047713    -0.11261    0.020239    0.039078
0.010819   0.0026992   -0.011267  -0.0099683   -0.011592    0.011469    0.034206
0.0020496      0.0014  0.00042559   -0.014191    0.074806   0.0052977    0.031607
-0.0067202  0.00075039     0.01017   -0.019063     0.11118  0.00042559    0.028359
-0.014516    0.003024    0.015367   -0.024585      0.0865  -0.0034721    0.027385
-0.019388   0.0059473    0.016666   -0.025234    0.020239  -0.0031473    0.030633
-0.017114    0.009845    0.014717   -0.019712   -0.056741   0.0039985     0.03518
-0.0083442    0.013093    0.012119   -0.010293    -0.10644    0.015692    0.036479
0.0023744    0.016991    0.010819   0.0017248    -0.10611    0.028684     0.03518
0.0095202    0.019264    0.013418    0.013743   -0.050894     0.04395    0.033881
0.009845    0.020564    0.014068    0.018615    0.048497     0.06019    0.033231
0.0052977    0.018615    0.010495    0.014717       0.169    0.072858    0.031607
-0.0011985    0.016666 -0.00022403  0.00075039     0.28788    0.079029    0.023487
-0.014191    0.011469   -0.019712   -0.023935     0.39052    0.076106    0.009845
-0.030106   0.0036737   -0.044073   -0.057715     0.47497    0.065712  -0.0041217
-0.045047  -0.0076946   -0.063561   -0.087272     0.54708    0.048172    -0.01549
