-0.035303    0.012119   -0.030106   -0.084999     -0.1334   -0.036278    0.021213
-0.028157    0.016016   -0.020362   -0.089221   -0.056091    -0.04992    0.024137
-0.017764    0.016341   -0.013866   -0.082725   0.0046481   -0.063561    0.025111
-0.010618    0.013743   -0.010618   -0.073631      0.0433   -0.076879    0.020564
-0.011267    0.008221  -0.0093186   -0.071357    0.066686   -0.093119   0.0085458
-0.019063  0.00042559   -0.010943   -0.076229    0.091696    -0.11228  -0.0073698
-0.032055  -0.0047713    -0.01549   -0.087597     0.13262     -0.1308   -0.021986
-0.044723  -0.0057458   -0.025234    -0.10124     0.19596    -0.14574   -0.029457
-0.056416  -0.0028225   -0.035303    -0.11163     0.27554    -0.15223   -0.030756
-0.065186   0.0026992   -0.043423    -0.11715     0.35349    -0.14736   -0.030106
-0.069408   0.0036737   -0.045372    -0.11748     0.40806    -0.13112   -0.031406
-0.064211   0.0059473     -0.0405    -0.11358     0.42008    -0.10774   -0.035303
-0.053168   0.0075714    -0.03173    -0.10676     0.38435   -0.079152   -0.036278
-0.045047   0.0072465   -0.019712    -0.09929     0.31386   -0.051868   -0.031406
-0.042449   0.0043233   -0.012242    -0.09117     0.23039   -0.028157   -0.023285
-0.047321   0.0020496   -0.010293     -0.0837     0.15438   -0.010618   -0.017114
-0.053168 -0.00087364   -0.011917   -0.078827    0.099492  0.00075039   -0.011267
-0.052843  -0.0037969   -0.013541   -0.077528    0.064737    0.010495  -0.0044465
-0.045047  -0.0044465   -0.012892   -0.079477    0.040377    0.021538   0.0026992
-0.030756  -0.0028225   -0.010618   -0.080127    0.018615    0.034855    0.011144
-0.015165   0.0017248   -0.011267   -0.078178   0.0010752    0.048172    0.016341
-0.00087364   0.0062721   -0.013216   -0.072331  -0.0015233    0.058241     0.01894
0.0059473   0.0078962   -0.010943   -0.061613    0.015042    0.067661    0.019264
0.0059473   0.0085458  -0.0050961   -0.051219    0.044599    0.076106    0.018615
0.0014     0.01017   0.0020496    -0.04115    0.076106     0.08585     0.01829
-0.0047713    0.011794    0.003024   -0.036602    0.098517     0.09462    0.022837
-0.014191    0.009845  -0.0018481   -0.039851     0.10306    0.097218    0.027385
-0.023935   0.0020496   -0.011592    -0.04862    0.087799    0.091696    0.025761
-0.028807  -0.0093186   -0.025234   -0.058689    0.059216    0.082277    0.016666
-0.029457   -0.018738   -0.036927   -0.063237    0.030308    0.071883   0.0052977
-0.026209   -0.025884   -0.047971   -0.060638     0.01017    0.064413  -0.0034721
-0.020362   -0.026858   -0.051868    -0.04862 -0.00054884    0.066686  -0.0073698
-0.013541   -0.021012   -0.044073   -0.028807  -0.0083442    0.081952  -0.0060706
-0.0063954   -0.013541   -0.023285  -0.0054209   -0.019388     0.10566      0.0014
0.0017248   -0.007045   0.0046481    0.016016    -0.03238      0.1284    0.012768
0.011469  -0.0034721    0.030957    0.030633   -0.046671     0.13879    0.027385
0.021863  0.00010078    0.046873    0.037454   -0.065186      0.1323      0.0433
0.028359   0.0056225    0.050771    0.037454   -0.090196     0.11054    0.057917
0.030957    0.010495    0.047523    0.037778     -0.1243    0.079029    0.070584
0.030957    0.013743    0.042001    0.042975     -0.1623    0.047198    0.076431
0.029658    0.013093     0.03583     0.05207    -0.18796    0.022512    0.072858
0.029658    0.011469    0.031282    0.061489    -0.19024   0.0075714    0.063763
0.031607    0.011144     0.02706    0.067336    -0.16393  0.00042559    0.056292
0.03453    0.010495    0.022837    0.067986    -0.11261  -0.0031473    0.050121
0.041351    0.012119    0.021538    0.068635   -0.050244  -0.0031473    0.041027
0.053044    0.013743    0.022188    0.070259    0.012119 -0.00022403    0.032906
0.062789    0.014392    0.024137     0.06961    0.064413   0.0023744    0.029009
0.067011    0.010819    0.024137    0.065712     0.10047 -0.00022403     0.02641
0.059541   0.0036737    0.018615    0.058241     0.11671  -0.0083442    0.023812
0.043625  -0.0054209     0.01017    0.046873     0.12158   -0.017439    0.021863
0.021863   -0.013216   0.0023744    0.035505     0.12125   -0.022961    0.021213
0.0010752   -0.018738  -0.0011985    0.027709     0.11508   -0.025559    0.019264
-0.011592   -0.018413 -0.00087364    0.024461     0.10371   -0.030431     0.01764
-0.013216   -0.012242   0.0026992    0.026085     0.07773   -0.042124    0.014392
-0.0083442  -0.0031473   0.0043233    0.027385    0.029333   -0.061613     0.01017
-0.0021729   0.0056225 -0.00087364    0.027709     -0.0405   -0.085973   0.0049729
0.0033489     0.01017  -0.0093186    0.025761     -0.1178    -0.10871  -0.0028225
0.0075714   0.0095202   -0.015815    0.022837    -0.18536    -0.12073   -0.011592
0.014068   0.0069217   -0.016464    0.021538    -0.23376     -0.1204   -0.018088
0.020888   0.0078962   -0.013541    0.024137     -0.2591    -0.10806   -0.018088
0.025111   0.0091954  -0.0089938    0.030633    -0.26884   -0.092469   -0.011592
0.024461    0.009845  -0.0057458    0.039078    -0.27599   -0.079802  -0.0028225
0.019914     0.01017  -0.0034721    0.049472    -0.28768   -0.072331   0.0065969
0.016016    0.009845  -0.0015233    0.062789    -0.31171    -0.06616    0.014717
0.013093   0.0091954 -0.00022403    0.078379    -0.34744   -0.058365    0.016666
0.013418   0.0085458    0.003024    0.092996    -0.39097   -0.046022   0.0088706
0.016016    0.011144   0.0065969     0.10339    -0.43839   -0.034654  -0.0073698
0.019264    0.013093   0.0075714     0.10794    -0.49718    -0.03303    -0.02426
0.016666    0.012443   0.0039985     0.10761    -0.57838   -0.045047   -0.035953
0.012119   0.0046481  0.00010078     0.10112    -0.67647   -0.066485    -0.04115
0.0036737  -0.0050961  -0.0054209    0.080978    -0.77359   -0.087922   -0.038876
-0.0089938  -0.0096434    -0.01484    0.041676     -0.8431    -0.10579   -0.032055
-0.023285  -0.0089938   -0.026858    -0.01549    -0.85219    -0.11748   -0.026533
-0.034329  -0.0050961   -0.040175   -0.077528    -0.77879      -0.123   -0.024585
-0.0405 -0.00087364   -0.053168    -0.12235     -0.6232    -0.12138   -0.028807
-0.037252   0.0020496   -0.060313    -0.13437    -0.40786    -0.11228   -0.036927
-0.022961   0.0036737   -0.056416    -0.11423    -0.17562   -0.095393   -0.043099
-0.0067202   0.0046481   -0.047321   -0.070707    0.030308   -0.074605   -0.045697
0.0039985   0.0072465   -0.034329   -0.021012     0.18199   -0.053492   -0.049595
0.0052977   0.0072465   -0.021661    0.019589     0.27099    -0.03173   -0.055116
0.00010078   0.0059473   -0.012242    0.044924     0.30672   -0.010293   -0.059339
-0.007045   0.0075714  -0.0067202    0.054019     0.30185   0.0062721   -0.060963
-0.011917    0.012768  -0.0021729    0.056617     0.27521    0.012443   -0.057065
-0.012567    0.019264   0.0043233    0.054993     0.24046    0.010819   -0.050244
-0.0080194    0.024786    0.010819     0.05207     0.21058    0.009845   -0.043099
0.00075039    0.029333    0.014717     0.05272     0.19304    0.014068   -0.035628
0.010495    0.034206    0.010819    0.056617     0.18524    0.019914   -0.028807
0.018615    0.037454   0.0033489    0.058891     0.18004    0.024786   -0.021661
0.021538    0.038103  -0.0024977    0.056292     0.17582    0.027385    -0.01614
0.025436    0.036154  -0.0044465    0.050121     0.17257    0.028034   -0.013216
0.030308    0.031607  -0.0015233    0.043625     0.16998    0.030957   -0.013541
0.036479    0.024137   0.0043233    0.039078     0.16738     0.03453    -0.01549
0.042651    0.014717   0.0075714    0.036479      0.1664    0.041676   -0.018088
0.04395   0.0056225    0.003024    0.031282     0.16608     0.05142   -0.025559
0.040377  -0.0044465  -0.0054209    0.016341     0.16575    0.059865   -0.036602
0.029983   -0.012242   -0.014191  -0.0073698      0.1651    0.063438   -0.046671
0.017316   -0.016464   -0.018738   -0.031081     0.15796    0.060515   -0.052518
0.0075714   -0.019063   -0.019388   -0.044073     0.14042     0.05272   -0.054467
0.00010078   -0.022311   -0.020037   -0.046022     0.11541    0.041027   -0.051219
-0.0063954   -0.029132   -0.023285   -0.046996    0.093321    0.027709   -0.042774
-0.0093186   -0.037577   -0.031081   -0.054792    0.081303    0.016991    -0.03173
-0.0076946   -0.044723   -0.043423   -0.064536    0.086824   0.0091954   -0.022961
-0.0063954   -0.046671   -0.054792    -0.06551     0.11086   0.0017248   -0.017439
-0.0054209   -0.044398   -0.057715   -0.047971     0.14302  -0.0037969   -0.015165
-0.0041217   -0.035628   -0.047321   -0.010943     0.17257   -0.013541   -0.014516
0.00075039   -0.021661   -0.028157    0.032906     0.19434   -0.025559   -0.015815
0.011144   -0.008669   -0.012567    0.064737     0.20798   -0.035953   -0.022961
0.021538   0.0020496   -0.012242    0.068635      0.2148   -0.036927   -0.033679
0.029333    0.010495   -0.025559     0.04395      0.2083   -0.027183   -0.041799
0.033881    0.016666   -0.043099    0.012768     0.17972   -0.012242   -0.045697
0.03518    0.019589   -0.056091  -0.0024977     0.12158  -0.0044465   -0.042449
0.029983     0.01764   -0.059014    0.011469    0.037778  -0.0089938   -0.036927
0.019589    0.011144   -0.051868    0.048822   -0.059339   -0.021661   -0.029782
0.0078962 -0.00054884   -0.037577     0.09397    -0.15093   -0.036278    -0.02361
-0.0011985   -0.012892   -0.019063     0.13132      -0.212    -0.04862   -0.017439
-0.0089938   -0.022311  -0.0021729     0.14886    -0.22564   -0.052843    -0.01484
-0.01614   -0.026533    0.015367     0.14432    -0.19121   -0.046996   -0.017114
-0.022961   -0.026209    0.031282     0.11963    -0.12657   -0.035303   -0.022311
-0.03173   -0.027183    0.045574    0.083576   -0.052843   -0.025559   -0.025884
-0.04115   -0.029782    0.058566    0.049147    0.012768   -0.017439   -0.022311
-0.04992   -0.033679    0.067986     0.02641    0.058241   -0.008669   -0.012242
-0.052193   -0.034654    0.072208    0.021538    0.079354  0.00042559 -0.00087364
-0.043423    -0.03173    0.064413    0.021213    0.084226   0.0075714   0.0033489
-0.024585   -0.024909    0.036154  -0.0047713    0.090397    0.014068   0.0023744
0.0036737   -0.011267   -0.013216   -0.069733     0.10664    0.019914   0.0033489
0.034206   0.0088706   -0.072331    -0.15451     0.13814    0.026085    0.010819
0.057267    0.029983    -0.12138     -0.2172     0.17355    0.030633    0.025436
0.064737    0.047523    -0.14964    -0.22726     0.20213     0.03583    0.045899
0.058566    0.056617    -0.15256    -0.18114     0.21285    0.038753    0.064088
0.044275    0.057267     -0.1321   -0.093119     0.20376    0.039078    0.073182
0.033231    0.050771   -0.096042    0.013418     0.18037    0.038103    0.072533
0.030957    0.039402   -0.056416     0.11443     0.14886    0.036479    0.063763
0.037454     0.02641   -0.019712     0.18979     0.11898    0.033881    0.050771
0.048172    0.016666    0.009845     0.22844     0.10079    0.023487    0.038753
0.054668    0.010495    0.028684     0.22584    0.094945   0.0023744    0.031282
0.054344   0.0062721    0.034206     0.19596    0.099817   -0.021337    0.030308
0.045249   0.0039985    0.032906     0.15633     0.10956   -0.037577    0.031282
0.029333   0.0043233    0.030957     0.11703     0.11898   -0.039851    0.028359
0.012768   0.0075714    0.031282    0.084551     0.12288   -0.034004    0.019264
-0.00022403    0.013743    0.034206    0.055968     0.12353   -0.027833   0.0049729
-0.0050961     0.01764    0.039078    0.033231     0.12353   -0.025884  -0.0099683
-0.0028225    0.015692    0.041676    0.015367     0.12223   -0.023935   -0.020362
0.0014   0.0062721    0.040052   0.0043233     0.11866   -0.018738   -0.022636
0.003024  -0.0073698    0.030957  -0.0015233     0.11411   -0.013541    -0.01549
0.00042559   -0.017764    0.016991  -0.0041217     0.10956   -0.008669  -0.0028225
-0.0047713   -0.022961   0.0062721  -0.0093186     0.10436  -0.0063954   0.0069217
-0.012567   -0.025884   0.0026992   -0.016464    0.096244  -0.0037969   0.0078962
-0.025234   -0.030431   0.0059473   -0.025559    0.084551 -0.00054884   0.0056225
-0.041799   -0.037577    0.009845   -0.036278    0.070584   0.0043233   0.0023744
-0.062587   -0.044723    0.011469   -0.048945    0.054668   0.0026992  -0.0024977
-0.081751   -0.048945   0.0065969   -0.064211    0.036804  -0.0063954   -0.008669
-0.093444    -0.04862  0.00010078   -0.078827     0.02641   -0.021661   -0.014516
-0.093769   -0.046022  -0.0057458   -0.085648    0.032257   -0.036602   -0.017764
-0.083375   -0.039526  -0.0054209   -0.081101     0.05142   -0.044073   -0.017114
-0.066485   -0.028807  0.00042559   -0.070058     0.06961   -0.045047   -0.012242
-0.050244   -0.017764     0.01017   -0.059339    0.061489   -0.042124  -0.0031473
-0.041799  -0.0083442    0.019589   -0.056741    0.013743   -0.040175   0.0072465
-0.04115  -0.0028225    0.023487   -0.058365   -0.073631    -0.04115    0.016991
-0.047646  0.00075039    0.019264   -0.064211    -0.18049   -0.047321    0.021538
-0.055116   0.0056225   0.0088706   -0.069083    -0.28378   -0.053817    0.019914
-0.060963     0.01017 -0.00022403   -0.072006    -0.36661    -0.05804    0.016016
-0.063561    0.011794  -0.0018481   -0.070058     -0.4189    -0.05804    0.013093
-0.062587     0.01017  0.00075039   -0.065835    -0.43417   -0.054467    0.010819
-0.060313   0.0065969   0.0046481   -0.060963    -0.41046   -0.053817   0.0088706
-0.057065   0.0026992   0.0085458   -0.056741    -0.35069   -0.056416   0.0049729
-0.050894  -0.0011985    0.012443   -0.053492    -0.26819   -0.061937  0.00042559
-0.046996  -0.0044465    0.015692   -0.051868    -0.17432    -0.06616  -0.0044465
-0.046671  -0.0063954    0.014392   -0.050894   -0.082725   -0.065186  -0.0080194
-0.045697  -0.0054209   0.0091954   -0.049595   -0.014191    -0.05804  -0.0083442
-0.042449  -0.0018481   0.0026992   -0.046996    0.016666   -0.047646  -0.0054209
-0.036927   0.0033489  -0.0047713   -0.043748   0.0010752   -0.037252 -0.00054884
-0.032055   0.0085458   -0.008669   -0.040175   -0.051868   -0.028157    0.003024
-0.026533    0.013743  -0.0047713   -0.035628    -0.11001   -0.024585   0.0036737
-0.019063    0.015042   0.0065969   -0.027508    -0.14022   -0.026533   0.0017248
-0.011592    0.012119    0.017965   -0.019388    -0.13112   -0.033354   0.0026992
-0.0057458   0.0072465    0.026085   -0.011592   -0.092145    -0.04115   0.0033489
-0.0067202   0.0026992    0.029658  -0.0067202   -0.039526   -0.046347   0.0033489
-0.017764  0.00042559    0.031932  -0.0047713    0.008221   -0.047971   0.0010752
-0.035953   0.0017248    0.028359  -0.0099683    0.042001   -0.046022  -0.0037969
-0.050244   0.0039985    0.017965   -0.020362    0.058566   -0.040825   -0.008669
-0.054142   0.0052977   0.0036737   -0.029782    0.054668   -0.033679   -0.010618
-0.044073   0.0056225   -0.012567   -0.034004    0.034206   -0.027833   -0.012242
-0.022961   0.0039985    -0.02426    -0.03238 -0.00087364   -0.027833   -0.016464
-0.0011985  0.00042559   -0.026209   -0.031081   -0.037902    -0.03303   -0.024585
0.010495   0.0010752   -0.014191   -0.030756   -0.061288   -0.037902   -0.029457
0.0085458   0.0056225   0.0039985   -0.030431   -0.054142   -0.038551   -0.026209
-0.0021729     0.01017    0.019589   -0.031406  -0.0099683   -0.034654   -0.018088
-0.014191    0.010819    0.024461   -0.034329    0.069285   -0.031081   -0.013216
-0.024585   0.0065969    0.019264   -0.040175     0.17127    -0.03173    -0.01614
-0.029457 -0.00054884   0.0078962   -0.046996     0.27391   -0.034654   -0.024909
-0.029782  -0.0060706  -0.0050961   -0.050244     0.35219   -0.036278   -0.033679
-0.024909  -0.0047713    -0.01484   -0.045697     0.38857   -0.034654   -0.035953
-0.019712   0.0017248   -0.018413    -0.03238     0.38597   -0.028807   -0.032055
-0.012892   0.0088706    -0.01614   -0.018738     0.35512   -0.020687   -0.026858
-0.0047713    0.013418   -0.014516   -0.008669     0.31159  -0.0096434   -0.021986
0.0036737    0.014392   -0.012242  -0.0024977     0.26449 -0.00054884   -0.013216
0.012768    0.015042   -0.012892   0.0023744     0.21935   0.0065969  -0.0050961
0.022837    0.016016   -0.017764   0.0078962      0.1781   0.0095202  -0.0021729
0.030957    0.016016   -0.027183    0.011794     0.13879    0.014717  -0.0057458
0.034855    0.013093   -0.037252   0.0091954    0.098842    0.020564  -0.0096434
0.03518    0.011144   -0.044398  0.00010078    0.054993    0.024137   -0.010293
0.032582    0.012119   -0.045697   -0.012567   0.0085458    0.023487  -0.0063954
0.028359    0.014392   -0.044073   -0.022961   -0.040825    0.021213  -0.0024977
0.022837    0.016666   -0.042449   -0.027508    -0.09117    0.020888 -0.00022403
0.014717     0.01829   -0.043423   -0.027833    -0.14087    0.025436      0.0014
0.0033489    0.016666   -0.045697   -0.026858    -0.17919    0.032257   0.0039985
-0.010943    0.014068   -0.044073   -0.021661     -0.2016    0.038753   0.0078962
-0.022961    0.012443   -0.036602   -0.013866      -0.212    0.047198   0.0065969
-0.028482    0.010495   -0.025559  -0.0057458    -0.21849    0.051745  -0.0028225
-0.022636   0.0078962   -0.014191   0.0046481    -0.22921    0.049796    -0.01549
-0.010943   0.0062721  -0.0037969    0.016341     -0.2461    0.042326    -0.02361
0.00010078   0.0052977   0.0036737    0.028034    -0.26202    0.032582   -0.023285
0.0052977   0.0039985   0.0059473    0.035505    -0.26851    0.022188   -0.013216
0.0043233   0.0020496   0.0036737    0.041027    -0.26169    0.012443    0.003024
0.00010078  0.00075039   0.0043233     0.04395    -0.24805   0.0078962    0.019589
-0.0057458 -0.00054884   0.0059473    0.041351    -0.23084   0.0075714    0.033881
-0.010618  -0.0018481   0.0065969     0.03583    -0.21785   0.0095202    0.042651
-0.010618  -0.0050961  0.00042559    0.029009    -0.21785   0.0091954      0.0433
-0.011267  -0.0076946  -0.0093186    0.024137    -0.24058   0.0017248    0.039727
-0.0096434   -0.010293   -0.019388    0.021213    -0.28898  -0.0099683    0.036479
-0.0034721   -0.012892    -0.02361    0.017316    -0.35102   -0.020687    0.036154
0.0049729   -0.012892   -0.021661    0.016341    -0.40396   -0.026858     0.03518
0.014068   -0.010293   -0.018738    0.017316    -0.42702   -0.026858    0.032906
0.019589  -0.0044465   -0.014516    0.018615    -0.41078   -0.023935    0.029333
0.017965  0.00042559  -0.0083442     0.01894    -0.36336   -0.021986    0.023487
0.01017  0.00042559  -0.0028225     0.01829    -0.30294    -0.02426    0.016341
0.00042559  -0.0028225 -0.00054884    0.018615    -0.24968   -0.031406   0.0095202
-0.0054209  -0.0060706  -0.0083442    0.015692     -0.2146   -0.039851   0.0046481
-0.0060706   -0.010293    -0.02361   0.0069217    -0.19413   -0.043748 -0.00087364
-0.0018481    -0.01549   -0.038551  -0.0044465     -0.1714    -0.04115   -0.008669
0.0043233   -0.019388   -0.046996   -0.013216     -0.1334   -0.032705   -0.012567
0.0072465   -0.021661   -0.049595   -0.013216   -0.073306    -0.02426   -0.011917
0.0091954    -0.02361    -0.04862  -0.0050961   0.0046481   -0.018413   -0.007045
0.013743   -0.021337   -0.046671   0.0078962    0.088124   -0.016464   0.0033489
0.022512   -0.012892   -0.044723    0.021538     0.16121   -0.015815    0.015367
0.033231   0.0017248   -0.041475    0.033231      0.2109   -0.012242    0.020888
0.041351    0.015367   -0.034004    0.040702     0.23429  -0.0011985    0.018615
0.041351    0.024461   -0.022636    0.045574     0.23851    0.014392    0.015692
0.038103    0.027385   -0.012242    0.047847     0.22357    0.027385    0.019589
0.03583    0.025761  -0.0076946    0.050121     0.18751    0.030633    0.028359
0.037778    0.019589  -0.0076946    0.051096     0.13035    0.021538    0.037129
0.041676    0.012443   -0.008669    0.050446    0.058566   0.0052977    0.041027
0.044599   0.0052977   -0.008669    0.048822   -0.013541  -0.0067202    0.039727
0.042975   0.0017248  -0.0063954    0.049472   -0.079802   -0.010618    0.034206
0.042326   0.0039985 -0.00087364    0.056617    -0.13859  -0.0080194    0.024786
0.040052    0.011469   0.0069217    0.064413    -0.18894  -0.0034721    0.015692
0.03518    0.020239    0.011144    0.070909    -0.22986  0.00075039    0.010819
0.028034    0.028684   0.0091954    0.072858    -0.25422   0.0020496    0.012443
0.01829    0.030308   0.0046481    0.071883    -0.25747   0.0017248    0.013093
0.01017    0.024137    0.003024     0.06961    -0.23733  -0.0015233   0.0091954
0.0026992    0.013418   0.0059473    0.067661     -0.2016  -0.0057458  0.00075039
-0.0089938      0.0014     0.01017    0.065387    -0.16068  -0.0089938  -0.0057458
-0.021012   -0.007045    0.012768    0.067011    -0.12463   -0.012567   -0.010293
-0.030106   -0.010618    0.014392    0.073182   -0.096367   -0.016464    -0.01484
-0.033354   -0.008669    0.017316    0.076431   -0.071032   -0.017764   -0.020362
-0.033679  -0.0015233     0.01764    0.073182   -0.045697   -0.018738   -0.028482
-0.029457   0.0075714    0.015692     0.06084   -0.022311   -0.023285   -0.035303
-0.024909    0.014068    0.011469    0.042001  0.00075039    -0.03173   -0.039201
-0.022636    0.012119   0.0036737    0.020564     0.02706   -0.038551   -0.037902
-0.025234   0.0020496  -0.0067202  -0.0015233     0.05272   -0.042449   -0.032705
-0.029782   -0.010943   -0.017439    -0.02426    0.073507   -0.042774   -0.025234
-0.034004   -0.020362   -0.024585   -0.042449    0.093645   -0.042449   -0.014191
-0.038227   -0.022311   -0.025234   -0.050244     0.12093   -0.037902  -0.0011985
-0.04115   -0.019712   -0.022636   -0.047321     0.14984    -0.03303    0.012119
-0.042124    -0.01614    -0.02426   -0.045047     0.16965    -0.03238    0.018615
-0.040825   -0.012567   -0.032055   -0.068758       0.169   -0.033679    0.015692
-0.036278  -0.0089938   -0.045697     -0.1295     0.14691   -0.032705   0.0095202
-0.032055  -0.0096434   -0.060313     -0.2133     0.10242   -0.027183   0.0039985
-0.028157   -0.011917   -0.072981     -0.2867    0.036154    -0.01549  -0.0015233
-0.025559   -0.012892   -0.079802    -0.31886   -0.044398  0.00075039  -0.0054209
-0.022961  -0.0096434   -0.079152     -0.2997    -0.13372    0.011794   -0.010293
-0.018738  -0.0050961   -0.070058    -0.23993    -0.22597   0.0059473    -0.01614
-0.014191  -0.0041217   -0.054142    -0.16133    -0.31009    -0.01484   -0.022311
-0.011917  -0.0041217   -0.033354   -0.065186    -0.35621   -0.039201   -0.026533
-0.0096434 -0.00087364  -0.0057458    0.054019     -0.3416   -0.058365    -0.02361
-0.0011985   0.0033489    0.027385     0.19076    -0.26949   -0.067134    -0.01549
0.013093   0.0075714     0.06019     0.31776     -0.1701   -0.069408  -0.0063954
0.029333    0.010819    0.083901     0.39864   -0.082076   -0.068109 -0.00054884
0.039727    0.011469    0.092021     0.41391   -0.027508   -0.067459 -0.00054884
0.038753   0.0059473    0.084876     0.36713  -0.0050961   -0.065835  -0.0028225
0.031282  -0.0044465    0.064737     0.27814  -0.0028225   -0.060963  -0.0099683
0.021213   -0.014516    0.041027     0.17355  -0.0093186   -0.053492   -0.018738
0.015042   -0.020687    0.017316    0.070584    -0.01484   -0.043423    -0.02426
0.014392    -0.02426  -0.0060706   -0.026858   -0.018738   -0.029782   -0.023285
0.014068   -0.028157   -0.030756    -0.11715   -0.028807   -0.015815   -0.020037
0.011794    -0.03303   -0.055766    -0.18601   -0.055766  -0.0047713   -0.017764
0.009845   -0.037902   -0.075255     -0.2068    -0.10319    0.003024   -0.014191
0.0026992     -0.0405   -0.082725    -0.16815    -0.16685    0.008221  -0.0067202
-0.0099683   -0.037577   -0.078827   -0.086948    -0.24058    0.013743   0.0039985
-0.022636   -0.027508   -0.063561   0.0049729    -0.31918    0.020564    0.014392
-0.029132   -0.011267   -0.038876    0.082277    -0.39227     0.02706    0.016991
-0.02426   0.0059473   -0.012892     0.14042    -0.44391    0.030957    0.010819
-0.011592    0.016666    0.008221     0.18069    -0.45658    0.029983   0.0010752
0.0010752     0.01894     0.01829     0.20246    -0.41468    0.022188  -0.0076946
0.0062721    0.012119    0.018615     0.19661    -0.31529    0.013418   -0.011592
0.0020496  -0.0018481    0.010819     0.15731      -0.174   0.0091954   -0.013216
-0.0083442   -0.018413 -0.00087364    0.091372   -0.019063    0.011794   -0.014191
-0.018088    -0.03173    -0.01549     0.01894     0.12288    0.016016   -0.015815
-0.023285   -0.037252   -0.033354   -0.034329     0.23071    0.016666   -0.015815
-0.023935   -0.035303   -0.047971   -0.061288     0.29762    0.015367    -0.01484
-0.020037   -0.028157    -0.04992   -0.068109      0.3314    0.013093   -0.014191
-0.012892   -0.017439   -0.031081   -0.068109     0.35317    0.009845   -0.012242
-0.0015233  -0.0034721   0.0075714   -0.053817      0.3837   0.0052977   -0.010293
0.0091954    0.014392    0.054019   -0.010293     0.42787   0.0039985   -0.007045
0.016016    0.030633     0.09397     0.06084     0.47432   0.0088706  -0.0034721
0.022188    0.036804     0.11833      0.1323     0.50518    0.017316   0.0043233
0.028684    0.029983     0.12353      0.1716     0.51362    0.022188   0.0091954
0.034206    0.015692     0.11021      0.1625     0.49901    0.019589   0.0056225
0.033556 -0.00054884    0.081952     0.10924     0.46555   0.0095202  -0.0076946
0.024137   -0.013541    0.044924    0.026735     0.42657  -0.0031473   -0.027508
0.0065969   -0.021661   0.0065969    -0.06616     0.39734   -0.010943   -0.047971
-0.011267   -0.025559   -0.027183    -0.15711      0.3811   -0.013866   -0.065835
-0.022636   -0.028807   -0.054142     -0.2474     0.37136   -0.017439   -0.078827
-0.027833   -0.035303   -0.073306      -0.339     0.36064   -0.024585   -0.086298
-0.031406   -0.043748   -0.081751    -0.41533     0.35089   -0.035303   -0.085973
-0.029782   -0.047971     -0.0837    -0.45073       0.347   -0.042124   -0.076554
-0.020687   -0.043423   -0.076229    -0.43839     0.35252   -0.039851    -0.05804
-0.0050961   -0.029132   -0.061937    -0.40104     0.36161   -0.030106   -0.035303
0.010819  -0.0080194   -0.043423    -0.35361     0.36973   -0.019712   -0.016464
0.027385    0.016341   -0.021661    -0.26559      0.3785   -0.016464  -0.0067202
0.046873    0.041351   0.0085458   -0.099615     0.39474   -0.016789 -0.00054884
0.067986    0.066037    0.047198      0.1232     0.41683   -0.015165   0.0065969
0.081627    0.084226     0.08585     0.32653     0.43307   -0.010293    0.020239
0.080978    0.090397     0.11573     0.44444     0.42138  -0.0089938    0.034206
0.069285    0.083901     0.12645      0.4571     0.36843   -0.014516    0.040377
0.050121     0.06896     0.11671     0.38954     0.27814   -0.029132    0.033231
0.030308    0.048822    0.090397      0.2921     0.16705   -0.049595    0.015042
0.013418    0.027709    0.057592     0.21285    0.055968   -0.064861  0.00075039
0.0020496   0.0078962     0.02706     0.18037   -0.034004   -0.066485  -0.0018481
-0.0031473   -0.008669   0.0020496     0.18622   -0.094418   -0.056091      0.0014
-0.0015233   -0.021986   -0.015165     0.20733     -0.1204   -0.042124   0.0072465
0.0078962   -0.032055   -0.021337     0.21805    -0.11845   -0.026858    0.012443
0.019589   -0.036602   -0.021986     0.20181    -0.10319   -0.012242     0.01829
0.027385   -0.037252   -0.024585     0.16023   -0.088896  -0.0011985    0.027385
0.023162   -0.036602   -0.033679     0.10404   -0.075255   0.0020496    0.039078
0.010495   -0.033354   -0.044073    0.049147   -0.056741  -0.0015233    0.047523
-0.008669   -0.029132   -0.050569   0.0062721   -0.029457  -0.0080194    0.048172
-0.024585   -0.023935   -0.053817   -0.023935   0.0023744   -0.014516    0.041351
-0.034978   -0.020037   -0.055441   -0.043748    0.027385   -0.018413    0.030633
-0.038876   -0.018738   -0.053492   -0.055116     0.03518   -0.019388     0.01764
-0.035303   -0.018413   -0.050569   -0.060313    0.023487   -0.016464   0.0059473
-0.027833   -0.015165   -0.050244   -0.062587  -0.0015233   -0.012567  -0.0018481
-0.020362   -0.011267    -0.04992   -0.064861   -0.037577   -0.012242  -0.0041217
-0.021337  -0.0080194   -0.048945   -0.072981   -0.081101   -0.018413 -0.00087364
-0.027183  -0.0041217   -0.047971   -0.086623    -0.13015   -0.027833      0.0014
-0.034654 -0.00054884   -0.044398    -0.10156    -0.18212   -0.037577  -0.0028225
-0.039851   0.0036737   -0.037577    -0.11228    -0.23116   -0.045372   -0.014191
-0.046022   0.0046481   -0.030106    -0.11683    -0.26787    -0.04992   -0.027833
-0.053492   0.0026992   -0.025234    -0.11456    -0.28735   -0.047646   -0.037252
-0.058689  -0.0034721   -0.024909    -0.10838    -0.29093   -0.039201   -0.038227
-0.062587   -0.012242   -0.028807    -0.10286    -0.28865   -0.031406    -0.03173
-0.06681   -0.018738   -0.033679    -0.09994     -0.2867    -0.03173   -0.021661
-0.069408   -0.019712   -0.036278    -0.10124    -0.28248   -0.042124   -0.016789
-0.067784    -0.01549   -0.035628    -0.10644    -0.27014    -0.05804    -0.01614
-0.064536  -0.0060706   -0.032705    -0.11066    -0.24545   -0.069083   -0.013866
-0.061288   0.0036737   -0.027183    -0.11098    -0.20453   -0.065835  -0.0093186
-0.057715    0.012119   -0.021986    -0.10384    -0.15061    -0.04992  -0.0037969
-0.04992    0.019264   -0.020362    -0.09117   -0.097666   -0.027183 -0.00022403
-0.037577    0.025436   -0.022311   -0.079802   -0.062262  -0.0028225    0.003024
-0.023285    0.029983   -0.026209   -0.073631   -0.056416    0.017965    0.003024
-0.012567    0.030633   -0.028807   -0.071682   -0.075255    0.029333 -0.00022403
-0.0083442    0.027385   -0.028807   -0.071682    -0.10676    0.029983  -0.0044465
-0.0099683    0.022512   -0.028807   -0.073306    -0.13599    0.025111  -0.0060706
-0.011592    0.016666   -0.029782    -0.07493    -0.14639    0.016016  -0.0050961
-0.011917    0.013418   -0.028157   -0.072006    -0.13275    0.008221 -0.00022403
-0.0083442    0.011469   -0.022961   -0.063886    -0.10189   0.0023744   0.0075714
0.00075039   0.0091954   -0.014191   -0.055116   -0.067134 -0.00054884    0.014068
0.013418   0.0088706  -0.0047713   -0.050569   -0.038551 -0.00087364     0.01829
0.024461    0.009845   0.0020496   -0.049595   -0.027833  -0.0018481    0.019264
0.030308    0.012443   0.0043233   -0.047971   -0.037577  -0.0018481     0.01894
0.028034    0.016016   0.0026992   -0.044723   -0.071682  -0.0037969    0.013743
0.019264    0.015692  -0.0011985     -0.0405    -0.12073  -0.0060706   0.0095202
0.0075714    0.012119  -0.0041217   -0.033354    -0.16133  -0.0060706    0.009845
-0.0015233   0.0049729  -0.0034721    -0.02361     -0.1701  -0.0054209    0.011469
-0.0060706  -0.0057458  -0.0028225   -0.011917    -0.13697  -0.0050961   0.0095202
-0.008669    -0.01484  -0.0037969  -0.0047713   -0.072656  -0.0031473  0.00075039
-0.010618   -0.020362  -0.0057458  -0.0047713  0.00010078   0.0017248  -0.0096434
-0.0096434   -0.017764  -0.0057458  -0.0083442     0.06019    0.010819   -0.016464
-0.0060706  -0.0083442  -0.0041217  -0.0093186    0.096893    0.023812   -0.020362
-0.0031473   0.0020496   0.0017248  -0.0057458     0.10664    0.036804   -0.022311
-0.007045   0.0085458    0.010495  0.00010078     0.09462    0.046223   -0.025559
-0.016789    0.010819     0.01894   0.0075714    0.071558    0.051096   -0.029457
-0.025559   0.0095202    0.022837    0.010819    0.048497    0.047198   -0.031081
-0.025884   0.0059473    0.021863   0.0091954    0.026735     0.03453   -0.030106
-0.015815   0.0023744     0.01764   0.0046481   0.0056225    0.019264   -0.027508
0.00010078  -0.0011985    0.014717   0.0039985   -0.015815   0.0049729   -0.025234
0.011794  -0.0031473    0.015042   0.0072465   -0.038551  -0.0054209   -0.023935
0.012768  -0.0044465    0.016016   0.0075714   -0.059664   -0.013541   -0.022311
0.003024  -0.0054209    0.011794  -0.0028225   -0.071682   -0.018738   -0.019388
-0.010943  -0.0083442  0.00042559   -0.023285   -0.071357   -0.021661    -0.01484
-0.021012   -0.014516   -0.020037   -0.044723   -0.059664   -0.027508  -0.0083442
-0.019388   -0.026209   -0.043423   -0.061613   -0.046022   -0.036927  0.00075039
-0.010943   -0.035628   -0.060963   -0.073306   -0.039201   -0.044723   0.0065969
-0.00022403   -0.037252   -0.066485   -0.080776   -0.042124   -0.048945   0.0065969
0.0095202   -0.032055   -0.058689    -0.07493   -0.051868   -0.050244   0.0049729
0.014717   -0.022636   -0.039526   -0.047321   -0.059989   -0.051544   0.0062721
0.015042   -0.011267    -0.01549  -0.0018481   -0.055116    -0.05739    0.010819
0.013743  0.00010078   0.0091954    0.049147   -0.035303   -0.070058     0.01764
0.016666    0.012119    0.030957    0.092996  -0.0031473   -0.088572    0.022188
0.024137    0.020888    0.044275     0.11866    0.031282    -0.10514    0.023162
0.032257    0.023812    0.047198     0.12223    0.053694    -0.11098    0.022188
0.036154    0.021538    0.038428     0.11216    0.051096    -0.10416    0.022512
0.032906    0.014717    0.022512    0.092996   0.0046481   -0.093769    0.022512
0.021863   0.0059473   0.0039985    0.070584   -0.099615   -0.090845    0.020239
0.0065969  -0.0031473   -0.010943    0.045899    -0.25195    -0.10319    0.016341
-0.0067202  -0.0089938   -0.016789    0.018615    -0.41435    -0.12982   0.0085458
-0.015165   -0.012242    -0.01484  -0.0057458     -0.5498     -0.1636  -0.0024977
-0.01614   -0.012242  -0.0060706   -0.022636    -0.63587    -0.19381  -0.0099683
-0.011592  -0.0076946   0.0039985    -0.03173    -0.66868     -0.2146  -0.0096434
-0.0054209  -0.0024977    0.013418   -0.034004    -0.66186    -0.22174  -0.0034721
0.0010752 -0.00087364    0.020239   -0.028157      -0.631    -0.21362   0.0056225
0.0033489  -0.0031473    0.024786   -0.014191    -0.58228    -0.19673    0.010819
-0.00087364  -0.0063954    0.029333   0.0056225    -0.51829    -0.17692    0.014068
-0.0083442   -0.011592    0.030308    0.025761    -0.43936    -0.15256    0.016016
-0.015165   -0.014516    0.027385    0.038753    -0.35264    -0.12398    0.020888
-0.019063   -0.013541    0.024137    0.045249    -0.26332   -0.094093    0.028684
-0.020687  -0.0093186    0.025436    0.050121    -0.17952   -0.065186     0.03518
-0.021337  -0.0050961    0.028684    0.054344    -0.11001   -0.039201     0.03453
-0.020362  -0.0011985    0.028034    0.061814   -0.060638   -0.013866    0.027385
-0.019063 -0.00054884    0.025436    0.070259   -0.025234    0.015692    0.019914
-0.017764 -0.00022403    0.019914     0.07773 -0.00022403    0.047847    0.016016
-0.017114   0.0017248    0.013418    0.081627    0.020564     0.07773    0.014717
-0.016789   0.0059473    0.008221    0.083251    0.043625     0.10436    0.015042
-0.018738    0.010495   0.0075714    0.082277    0.067336     0.12645    0.013743
-0.021337     0.01829    0.011794    0.077405    0.088773     0.14009    0.014068
-0.023935    0.027385    0.016341    0.066362     0.10761     0.14659    0.017316
-0.024909    0.032582    0.014068     0.05142     0.12125     0.14496    0.024137
-0.023285    0.028684   0.0046481    0.035505      0.1284     0.14009    0.031282
-0.019712     0.01829  -0.0093186    0.021863     0.13457      0.1349    0.034206
-0.011592   0.0069217   -0.019063    0.015367     0.14529     0.13067    0.032582
-0.0050961  -0.0015233   -0.022636     0.01894     0.16478     0.12905     0.02706
-0.0024977  -0.0037969   -0.020037    0.031282     0.19531     0.12905     0.01894
-0.0047713  -0.0015233   -0.013866    0.044599     0.23331     0.13132   0.0069217
-0.0089938   0.0046481  -0.0067202    0.055318     0.27196     0.13262  -0.0063954
-0.013541     0.01017  -0.0054209    0.061489     0.31159     0.13295   -0.016789
-0.018413    0.013743  -0.0063954    0.061814     0.35317     0.13262   -0.021012
-0.022311    0.016016   -0.007045    0.057267     0.39279     0.13295   -0.019388
-0.019712    0.019589  -0.0054209    0.047198     0.42462     0.13262   -0.015165
-0.01484    0.023162  -0.0054209    0.033231     0.44281     0.12775  -0.0099683
-0.0096434    0.025111  -0.0093186    0.016016     0.44151     0.11963  -0.0063954
-0.0028225     0.02706   -0.018088   0.0023744     0.41975     0.10859  -0.0037969
0.0072465    0.028684   -0.028807  -0.0047713      0.3811     0.09397  -0.0018481
0.021213    0.028684   -0.038876  -0.0044465     0.32751    0.077405   0.0010752
0.036154    0.029009   -0.044398 -0.00087364     0.26157    0.065062   0.0075714
0.044599    0.030633   -0.044073   0.0046481     0.18816    0.059216    0.014068
0.047523    0.030633   -0.038227    0.013093     0.11898    0.056942    0.015042
0.04395    0.026735   -0.030431     0.01894    0.065062    0.054019    0.009845
0.033881    0.022188   -0.027183    0.019914    0.031282    0.050121  0.00010078
0.020564    0.016341   -0.027183    0.019264    0.014392    0.041676  -0.0093186
0.0069217     0.01017   -0.022311    0.021538   0.0033489    0.027385   -0.016464
-0.0037969   0.0052977  -0.0099683    0.028034  -0.0099683   0.0085458   -0.018413
-0.0096434   0.0026992   0.0075714    0.040052   -0.027833   -0.010618    -0.01549
-0.0096434   0.0020496     0.02706    0.055968   -0.048296   -0.022636   -0.010618
-0.0063954   0.0056225    0.042001    0.076431   -0.069083   -0.028157   -0.010293
0.0010752   0.0095202    0.047847     0.10144    -0.10221   -0.032705   -0.016464
0.0095202    0.012768    0.047198     0.12223    -0.16165   -0.043099   -0.028157
0.016666    0.013418    0.040702     0.11768     -0.2487   -0.058365   -0.040175
0.016991    0.015042    0.028359    0.061165    -0.35167   -0.076554   -0.047321
0.0095202    0.015042   0.0072465   -0.061288    -0.45106   -0.095393   -0.051219
-0.0031473    0.011469   -0.018738    -0.23441    -0.52934    -0.11228   -0.050894
-0.016464   0.0010752   -0.043099    -0.41208    -0.57513    -0.12657   -0.047971
-0.027508   -0.016789   -0.061937    -0.53973    -0.58325    -0.13827   -0.039851
-0.033354   -0.034329   -0.077528    -0.58748    -0.55662    -0.14541   -0.030756
-0.034329   -0.046671   -0.092145    -0.56052    -0.49945    -0.14476   -0.021986
-0.030106   -0.047646    -0.10091    -0.46405    -0.41273    -0.13275   -0.017764
-0.02361   -0.037252   -0.095393    -0.28443    -0.29482    -0.11163   -0.017439
-0.013541   -0.021661   -0.067134   -0.029782    -0.15029   -0.086948   -0.018738
-0.0031473  -0.0021729   -0.018738     0.24566    0.008221    -0.06551   -0.018738
0.0043233    0.016341     0.03583      0.4623     0.15179   -0.051868   -0.014191
0.008221     0.02706    0.078379     0.56137     0.25507   -0.050894   -0.007045
0.0091954    0.028359    0.096569     0.54253     0.31581   -0.062912  -0.0028225
0.0056225    0.023162      0.0852     0.45386     0.34407   -0.081101  -0.0031473
0.00010078    0.015042    0.049147     0.35934     0.35901   -0.094743  -0.0080194
-0.0044465   0.0078962  0.00042559     0.29827     0.37753   -0.093769   -0.014191
-0.0057458   0.0023744   -0.043748     0.27196     0.40124   -0.079802    -0.01614
-0.0047713   0.0020496   -0.067459      0.2593      0.4256   -0.060963   -0.012892
-0.0037969   0.0046481   -0.072331     0.24403     0.43892   -0.047971  -0.0031473
-0.0041217   0.0056225    -0.06551     0.21902     0.43015   -0.048945   0.0043233
-0.0041217   0.0026992   -0.053817     0.18816     0.39507   -0.060638   0.0043233
-0.0044465  0.00010078   -0.039526     0.15503     0.33563   -0.073955  -0.0047713
-0.0028225  0.00075039   -0.025559     0.12353      0.2567     -0.0824   -0.018738
0.00010078   0.0065969   -0.011592    0.091696     0.15958   -0.082725   -0.028807
0.0059473    0.013093  -0.0041217    0.055968    0.037129   -0.072981    -0.03238
0.013093     0.01829  -0.0060706     0.01764    -0.10644   -0.057715   -0.029132
0.01829     0.01764    -0.01484   -0.019388    -0.25098   -0.041799   -0.018738
0.020564    0.013093   -0.027508    -0.04927     -0.3731   -0.029782  -0.0044465
0.01764   0.0046481   -0.041475   -0.070707    -0.45333   -0.021986   0.0075714
0.011469  -0.0034721   -0.051544   -0.081426    -0.47347   -0.020362    0.016016
0.0014  -0.0093186   -0.056741   -0.085648    -0.42637   -0.026858    0.019264
-0.0089938   -0.013216   -0.055441     -0.0837    -0.32731   -0.037252     0.01829
-0.017764   -0.016464   -0.046022   -0.078827    -0.20518   -0.044073    0.015692
-0.025559   -0.018413   -0.030756   -0.077203   -0.093444   -0.044723    0.010819
-0.029132   -0.017114   -0.017764   -0.080776   -0.012567   -0.035953   0.0049729
-0.028807   -0.015165  -0.0076946   -0.084999    0.027709   -0.021337   0.0017248
-0.022636   -0.013216  0.00042559   -0.088896    0.032906   -0.008669   0.0043233
-0.015165   -0.010293   0.0039985   -0.092469    0.016016  0.00042559    0.009845
-0.014191  -0.0024977   0.0026992   -0.097666  -0.0018481   0.0091954    0.014717
-0.025884   0.0088706  -0.0028225    -0.10579  -0.0047713    0.017316    0.016341
-0.045697    0.016666  -0.0089938    -0.11293   0.0091954    0.023812    0.012119
-0.061937    0.020239   -0.011917     -0.1204    0.028359    0.029333   0.0056225
-0.067459    0.020239  -0.0057458    -0.12463    0.041676    0.033556   0.0010752
-0.059339    0.016666    0.008221    -0.12592    0.044275    0.032582  -0.0024977
-0.0405    0.009845    0.023812    -0.12138    0.040702     0.02706  -0.0047713
-0.019063   0.0017248    0.037129    -0.10968     0.03583     0.01829   -0.008669
-0.0018481   -0.007045    0.042001   -0.089221     0.03583    0.010819   -0.012567
0.0078962  -0.0096434    0.036154   -0.070058    0.050446   0.0056225   -0.012892
0.014392  -0.0044465     0.01894   -0.064861    0.084876   0.0043233   -0.011267
0.01829   0.0075714  -0.0063954   -0.077853     0.13197   0.0088706    -0.01484
0.01764     0.01829   -0.028482   -0.097341     0.18102    0.014068   -0.021661
0.013418    0.023812    -0.04115    -0.10254     0.21545    0.015692   -0.027508
0.0049729    0.021863   -0.046022   -0.079802     0.22649    0.015042   -0.030431
-0.0024977    0.016341   -0.039201   -0.030431     0.21512    0.012443   -0.030431
-0.007045    0.010495   -0.021986    0.029983     0.18946   0.0091954   -0.028157
-0.0096434   0.0065969  -0.0041217    0.079354     0.16185   0.0023744   -0.024585
-0.0073698   0.0072465   0.0085458     0.10534     0.13977  -0.0067202   -0.021661
-0.00054884    0.008221    0.014717     0.10631      0.1271   -0.013866   -0.020362
0.0069217   0.0062721    0.015692    0.089748     0.12158   -0.015165   -0.019712
0.012119   0.0017248    0.009845    0.064737     0.11346  -0.0096434   -0.016789
0.014068  -0.0044465  -0.0050961    0.039727    0.092021      0.0014   -0.010943
0.015692   -0.008669   -0.022311    0.017316    0.047198    0.012443  -0.0034721
0.015692  -0.0073698   -0.034654  -0.0018481    -0.01614    0.020239   0.0039985
0.014717 -0.00054884   -0.036278    -0.01614   -0.084674    0.021213    0.010495
0.014392    0.010819   -0.025884   -0.025559    -0.14119    0.014068    0.016341
0.016016    0.016666  -0.0093186   -0.033354    -0.17659    0.003024    0.020239
0.019589    0.013093   0.0046481   -0.040175    -0.18439  -0.0028225    0.018615
0.01894   0.0017248    0.012768   -0.045697    -0.16588  -0.0011985   0.0088706
0.009845   -0.012242    0.015367   -0.049595     -0.1295   0.0039985  -0.0011985
-0.0021729   -0.021986    0.015042   -0.055766   -0.089546    0.011144  -0.0057458
-0.011592    -0.02361    0.013743   -0.062587    -0.05804    0.018615  -0.0028225
-0.012892   -0.021337    0.014392   -0.068758   -0.039851    0.023812   0.0075714
-0.0076946   -0.019712    0.018615   -0.070707    -0.03173    0.028034    0.020564
-0.00022403   -0.022961    0.026085   -0.065186   -0.028157    0.029333    0.031932
0.0036737   -0.028157    0.031932    -0.04927    -0.02361    0.029333    0.033556
0.0026992    -0.03173    0.032257   -0.024909   -0.022311    0.025436    0.025111
0.0023744    -0.03238    0.025436   -0.007045   -0.021661    0.021538   0.0069217
0.0069217   -0.028807    0.012768  -0.0044465   -0.017114    0.019264  -0.0093186
0.016341   -0.021661   0.0036737   -0.014516  -0.0024977     0.01764   -0.016789
0.024461    -0.01484 -0.00054884   -0.021986    0.025436    0.015692   -0.013866
0.025436   -0.010618 -0.00022403   -0.017764    0.062464    0.011794  -0.0054209
0.018615  -0.0089938   0.0043233 -0.00054884    0.098517   0.0078962   0.0049729
0.0046481   -0.008669   0.0091954    0.027709      0.1258   0.0046481    0.017316
-0.013216  -0.0083442    0.012443    0.054019     0.13977  0.00042559     0.02706
-0.027508  -0.0076946    0.009845    0.067986     0.13749   -0.011267    0.031607
-0.029132   -0.008669   0.0026992    0.071234     0.11346   -0.025884    0.030957
-0.019063   -0.010293  -0.0044465    0.064413    0.060515   -0.042449     0.02641
-0.0028225   -0.012242  -0.0067202     0.05142  -0.0099683   -0.053817    0.019589
0.0095202   -0.015815  -0.0044465    0.033881    -0.07428   -0.061288     0.01017
0.0091954   -0.021661 -0.00054884    0.012119    -0.11813    -0.06681  -0.0024977
-0.0031473   -0.029457  -0.0024977   -0.014516    -0.13632   -0.072006   -0.014191
-0.023935   -0.036278  -0.0099683     -0.0405    -0.13372   -0.076229   -0.021986
-0.045372   -0.041475   -0.016464    -0.05739    -0.11943   -0.073955   -0.022636
-0.064861   -0.045372   -0.021337   -0.062262    -0.10286    -0.06551   -0.018088
-0.075579   -0.048296   -0.028482   -0.056741   -0.088572   -0.055116   -0.012242
-0.071357   -0.048296   -0.034654   -0.047646   -0.080776   -0.046671  -0.0089938
-0.051544   -0.046347   -0.040175   -0.040175   -0.080451   -0.040175  -0.0096434
-0.029132   -0.040825   -0.042449   -0.034329   -0.086948   -0.033679   -0.011267
-0.011917   -0.032705   -0.041475   -0.030756   -0.093119   -0.028157   -0.010618
-0.0011985   -0.023935   -0.040175   -0.027183   -0.087922   -0.020687  -0.0050961
0.0056225   -0.017114   -0.039526   -0.022311   -0.071032   -0.017439      0.0014
0.01017    -0.01549   -0.040175    -0.01484   -0.042124   -0.018088   0.0075714
0.0095202   -0.016789   -0.038876  -0.0060706   -0.011592   -0.022636     0.01017
0.0043233   -0.018413   -0.033679  -0.0018481    0.010495   -0.025884    0.011794
-0.0015233   -0.018413   -0.025884 -0.00054884    0.020888   -0.024585    0.014068
-0.0063954   -0.016789   -0.017114   0.0020496    0.022512   -0.018413    0.016666
-0.010293    -0.01549  -0.0073698   0.0078962    0.020888   -0.012242    0.020564
-0.01549    -0.01484   0.0010752    0.013093    0.019914   -0.012242    0.022837
-0.022961   -0.011267   0.0062721    0.014717    0.020888   -0.019712    0.023487
-0.030106  -0.0047713    0.011794    0.012443    0.023812   -0.025884    0.021538
-0.036278  0.00042559    0.016016   0.0072465    0.032257   -0.025884    0.017316
-0.036927   0.0036737    0.019264   0.0026992    0.043625    -0.02426    0.010495
-0.029782   0.0052977    0.021213 -0.00022403    0.054993   -0.023935   0.0033489
-0.017439   0.0033489    0.019264  -0.0015233    0.061814   -0.024909  -0.0015233
-0.0073698 -0.00087364    0.014717  -0.0018481    0.063113   -0.027183  -0.0015233
-0.0031473  -0.0047713   0.0059473  -0.0021729    0.059865   -0.031081   0.0023744
-0.0044465   -0.007045  -0.0054209  -0.0034721    0.056292   -0.030106   0.0059473
-0.012892  -0.0057458   -0.015815  -0.0041217    0.054668   -0.025559   0.0078962
-0.022961  -0.0021729   -0.018413  -0.0015233    0.054993   -0.019388   0.0088706
-0.029782      0.0014   -0.010618   0.0026992    0.053694   -0.012567   0.0091954
-0.027183   0.0023744  0.00075039   0.0043233    0.047847  -0.0050961   0.0049729
-0.015815 -0.00087364   0.0085458  0.00075039    0.037454 -0.00087364  -0.0031473
-0.0018481  -0.0044465   0.0062721  -0.0076946    0.029658  -0.0011985    -0.01549
0.0062721  -0.0047713  -0.0057458    -0.01614    0.029333  -0.0073698   -0.027183
0.008221  -0.0041217   -0.021012   -0.022961    0.030308   -0.017439   -0.038876
0.0075714  -0.0031473    -0.03303    -0.02426    0.020564   -0.029782   -0.047646
0.0056225  -0.0037969   -0.038227   -0.020687  -0.0050961   -0.043099   -0.052518
0.0017248  -0.0050961   -0.036278   -0.017439   -0.043423   -0.054142   -0.051868
0.0014  -0.0063954   -0.027508   -0.019712   -0.082076   -0.063561    -0.04927
0.0020496  -0.0076946    -0.01549   -0.027508    -0.11196   -0.068758   -0.045697
0.00010078  -0.0089938  -0.0063954   -0.034978    -0.13307   -0.071032   -0.040825
-0.0037969   -0.008669   -0.007045   -0.035628    -0.14704   -0.069733   -0.030756
-0.0073698  -0.0089938   -0.015815   -0.029457    -0.15711   -0.062587   -0.014191
-0.011592   -0.011917   -0.028807   -0.017439     -0.1675    -0.04992   0.0010752
-0.015165   -0.013541   -0.038551  -0.0021729    -0.17984   -0.034004   0.0069217
-0.016789   -0.011267   -0.039201    0.010495    -0.19478   -0.018738   0.0033489
-0.015815  -0.0041217   -0.035953    0.017316    -0.21297   -0.011592  -0.0050961
-0.012567   0.0072465   -0.029457    0.022188    -0.23279    -0.01484   -0.011917
-0.0067202     0.01764   -0.020687    0.029333    -0.24773   -0.022636   -0.014191
0.0020496    0.022837   -0.010618    0.041027    -0.24968   -0.026209   -0.010618
0.01017    0.021863  -0.0015233    0.052395    -0.23506   -0.022961  -0.0041217
0.014392    0.014068   0.0010752    0.057267     -0.2068   -0.013541   0.0020496
0.016666   0.0043233  -0.0034721    0.051096    -0.16782  0.00042559    0.008221
0.015692  -0.0018481   -0.011917    0.034855    -0.12138    0.019914    0.012443
0.015692 -0.00054884   -0.021661    0.016341   -0.069083    0.041676    0.015692
0.01894   0.0075714   -0.030106   0.0069217   -0.017114     0.06084    0.020239
0.025761     0.01894    -0.03303    0.008221    0.026085    0.075456    0.025436
0.029009    0.030633   -0.030431    0.021538    0.056617    0.079679    0.030633
0.030633    0.040377   -0.024909    0.046223    0.070909    0.069934    0.035505
0.031932    0.046873    -0.01484    0.072858    0.072533    0.046873    0.037129
0.031932    0.046873  0.00010078    0.091696    0.071234     0.01829    0.032257
0.023812    0.042001    0.017965    0.096569    0.081627   -0.007045    0.023487
0.012119    0.035505    0.030308    0.089423     0.11313    -0.02426    0.016016
0.0020496    0.029009    0.031932    0.074482     0.15861   -0.026533   0.0095202
0.00075039    0.027709    0.021863    0.057267      0.2057   -0.013541   0.0065969
0.0017248    0.030633   0.0052977    0.036804     0.24241   0.0065969   0.0052977
0.0036737    0.031282  -0.0089938    0.011794     0.26255    0.023162   0.0049729
0.008221    0.029009   -0.014191   -0.011592     0.27067    0.032906   0.0062721
0.015367    0.024461  -0.0089938   -0.027183     0.27456    0.038103    0.008221
0.017965    0.016666   0.0039985   -0.033679     0.27911    0.044599     0.01017
0.014068    0.010819     0.01829   -0.037577     0.27196    0.049796     0.01017
0.0056225   0.0088706    0.022188   -0.045047     0.23656    0.050121   0.0078962
-0.0044465    0.012119    0.012443   -0.061613     0.15211    0.045574   0.0017248
-0.01614    0.016991  -0.0050961   -0.084999    0.010495    0.037454  -0.0073698
-0.02426    0.021538   -0.020362    -0.10774    -0.17659    0.026085   -0.017114
-0.026209    0.026735   -0.030106    -0.11813    -0.37992    0.012768   -0.021012
-0.020687    0.030308   -0.032055    -0.10416    -0.56864  -0.0034721   -0.019712
-0.012242    0.030957   -0.028157   -0.061613    -0.70538   -0.018738   -0.019388
-0.0080194    0.028359   -0.016789   0.0033489    -0.76644    -0.03173   -0.022636
-0.011917    0.019914      0.0014    0.072208    -0.74696   -0.039526   -0.027183
-0.024585   0.0072465    0.020239     0.12483    -0.66575   -0.046996    -0.03238
-0.038551  -0.0047713    0.030633     0.14756    -0.55077   -0.056416   -0.035628
-0.050569   -0.014516    0.027385     0.13977    -0.43059   -0.069408   -0.037902
-0.05804   -0.021012    0.016341     0.11216    -0.32958    -0.08305   -0.040825
-0.061288   -0.023935   0.0046481    0.075456    -0.26234    -0.09182   -0.047321
-0.059989   -0.026533  -0.0011985    0.041351    -0.22889   -0.088572   -0.053817
-0.052193   -0.027183  -0.0015233    0.008221    -0.21622   -0.072006    -0.05804
-0.041799   -0.022311 -0.00054884   -0.027833    -0.20388    -0.04927   -0.055441
-0.029782   -0.013541  -0.0024977   -0.078503    -0.17854   -0.030431   -0.046996
-0.015165  -0.0028225  -0.0093186    -0.14476    -0.13242   -0.021012   -0.039851
0.0014   0.0069217   -0.021012     -0.2159   -0.060963   -0.021986   -0.035303
0.01764    0.015042   -0.036927    -0.27761    0.028034   -0.028157    -0.03173
0.025761    0.020564   -0.055766    -0.31366     0.11281   -0.032055   -0.030106
0.029333    0.023162   -0.077203    -0.30229      0.1664   -0.029132   -0.026533
0.037454    0.026735   -0.092794    -0.23376     0.17517   -0.019712   -0.014516
0.056292    0.032582   -0.093769    -0.11878     0.14009  -0.0037969    0.012119
0.079354    0.040702   -0.076229    0.013743    0.072858    0.016341    0.047198
0.097868    0.050446   -0.044723     0.13295   -0.011917     0.03583    0.080978
0.10566    0.056617   -0.015165     0.22454   -0.090845    0.047198     0.10306
0.10794    0.057917   0.0017248     0.28853    -0.14281    0.051096     0.11086
0.10924    0.051745   0.0020496     0.32751    -0.15905    0.055968     0.10566
0.10989    0.043625  -0.0080194     0.34407    -0.14379    0.063438    0.094945
0.10729    0.037454   -0.022311     0.34082    -0.11163     0.06896    0.082927
0.10047    0.032906   -0.033679     0.31939   -0.076879    0.068635     0.06961
0.086175    0.027709   -0.038876     0.28268   -0.053168    0.057917    0.056292
0.061814    0.019589   -0.037577     0.23494   -0.050569    0.036479    0.040377
0.033556   0.0095202   -0.027508     0.18427   -0.079152    0.011144    0.023162
0.01017 -0.00054884   -0.012242      0.1362    -0.13892   -0.014191   0.0075714
-0.0015233  -0.0080194    0.003024    0.092671    -0.21005   -0.038551  -0.0044465
-0.007045   -0.010943    0.012768    0.057917    -0.26429   -0.059664   -0.010943
-0.012567   -0.011917    0.014717     0.03583    -0.27728   -0.076554   -0.013541
-0.021661   -0.014516    0.009845    0.021538    -0.23961   -0.087272   -0.016464
-0.035628   -0.018088   0.0010752   0.0069217    -0.15873   -0.085648   -0.022636
-0.050244   -0.019063  -0.0057458   -0.010943   -0.056091   -0.069733   -0.034004
-0.065835   -0.019063  -0.0067202   -0.026858    0.039078   -0.046347   -0.047321
-0.079477   -0.016464  -0.0018481   -0.034978     0.11508   -0.026209   -0.055766
-0.086623    -0.01549   0.0049729   -0.036602       0.169   -0.018738   -0.058689
-0.081426   -0.017439    0.012443   -0.037902     0.19986   -0.026858   -0.056741
-0.065835    -0.02361    0.017316   -0.044398     0.20376   -0.043099   -0.054792
-0.04927   -0.032055     0.01829   -0.058689     0.17452   -0.058689   -0.054792
-0.0405   -0.041475    0.014717   -0.075904     0.11508   -0.069733    -0.05739
-0.038551   -0.045697    0.012768   -0.086298    0.046548   -0.074605   -0.060313
-0.038227   -0.044723    0.016016   -0.086298  -0.0031473   -0.073306   -0.060638
-0.036602   -0.039201    0.020888   -0.075904   -0.015815    -0.06616   -0.059014
-0.033679   -0.031406    0.020888   -0.061288   0.0075714   -0.052518   -0.055441
-0.028157   -0.023285    0.014068   -0.046671    0.049472   -0.037252   -0.049595
-0.018088   -0.013866     0.01017   -0.035953     0.10014   -0.020362   -0.036927
-0.0083442  -0.0044465    0.012443   -0.029457     0.15438  -0.0024977   -0.018738
-0.0028225  0.00075039    0.023487   -0.024909     0.21188    0.013093  -0.0037969
-0.0011985    0.003024    0.038753   -0.018088     0.26807    0.025436   0.0072465
-0.00087364    0.003024     0.05142  -0.0073698     0.31776     0.03453    0.013743
-0.0028225   0.0017248    0.050771   0.0033489     0.36064    0.040052    0.016991
-0.007045  -0.0037969    0.037454     0.01017     0.39377    0.042001    0.017965
-0.011592   -0.011917    0.022837    0.011144      0.4165    0.040702    0.016666
-0.01614   -0.019712    0.015042   0.0085458     0.42852    0.036479    0.014068
-0.021337    -0.02361    0.016341   0.0023744     0.43145    0.031282    0.010495
-0.027833   -0.022961    0.021538  -0.0067202      0.4282    0.026085    0.003024
-0.034978   -0.019063    0.030633   -0.016464     0.41943    0.020239  -0.0060706
-0.035303   -0.014516    0.038753   -0.026533     0.40124    0.012443    -0.01549
-0.027833   -0.013216    0.044924   -0.035953     0.37363   0.0026992   -0.021986
-0.020362    -0.01549    0.047198   -0.046347     0.34147  -0.0076946   -0.026533
-0.019712   -0.018413    0.042651   -0.055116     0.30737   -0.016789   -0.028157
-0.02426   -0.022961    0.028359   -0.060313     0.27619   -0.022311   -0.026533
-0.030106   -0.027183   0.0088706   -0.059989      0.2502   -0.025234   -0.022961
-0.032055   -0.027833  -0.0076946   -0.054792     0.23429   -0.028482   -0.019388
-0.028157   -0.021661   -0.015165   -0.050244     0.22974    -0.03238    -0.01549
-0.020362   -0.010618   -0.012892   -0.049595     0.23883   -0.038227   -0.014191
-0.01484  -0.0018481  -0.0034721   -0.052193      0.2567   -0.045372   -0.014191
-0.016789   0.0010752   0.0062721   -0.053168     0.27651   -0.049595   -0.015165
-0.024909  -0.0021729    0.014068   -0.054467      0.2947   -0.046347   -0.014191
-0.034978  -0.0099683    0.013743   -0.055116     0.30867   -0.042124   -0.012242
-0.043423   -0.018088   0.0052977   -0.053492     0.30737   -0.039201   -0.013216
-0.046022   -0.025559  -0.0093186   -0.052518     0.27749   -0.043099   -0.017439
-0.043423   -0.032705    -0.02426   -0.052518     0.21577    -0.04927   -0.020362
-0.034004   -0.035303   -0.034004   -0.048296      0.1284   -0.053817   -0.020362
-0.019388    -0.03173   -0.035303     -0.0405     0.03583   -0.054467   -0.018738
-0.0041217   -0.020362   -0.027183   -0.030756   -0.042774   -0.052518   -0.018088
0.0075714  -0.0076946   -0.016789    -0.02361   -0.094093   -0.049595   -0.019063
0.012119   0.0023744   -0.010618    -0.01549    -0.11358    -0.04862   -0.020687
0.0088706   0.0056225   -0.012892  -0.0060706    -0.10741   -0.048296   -0.023285
-0.0018481   0.0049729   -0.020037   0.0046481   -0.094418   -0.047971   -0.026209
-0.014516    0.003024   -0.028157    0.012443   -0.088572   -0.046671   -0.025884
-0.025234    0.003024   -0.033354    0.013418   -0.092469   -0.043423   -0.017439
-0.029132   0.0056225   -0.032705    0.012768    -0.10351     -0.0405  -0.0037969
-0.025234   0.0069217   -0.029132    0.012768    -0.11878   -0.040825   0.0062721
-0.01614   0.0085458   -0.027508    0.010495    -0.13307   -0.043423    0.009845
-0.0018481   0.0095202   -0.026533 -0.00087364    -0.14606   -0.046671    0.010819
0.012768    0.009845   -0.026533   -0.026858    -0.15938   -0.046671    0.013093
0.023162   0.0095202   -0.027833   -0.062587    -0.17692   -0.037902    0.019589
0.029333    0.008221   -0.034004   -0.094418    -0.19543   -0.021986    0.026085
0.031282   0.0091954   -0.045372    -0.10903    -0.21037  -0.0063954    0.027709
0.025111   0.0091954   -0.054467    -0.10384    -0.22239      0.0014     0.02641
0.013743    0.009845   -0.056741   -0.094418    -0.24123 -0.00022403    0.025111
0.0023744    0.011144   -0.053492   -0.092145    -0.27176  -0.0099683    0.028684
-0.0067202    0.012443   -0.051544   -0.088896    -0.31366   -0.021337    0.033231
-0.010943    0.012768   -0.048945   -0.071682    -0.35037   -0.029782    0.037454
-0.007045    0.015367   -0.038876   -0.039526    -0.35979   -0.027508    0.038103
0.0049729    0.022188   -0.015165   -0.014191     -0.3299   -0.013866    0.036154
0.020888    0.028684    0.016341   -0.008669    -0.27209   0.0046481    0.031932
0.034206    0.032257    0.047523   -0.017114    -0.20875    0.020888    0.029983
0.043625    0.030308     0.06831   -0.022311    -0.15776    0.030957    0.030633
0.048822    0.026085    0.071558  -0.0041217    -0.12755    0.031932    0.032582
0.047198    0.023162     0.06019    0.048497    -0.11878    0.025436    0.029983
0.034855    0.020239    0.042326     0.12645    -0.12073    0.010819    0.023487
0.016666    0.016016    0.021538      0.2044    -0.12333  -0.0073698    0.016341
-0.0034721   0.0085458   0.0023744     0.24436    -0.12268   -0.023285    0.012443
-0.018738  -0.0018481   -0.010618     0.22617    -0.12268    -0.03303    0.013418
-0.019712   -0.012892   -0.018413     0.15406    -0.11943   -0.034978    0.016666
-0.0060706   -0.019388   -0.022961    0.055968    -0.10838   -0.030431    0.016991
0.01017   -0.019388   -0.030106   -0.038876   -0.087922   -0.020037    0.014717
0.020239    -0.01484   -0.040825     -0.1204    -0.06551   -0.008669    0.013093
0.021213   -0.008669   -0.047646    -0.17692   -0.048945  -0.0015233   0.0095202
0.015367  -0.0018481   -0.045372    -0.17107   -0.038551   0.0017248   0.0088706
0.013743   0.0075714   -0.028807   -0.056741   -0.036602   0.0010752    0.012443
0.016991    0.017316 -0.00087364     0.16121   -0.048296   0.0020496    0.020239
0.021213     0.02641    0.029983     0.40903    -0.06681   0.0046481    0.027385
0.019264    0.031607    0.050771     0.59125   -0.077853   0.0052977    0.026735
0.011794    0.032257    0.055643     0.64842   -0.075579    0.003024    0.019589
0.0033489    0.026085    0.045574     0.58346   -0.059989  -0.0031473   0.0072465
0.0020496    0.014392    0.023812     0.44314   -0.035953   -0.013541  -0.0018481
0.0049729   0.0020496 -0.00087364     0.28561   -0.011917   -0.027508  -0.0063954
0.0075714  -0.0089938   -0.019063     0.15698   0.0078962   -0.037577  -0.0057458
0.0014   -0.016464   -0.028482    0.070909    0.019589   -0.039201  -0.0018481
-0.013866   -0.019388   -0.031081    0.022512    0.019589   -0.032055  0.00010078
-0.032705   -0.017764   -0.027833 -0.00022403    0.009845   -0.022311  -0.0034721
-0.047971   -0.014191   -0.020687   -0.013541  -0.0060706   -0.018088  -0.0089938
-0.057065   -0.011917   -0.013541   -0.028807   -0.023935   -0.019712   -0.014516
-0.056741   -0.010943  -0.0080194   -0.045697   -0.035953   -0.022636    -0.01484
-0.050244  -0.0096434   -0.008669   -0.060313   -0.035628   -0.021661  -0.0054209
-0.042124  -0.0047713   -0.015165   -0.071032   -0.020687   -0.017114   0.0088706
-0.034978  0.00075039   -0.025234    -0.07428   0.0046481  -0.0083442    0.020564
-0.030431   0.0036737   -0.034329   -0.072981    0.034206  0.00075039    0.024786
-0.029457    0.003024   -0.035303   -0.068434     0.06084   0.0052977    0.025111
-0.031081 -0.00054884   -0.022636   -0.064211    0.080653   0.0023744    0.026085
-0.030756  -0.0034721  -0.0021729   -0.061613    0.093321  -0.0037969    0.029009
-0.027508  -0.0024977    0.014068   -0.062587     0.10014  -0.0096434    0.030633
-0.022636   0.0026992    0.016666    -0.06551     0.10274  -0.0093186    0.032257
-0.017764    0.008221   0.0088706   -0.067459     0.10859  -0.0041217    0.030308
-0.013866    0.010819 -0.00022403   -0.069083      0.1219  0.00010078    0.025436
-0.012892    0.011144   -0.008669   -0.070707     0.13944  -0.0024977    0.021538
-0.015815    0.009845   -0.014191   -0.073631     0.15341   -0.011267    0.020239
-0.021337    0.009845   -0.017439   -0.079152     0.15601   -0.020362     0.01764
-0.025559    0.010819   -0.019712   -0.087272     0.14529   -0.024909    0.012119
-0.029782   0.0085458   -0.021337   -0.093119     0.12515   -0.024585   0.0059473
-0.031406      0.0014   -0.018088   -0.082725     0.10209   -0.023285   0.0010752
-0.027508  -0.0083442  -0.0089938   -0.051868    0.075456   -0.022311  -0.0044465
-0.021337   -0.016464   0.0023744  -0.0099683    0.039078   -0.022636  -0.0073698
-0.01614   -0.017439    0.009845    0.025436   -0.011592   -0.022311  -0.0093186
-0.015815   -0.012242    0.011144    0.031607    -0.07428   -0.024585   -0.014191
-0.019712  -0.0047713   0.0023744   -0.011592    -0.13794   -0.029132   -0.020362
-0.023935  -0.0018481   -0.018738    -0.10351    -0.18829   -0.037577   -0.026533
-0.02426  -0.0044465   -0.043423    -0.21362     -0.2081   -0.046347   -0.032055
-0.020687   -0.011267   -0.063886    -0.29255    -0.19251   -0.051868   -0.034004
-0.01549    -0.01549   -0.075904    -0.30424    -0.15288    -0.04862   -0.032055
-0.0096434   -0.012242   -0.075255     -0.2474    -0.11748   -0.036602   -0.027183
-0.0011985   0.0017248   -0.063237    -0.14964    -0.11163   -0.021661   -0.018088
0.013093    0.018615   -0.044073   -0.050244    -0.14834   -0.011592  -0.0080194
0.029333    0.030633   -0.022636    0.019914    -0.23474   -0.011267 -0.00087364
0.042001    0.032582  -0.0044465    0.050771    -0.36238   -0.023935   0.0023744
0.049147    0.023487   0.0036737    0.045899    -0.50725   -0.044723    0.003024
0.05142   0.0088706   0.0010752    0.022188    -0.63425   -0.062587   0.0010752
0.048497  -0.0037969  -0.0080194  -0.0050961    -0.71285   -0.067784  -0.0015233
0.038103   -0.010943   -0.021661   -0.025884    -0.72747   -0.060963  -0.0060706
0.026085   -0.011267   -0.034978   -0.040825    -0.67095   -0.043748   -0.008669
0.01894   -0.007045   -0.042449   -0.051219     -0.5498   -0.017439  -0.0089938
0.019914  -0.0021729   -0.045047   -0.059664    -0.37927   0.0095202  -0.0041217
0.026735 -0.00054884   -0.047646   -0.064211    -0.18764    0.030308    0.003024
0.03518  -0.0034721   -0.048296   -0.068109  -0.0050961    0.037454    0.012443
0.040377  -0.0054209   -0.042124   -0.068434     0.13912    0.033231    0.020239
0.042975  -0.0050961   -0.032705   -0.067134     0.23266    0.027385    0.021863
0.040377  0.00042559    -0.02361   -0.067134     0.27749    0.020888    0.017965
0.030957    0.011469   -0.019712   -0.068758     0.29308    0.015367    0.009845
0.01764    0.021538   -0.022311   -0.068434     0.29762    0.009845      0.0014
0.0059473    0.026085   -0.029782   -0.062912     0.29503   0.0020496  -0.0050961
-0.0015233    0.022837   -0.038876    -0.04992     0.27846  -0.0096434  -0.0089938
-0.0034721    0.016341   -0.042774   -0.034329     0.23689   -0.020037   -0.008669
-0.0044465    0.009845   -0.039201   -0.020037     0.17062   -0.024909  -0.0054209
-0.0024977   0.0043233   -0.025559  -0.0076946    0.079679   -0.022961  -0.0031473
0.00075039   0.0020496   -0.007045    0.003024   -0.024909    -0.01614  -0.0037969
0.003024   0.0052977    0.012768    0.015692    -0.13242   -0.011592  -0.0080194
0.0033489    0.014068    0.029658    0.032257    -0.23214   -0.011917   -0.014516
0.00042559    0.024137    0.039727    0.051096    -0.31594   -0.017439   -0.018738
-0.007045    0.032906     0.04395    0.062789    -0.37635   -0.023285   -0.015815
-0.014516     0.03453    0.041027     0.05272    -0.40104    -0.02426  -0.0060706
-0.019063    0.029009    0.031932    0.014717    -0.38252   -0.020362   0.0052977
-0.016464    0.019589    0.020564   -0.036278    -0.31854   -0.013541    0.011794
-0.0083442    0.011144    0.011469   -0.082725    -0.21849  -0.0076946   0.0088706
-0.00022403   0.0059473      0.0014    -0.10806    -0.10514  -0.0063954  -0.0015233
0.0069217    0.003024  -0.0076946    -0.10676  -0.0021729  -0.0093186   -0.012242
0.011144   0.0023744   -0.014516   -0.082076    0.072208   -0.013216   -0.019388
0.011469   0.0023744   -0.018413   -0.050894     0.10761   -0.014191   -0.022311
0.0056225   0.0020496   -0.021012   -0.032055     0.10729   -0.011917    -0.02426
-0.0057458  -0.0011985   -0.024585   -0.037902    0.091047  -0.0073698   -0.025234
-0.020362  -0.0050961   -0.029782   -0.056091    0.084551  -0.0054209   -0.025234
-0.034654  -0.0044465    -0.03238    -0.06681     0.10631  -0.0080194   -0.023935
-0.045372  0.00042559   -0.033679   -0.059664     0.16023    -0.01549   -0.021986
-0.051868   0.0069217    -0.03238   -0.034654     0.22974   -0.023285   -0.021986
-0.054467   0.0065969   -0.031081  -0.0024977     0.29697   -0.029457   -0.026209
-0.054142   0.0010752   -0.026209    0.027385     0.34537   -0.032055    -0.03238
-0.051544  -0.0096434    -0.01484    0.046223     0.36746   -0.034004   -0.037252
-0.04862   -0.018738  -0.0018481     0.05142     0.36486    -0.04115   -0.038876
-0.044398    -0.02361   0.0039985    0.047198      0.3444   -0.052518   -0.035628
-0.037577   -0.022311   0.0039985    0.038428     0.31776   -0.061613   -0.029132
-0.029132   -0.019063   0.0046481    0.030308     0.29762   -0.062587   -0.021986
-0.020362   -0.014191   0.0078962    0.028034     0.28788   -0.054467   -0.015165
-0.011917  -0.0089938    0.013093    0.030957     0.28918     -0.0405   -0.012567
-0.0054209 -0.00022403    0.015692    0.038103      0.2947   -0.025234   -0.018738
-0.0018481    0.011794     0.01017    0.045249      0.2934  -0.0099683   -0.029132
-0.0018481    0.022188   0.0017248    0.049796     0.28138   0.0043233   -0.039851
-0.00054884    0.026085  -0.0037969    0.051745     0.25735    0.015042   -0.047646
0.0020496    0.023812  -0.0034721     0.05142     0.22552    0.023162   -0.051868
0.0056225    0.018615  0.00010078    0.047847     0.19271    0.033231   -0.052193
0.01017    0.011144   0.0020496    0.041351     0.16673    0.046223   -0.047971
0.015042    0.003024   0.0026992    0.034855     0.14886    0.058891   -0.040175
0.019264  -0.0024977      0.0014    0.033881     0.14074     0.06896   -0.031406
0.021863  -0.0073698   0.0010752    0.038428     0.14269    0.071558   -0.024585
0.024137   -0.010943   0.0046481    0.047198     0.16348     0.06831   -0.020037
0.023487   -0.011592    0.010819    0.054019     0.19596    0.062139    -0.01549
0.020239   -0.010293    0.018615    0.057267     0.23104    0.055318   -0.013866
0.016016   -0.008669     0.02641    0.057917     0.25767    0.049147   -0.014191
0.012119  -0.0073698    0.034855    0.063113     0.26449     0.04395    -0.01614
0.008221  -0.0080194    0.041676    0.070909     0.24663    0.038753    -0.01549
0.0072465   -0.011592    0.045574    0.080653     0.20603    0.028684   -0.014516
0.0072465   -0.016464    0.044275    0.091372     0.14821     0.01764   -0.015165
0.0043233   -0.018738    0.040377     0.10436    0.084551    0.011144   -0.016789
0.00042559   -0.018413    0.034855     0.11768    0.026735    0.011469   -0.018088
-0.0080194   -0.017114    0.029983     0.12613   -0.021337    0.014068   -0.019712
-0.018088   -0.018738    0.023812     0.11508   -0.062262    0.014068   -0.020037
-0.030106   -0.021337    0.017965    0.082277    -0.10351    0.011144   -0.018413
-0.038876   -0.022961    0.012119    0.040702    -0.15158    0.008221   -0.014191
-0.040175   -0.020687   0.0049729    0.008221     -0.2068   0.0059473   -0.007045
-0.035303   -0.013216  -0.0031473  -0.0067202    -0.26624   0.0043233   0.0033489
-0.026858  -0.0050961   -0.012567  -0.0047713    -0.32276   0.0039985    0.011794
-0.018738  0.00075039   -0.021337   0.0085458    -0.36433    0.003024    0.012443
-0.014191  -0.0015233   -0.029132    0.023812    -0.38447   0.0017248   0.0026992
-0.013216  -0.0096434   -0.033354    0.040702    -0.38772  0.00075039   -0.012242
-0.013216   -0.017439   -0.030756    0.056942     -0.3861  -0.0057458   -0.026533
-0.013541   -0.020362   -0.018738    0.066037    -0.39227   -0.021012   -0.039851
-0.013541   -0.020687  -0.0028225     0.06084    -0.40916   -0.044723   -0.047971
-0.013541   -0.020362   0.0088706    0.042326    -0.43709    -0.07428    -0.04927
-0.013866   -0.020687    0.010495     0.01764    -0.46372    -0.10221   -0.045047
-0.013216   -0.021661   0.0046481  -0.0076946    -0.47444     -0.1256   -0.040175
-0.015815   -0.025559  -0.0034721   -0.025234     -0.4569    -0.14216   -0.037252
-0.023285   -0.030431  -0.0083442   -0.029132    -0.40786    -0.14931   -0.036602
-0.030431   -0.033354   -0.011592   -0.021012    -0.33478    -0.14379   -0.034329
-0.03173   -0.034004   -0.011267  -0.0060706    -0.24578    -0.12592   -0.026209
-0.028807   -0.031081  -0.0063954    0.010819    -0.15483   -0.097341  -0.0089938
-0.02426   -0.025559  0.00010078    0.021538   -0.073955   -0.061613    0.010495
-0.017764   -0.016789   0.0069217    0.025436   -0.014516   -0.025884    0.026085
-0.007045  -0.0063954    0.009845    0.024786    0.019914   0.0020496     0.03518
0.0026992   0.0020496   0.0075714    0.022837    0.032257    0.015692    0.038428
0.009845   0.0088706   0.0010752    0.023487    0.029658    0.014392    0.037129
0.012768    0.010819  -0.0083442    0.024461    0.016341   0.0033489    0.032582
0.013743    0.011144   -0.014516    0.024786  0.00075039  -0.0060706    0.027385
0.014717   0.0091954    -0.01484    0.023487  -0.0037969  -0.0067202    0.025111
0.015692    0.003024   -0.011267     0.01764   0.0065969  0.00010078     0.02641
0.014717  -0.0054209  -0.0057458   0.0085458    0.033231   0.0088706    0.029658
0.012443   -0.011917  -0.0028225  -0.0024977    0.068635    0.015367    0.034206
0.0088706   -0.014516  -0.0034721   -0.012892     0.10794    0.016016    0.038428
0.0075714   -0.012567  -0.0057458   -0.018413     0.14399    0.013743    0.042975
0.0091954  -0.0067202  -0.0054209   -0.018088       0.169    0.011794    0.046223
0.013093  0.00075039  -0.0034721   -0.015815     0.17777    0.012119    0.045574
0.016991   0.0059473  0.00010078   -0.012892      0.1716    0.010819    0.040052
0.016991   0.0088706   0.0023744   -0.010943     0.14821   0.0065969     0.03453
0.011469   0.0078962   0.0026992  -0.0073698     0.11151  -0.0021729    0.031607
0.0017248   0.0056225  -0.0031473   -0.007045    0.068635   -0.014516    0.031932
-0.010943   0.0065969   -0.010618  -0.0089938    0.028684   -0.027508    0.034855
-0.018088    0.009845   -0.018088   -0.010618   -0.011592   -0.034654    0.038753
-0.016789    0.013418   -0.025559  -0.0080194   -0.063886   -0.034329    0.042651
-0.007045    0.015042   -0.033354  -0.0018481    -0.13112   -0.026209    0.045574
0.0065969    0.014717   -0.039201   0.0062721    -0.19641   -0.014191      0.0433
0.016991    0.013418   -0.042774    0.016016    -0.23668  -0.0018481     0.03453
0.021863    0.011469   -0.042774     0.02641    -0.24253   0.0088706    0.019589
0.022188   0.0075714   -0.036602    0.033231    -0.22207    0.014717   0.0049729
0.019264   0.0033489   -0.023935    0.033556    -0.18666    0.017965  -0.0047713
0.011794   0.0017248   -0.011267    0.030633    -0.14769    0.020239  -0.0073698
0.00075039    0.003024  -0.0044465    0.026735     -0.1178    0.020239  -0.0041217
-0.007045   0.0065969  -0.0041217    0.022512    -0.10546     0.01894   0.0010752
-0.0054209    0.009845  -0.0093186    0.014392    -0.11358    0.013743   0.0065969
0.00010078    0.010495   -0.019063  0.00042559    -0.13242  0.00010078    0.010819
0.0020496   0.0075714   -0.027833    -0.01549    -0.14769   -0.017764    0.012768
-0.0041217  0.00010078   -0.031406   -0.027833    -0.14834    -0.03238    0.011144
-0.015815   -0.008669   -0.031406   -0.038227    -0.12917   -0.036927   0.0088706
-0.029782   -0.014191    -0.03238    -0.04927   -0.092469   -0.034978   0.0078962
-0.037577   -0.014191   -0.036927   -0.058689   -0.051868   -0.024909    0.011144
-0.034004  -0.0067202   -0.043423   -0.064861   -0.017114   -0.013541    0.016341
-0.02426   0.0033489   -0.047646   -0.061613    0.011794  -0.0018481    0.024137
-0.012567    0.014392   -0.045047   -0.047321    0.031932   0.0088706    0.031607
-0.00022403    0.024786   -0.034004   -0.021661    0.043625    0.016341    0.034855
0.011469     0.03453    -0.01549    0.009845     0.05142    0.016016    0.031932
0.020239    0.041027   0.0059473    0.040702    0.061165   0.0062721    0.023487
0.022837    0.042001    0.022512    0.067661    0.079354   -0.008669    0.013418
0.020564    0.040052    0.028684      0.0852     0.10696    -0.02426   0.0069217
0.015692     0.03583    0.024786    0.087474     0.13879   -0.035303   0.0069217
0.0049729    0.028359    0.014392    0.077405     0.15991   -0.040825    0.009845
-0.011917    0.019914   0.0043233    0.063113     0.15991   -0.043748    0.010819
-0.027833    0.012768  -0.0018481    0.051096      0.1349   -0.048945    0.010819
-0.036927   0.0075714  -0.0011985    0.044599    0.098517   -0.055766    0.012443
-0.036278   0.0065969   0.0046481    0.042326    0.073832   -0.059664    0.015367
-0.028482   0.0085458    0.013743    0.049147     0.07708   -0.056741    0.016991
-0.019063   0.0069217     0.01894    0.066362     0.10631   -0.048296    0.015367
-0.012892  0.00042559    0.016016    0.083251     0.14821   -0.035953    0.011794
-0.012242   -0.011267   0.0039985    0.076755     0.18946   -0.024909   0.0036737
-0.014516   -0.022636    -0.01549    0.028359     0.22877   -0.017764  -0.0044465
-0.014516   -0.029782   -0.034004   -0.054467     0.26709   -0.014191  -0.0080194
-0.0096434   -0.031406   -0.044073    -0.13697     0.30087   -0.013866  -0.0047713
-0.0018481   -0.026858   -0.044723    -0.18277     0.32393   -0.017439  -0.0011985
0.0052977   -0.020362   -0.038227    -0.17497     0.33595   -0.023285  -0.0028225
0.008221   -0.015815   -0.025559    -0.12333     0.34082   -0.031081   -0.010618
0.0033489  -0.0099683   -0.007045   -0.051544      0.3353   -0.039526   -0.019063
-0.0080194  -0.0063954    0.014392    0.009845     0.31906   -0.047646   -0.026858
-0.017114  -0.0063954    0.033231    0.045899      0.2921   -0.053492   -0.031406
-0.021986  -0.0089938    0.043625    0.054019     0.25832   -0.059989   -0.031406
-0.020362   -0.011592    0.041676      0.0433      0.2174   -0.067134   -0.026858
-0.013866   -0.012567    0.030308    0.029983      0.1677   -0.076229   -0.020687
-0.0054209   -0.010943    0.013093    0.016666     0.10566   -0.084024   -0.018413
0.0020496  -0.0073698   -0.007045  -0.0011985    0.031932   -0.087597   -0.022311
0.0020496  -0.0015233   -0.029132   -0.028807     -0.0405   -0.085324   -0.030106
-0.0037969   0.0056225   -0.044723   -0.058689   -0.095717   -0.081101   -0.037902
-0.010618   0.0088706   -0.049595   -0.075255    -0.12917     -0.0824   -0.044073
-0.017764      0.0014   -0.042449   -0.075255    -0.14671   -0.092794   -0.044723
-0.024909   -0.012242   -0.028482   -0.062587    -0.16945    -0.10611   -0.040825
-0.025559   -0.027833   -0.018088   -0.045047    -0.21655    -0.11488   -0.034654
-0.017439   -0.037252   -0.017764   -0.027833     -0.2919    -0.11456   -0.030431
-0.010293   -0.041799   -0.025884   -0.014516    -0.37668    -0.10384   -0.032705
-0.0099683   -0.041799   -0.036602  -0.0044465    -0.44813   -0.087272   -0.042124
-0.01484   -0.039201   -0.044073   0.0023744    -0.48744   -0.072331   -0.056091
-0.019063   -0.034978   -0.048945   0.0033489    -0.48451   -0.059989   -0.065835
-0.017764   -0.025884   -0.053168  -0.0067202    -0.43612   -0.045697   -0.063561
-0.010293   -0.011267    -0.05739   -0.024585    -0.35296   -0.025234   -0.048296
-0.00054884   0.0052977   -0.060313   -0.039201    -0.25585  -0.0047713   -0.024909
0.0078962    0.017965   -0.055766   -0.037902     -0.1649    0.011144  -0.0015233
0.016991    0.023812    -0.04115   -0.020687   -0.095717     0.01829    0.015042
0.027709    0.021213    -0.02426   0.0059473   -0.056416    0.019264     0.01764
0.037778    0.013743   -0.012242    0.032582   -0.047321    0.016016    0.011144
0.045249   0.0017248   -0.010943    0.045574   -0.062587   0.0095202   0.0059473
0.048822  -0.0096434   -0.021012    0.036479   -0.090196   0.0026992   0.0052977
0.047847    -0.01614   -0.035953   0.0065969    -0.11456  0.00010078   0.0065969
0.044599    -0.01484    -0.04862   -0.034978    -0.12105   0.0023744   0.0088706
0.041027   -0.008669   -0.054467   -0.079152    -0.10449    0.011144    0.012768
0.036479  -0.0018481   -0.052193    -0.10644   -0.066485     0.01894    0.017316
0.033231   0.0056225   -0.043099    -0.10546    -0.01549    0.021213    0.022188
0.030633     0.01017   -0.028482   -0.072656    0.041351    0.017965    0.023812
0.027385    0.011794   -0.010618   -0.018738    0.094945    0.009845    0.021213
0.022188    0.011144   0.0095202    0.037129     0.13977  -0.0018481    0.016666
0.01764    0.009845    0.029658    0.076431     0.16835   -0.013541    0.012768
0.013418   0.0088706    0.040377    0.089098     0.18004   -0.018738    0.013093
0.0069217   0.0088706    0.039402     0.07708     0.17874   -0.018738    0.016991
0.0020496   0.0095202    0.035505    0.052395      0.1729   -0.013541    0.021213
-0.0021729   0.0088706    0.030308    0.029333      0.1638  -0.0015233     0.01894
-0.0021729   0.0069217    0.022188    0.013743     0.15049    0.016991    0.013093
0.00075039   0.0059473     0.01017   0.0085458      0.1349    0.038753   0.0095202
0.0065969   0.0075714 -0.00054884    0.009845     0.11995    0.059216   0.0095202
0.009845    0.011144  -0.0041217    0.016666     0.11183    0.075131    0.011469
0.010495     0.01829   0.0017248    0.021863     0.10696    0.083901    0.012768
0.010819    0.024786    0.014392    0.025111    0.098193    0.086175    0.011469
0.013093    0.026735    0.027385     0.02706    0.081303    0.082602     0.01017
0.013743    0.022837    0.032582    0.027709    0.053694    0.074482    0.009845
0.010819    0.014392    0.029009    0.023487    0.021213    0.062139   0.0088706
-0.00022403   0.0059473    0.020239   0.0075714   -0.013541    0.049147   0.0052977
-0.013866 -0.00022403    0.010819   -0.013216   -0.050244    0.035505  -0.0028225
-0.026858  -0.0028225   0.0059473   -0.029457   -0.089546    0.019589  -0.0099683
-0.034654  -0.0031473   0.0085458   -0.037577     -0.1269   0.0056225   -0.013541
-0.037902  -0.0031473    0.016341   -0.041799    -0.15353      0.0014   -0.015815
-0.038227  -0.0041217    0.025436   -0.042449    -0.16588   0.0065969   -0.018413
-0.039851  -0.0067202    0.027709   -0.041475    -0.16977    0.015042   -0.021661
-0.044398   -0.012567    0.019589   -0.043099    -0.17367    0.023487   -0.022636
-0.051544   -0.015815   0.0043233    -0.04862    -0.18796    0.031282   -0.021337
-0.059014   -0.014191   -0.012242   -0.060638    -0.22532    0.037454   -0.017764
-0.064211  -0.0067202   -0.026858   -0.076554    -0.28476    0.041676   -0.014516
-0.062262   0.0023744   -0.034978   -0.092469    -0.35816    0.039402  -0.0089938
-0.051219   0.0085458   -0.035303   -0.099615    -0.43254    0.030957  -0.0028225
-0.034329    0.010495   -0.028157   -0.092469    -0.48744    0.014392   0.0020496
-0.015815    0.011469   -0.016464   -0.069083     -0.4975  -0.0034721   0.0036737
-0.0024977    0.014717  -0.0028225    -0.03173    -0.45236   -0.018088      0.0014
0.0043233     0.01894    0.013418    0.014392    -0.36141   -0.028482  -0.0021729
0.0072465    0.023162    0.029009    0.058241    -0.24968   -0.038551  -0.0060706
0.009845    0.027709    0.039727      0.0865    -0.15191    -0.04927  -0.0099683
0.012119    0.029333    0.041351    0.090722   -0.090196   -0.057715   -0.019388
0.013418    0.029009    0.032906    0.075456   -0.070058   -0.061613   -0.032705
0.01017     0.02706    0.022837    0.050446   -0.080451    -0.05804   -0.042449
0.0017248    0.023812    0.015367    0.026085    -0.09994   -0.048945   -0.040825
-0.0083442    0.019914    0.011794    0.013418    -0.10481   -0.034654   -0.029457
-0.01549    0.017316    0.009845    0.011144   -0.084024   -0.020362   -0.016464
-0.016789    0.014068   0.0052977    0.013743   -0.045697  -0.0067202  -0.0083442
-0.013216   0.0095202   0.0023744    0.014717  -0.0041217   0.0026992  -0.0060706
-0.0031473   0.0078962  -0.0021729    0.012443    0.031932 -0.00022403  -0.0054209
0.0085458    0.009845  -0.0089938   0.0069217    0.055318   -0.017439  -0.0041217
0.01764    0.015042   -0.012892   0.0020496    0.071883   -0.041799  -0.0034721
0.019589    0.020888   -0.013541   0.0020496    0.083576   -0.059014  -0.0054209
0.018615    0.027385   -0.013541   0.0023744    0.094945   -0.061937  -0.0080194
0.015367    0.032582   -0.015815  -0.0011985     0.11021    -0.04992   -0.010618
0.011144    0.033556   -0.020362  -0.0060706      0.1258   -0.030431    -0.01549
0.0059473    0.029658   -0.021986  -0.0067202     0.13847   -0.012567   -0.020037
0.0014    0.022837   -0.019712   0.0017248     0.14561  0.00010078   -0.021337
-0.0024977    0.012443    -0.01484     0.01894     0.14789   0.0088706   -0.021012
-0.0018481   0.0026992  -0.0093186    0.035505     0.14789    0.013743   -0.017439
0.0020496  0.00042559  -0.0021729    0.044275     0.14756    0.015692  -0.0096434
0.0059473   0.0052977    0.003024    0.039402     0.14691    0.016016  -0.0028225
0.0059473   0.0085458   0.0062721    0.025436     0.14789    0.011794 -0.00087364
0.00042559   0.0049729   0.0091954    0.013093     0.14951   0.0056225  -0.0047713
-0.010943  -0.0047713    0.013093    0.011469     0.15244  -0.0015233   -0.012892
-0.025234    -0.01549    0.016016     0.01829     0.15926  -0.0060706   -0.019388
-0.036602    -0.02361    0.017316    0.025111     0.16998   -0.008669   -0.022636
-0.038876   -0.027833    0.016666    0.025761     0.18622   -0.011917   -0.021986
-0.032705   -0.026858    0.014392    0.021538     0.20798   -0.015165   -0.019388
-0.019712   -0.021986    0.014068    0.015692     0.22682   -0.017764   -0.013541
-0.0057458   -0.016464    0.015367    0.013093     0.23624   -0.011592  -0.0037969
0.0056225   -0.015815     0.01764    0.013743     0.23364   0.0017248    0.010819
0.012119   -0.020362    0.021538    0.015042        0.22    0.015042    0.024786
0.013743   -0.025884    0.022837    0.016341     0.20051    0.020888    0.034855
0.01017   -0.029782    0.020888    0.017965     0.18004    0.017316    0.038428
0.0033489   -0.028807     0.01894     0.01894     0.16673   0.0072465    0.034206
-0.0057458   -0.021986    0.020564    0.020888     0.16218  -0.0050961    0.024137
-0.013541  -0.0096434    0.023812    0.020888     0.16608    -0.01614    0.014068
-0.020687   0.0020496    0.025436    0.013418     0.17355    -0.02426    0.011144
-0.02426    0.010819    0.021538   0.0026992     0.17972   -0.028482    0.014392
-0.025234    0.016341    0.014068  -0.0080194     0.18264   -0.032055    0.021538
-0.026533    0.017965   0.0062721   -0.018738     0.17842   -0.033679    0.029658
-0.028482    0.014717  -0.0024977   -0.029132      0.1625   -0.033354     0.03583
-0.030431   0.0065969  -0.0099683   -0.035953     0.13522    -0.03303    0.036154
-0.032055  -0.0044465   -0.016464   -0.037577     0.10079   -0.034978    0.031607
-0.032705   -0.013216   -0.021661   -0.034978    0.064413   -0.035628    0.029009
-0.032055   -0.017114   -0.025884   -0.025884    0.033881   -0.035628    0.027385
-0.028482   -0.015815   -0.027183   -0.016789   0.0085458   -0.038876    0.023487
-0.022311   -0.012242   -0.026209   -0.014516   -0.015815   -0.045697    0.014717
-0.01549   -0.008669   -0.022961   -0.016464   -0.040825   -0.053168    0.003024
-0.0076946  -0.0067202   -0.019712   -0.021337   -0.064536    -0.05804  -0.0080194
-0.0037969  -0.0050961   -0.020362   -0.026533   -0.085973   -0.059664   -0.014516
-0.0057458  -0.0031473    -0.02426   -0.027183    -0.11033   -0.054792   -0.011917
-0.013216  -0.0028225   -0.027833    -0.02361    -0.13794   -0.046347  -0.0044465
-0.020362  -0.0047713   -0.028482   -0.016464    -0.16295   -0.039526   0.0023744
-0.02426   -0.007045    -0.02426  -0.0067202    -0.17887   -0.036278   0.0069217
-0.017764  -0.0093186   -0.015815   0.0078962    -0.18407   -0.035953   0.0088706
-0.0047713   -0.012567  -0.0089938    0.024786    -0.17594   -0.036927   0.0072465
0.0069217   -0.015815  -0.0080194    0.041676    -0.15841   -0.035303  0.00075039
0.012119   -0.018413   -0.010618     0.05207    -0.14411   -0.029132   -0.007045
0.0091954   -0.022311   -0.016464    0.049472    -0.13567   -0.023285   -0.012567
0.0020496   -0.028157   -0.025234     0.03518     -0.1282   -0.020687   -0.014516
-0.0060706    -0.03303   -0.034978    0.014717    -0.11163   -0.023285   -0.013866
-0.014191   -0.035953   -0.042774  -0.0054209   -0.079477   -0.025559   -0.012892
-0.021012   -0.036602    -0.04862   -0.020362   -0.033354   -0.019712    -0.01484
-0.02361    -0.03173   -0.051544   -0.029457    0.017316  -0.0083442   -0.018088
-0.021337   -0.025559   -0.050244   -0.036602    0.066037   0.0010752   -0.022311
-0.01549   -0.021012   -0.043748   -0.042449     0.11151   0.0049729   -0.025884
-0.0073698   -0.019388   -0.036927   -0.051544     0.15601   0.0052977   -0.025559
0.0017248   -0.019712   -0.032705   -0.061288     0.19986    0.010495   -0.019712
0.0095202   -0.020037   -0.033679   -0.065835     0.23981    0.020888  -0.0093186
0.013418   -0.017764   -0.038551   -0.060963     0.26287    0.030957   0.0017248
0.010495   -0.017114   -0.046022   -0.045697     0.26482     0.03453   0.0078962
0.0014   -0.021337   -0.055441   -0.022311     0.24695    0.027709   0.0075714
-0.0093186    -0.02426   -0.061288   0.0085458     0.21707    0.020239  0.00075039
-0.016789   -0.020362   -0.055766    0.041676     0.18654     0.01829  -0.0080194
-0.018738   -0.007045   -0.033354    0.070259      0.1651    0.024461   -0.013866
-0.015165    0.011794   0.0020496      0.0865     0.15211    0.032257   -0.015815
-0.0073698    0.029333    0.037454    0.086824     0.13457    0.035505   -0.018413
0.0020496    0.039727    0.063113    0.074157     0.10242    0.030308   -0.022636
0.011144    0.040052    0.072858     0.05272    0.050771    0.016666   -0.029132
0.016341    0.032257    0.066037    0.025111   -0.017439    0.003024   -0.034654
0.017316    0.019589    0.047198  -0.0054209    -0.09117   -0.007045   -0.037577
0.016991   0.0075714    0.023812   -0.041475    -0.15743  -0.0083442   -0.033354
0.01764   0.0020496  -0.0011985   -0.085973    -0.21395  -0.0037969    -0.02361
0.022512   0.0062721   -0.023285    -0.13502    -0.27306 -0.00054884   -0.012242
0.030957    0.016666   -0.039851    -0.16782    -0.34972  -0.0054209  -0.0031473
0.037129    0.027385   -0.044073    -0.16458     -0.4543   -0.020687   0.0026992
0.036154    0.031282   -0.034978    -0.11748    -0.58423   -0.043099   0.0026992
0.02641    0.028359   -0.017439   -0.038551    -0.72454   -0.068758  -0.0050961
0.0049729    0.022188  -0.0031473    0.051096    -0.84895   -0.096692   -0.017114
-0.020362    0.016341  0.00042559     0.13717    -0.92398     -0.1204   -0.028157
-0.038551    0.012768  -0.0054209     0.20635    -0.92203    -0.13372   -0.031406
-0.045372    0.014392   -0.018738     0.23721    -0.83141    -0.13567   -0.029782
-0.043423    0.019264   -0.031406     0.20928    -0.67225    -0.12527   -0.023285
-0.035303    0.023812   -0.040175      0.1258    -0.48289    -0.10644   -0.013866
-0.025234     0.02706   -0.048296    0.012119    -0.30749   -0.086948 -0.00087364
-0.013541     0.02706   -0.059014   -0.094418    -0.17302   -0.071682    0.015042
-0.0041217    0.022512   -0.072331     -0.1662   -0.084024   -0.062262    0.029009
0.00042559    0.010819   -0.088572    -0.19154   -0.027508   -0.055766    0.032257
-0.0021729  -0.0050961    -0.10254    -0.18244    0.009845   -0.052843    0.025111
-0.011267   -0.022311    -0.10968    -0.15483    0.031282   -0.050894    0.011794
-0.02426   -0.036278    -0.10579    -0.12625    0.028359   -0.051219  -0.0050961
-0.03303     -0.0405   -0.089546    -0.10514  -0.0028225   -0.050569   -0.020037
-0.033679   -0.032705    -0.06551    -0.10059   -0.046996   -0.046671   -0.025884
-0.026209   -0.015165   -0.037577    -0.12657   -0.069083   -0.036278   -0.021661
-0.013541   0.0036737   -0.014191    -0.19478    -0.04862   -0.022961   -0.011592
-0.0018481    0.020239  0.00010078    -0.28508    0.010495  -0.0080194  0.00042559
0.0065969     0.03453   0.0078962    -0.32243    0.091372   0.0052977    0.011794
0.011794     0.04395    0.016016    -0.21849     0.17907     0.01829    0.019589
0.014068    0.050446    0.030633    0.044275     0.25962    0.029983    0.024137
0.015042     0.05207    0.049472     0.38954     0.32328    0.036154    0.023812
0.011469    0.047198    0.066362     0.69844     0.35966    0.041027    0.016991
0.0010752    0.035505    0.071558     0.88163     0.35966    0.042651   0.0088706
-0.01484    0.022837    0.058241     0.91249     0.32848    0.037778   0.0033489
-0.028482    0.015042    0.032582     0.81862     0.27781    0.028684      0.0014
-0.039201    0.011144   0.0065969     0.65784     0.21545    0.020888   0.0039985
-0.042774   0.0091954   -0.010618     0.48276     0.14464    0.015367    0.011144
-0.042774   0.0075714   -0.017764     0.33011    0.061165    0.011144    0.014717
-0.038876   0.0052977   -0.013216     0.21415   -0.034004   0.0078962    0.009845
-0.034654 -0.00022403 -0.00054884     0.13782    -0.12398   0.0052977      0.0014
-0.034978  -0.0060706    0.011469    0.092996    -0.18731   0.0010752  -0.0034721
-0.036278  -0.0089938    0.014068    0.062464    -0.20908 -0.00087364  -0.0015233
-0.035303  -0.0096434   0.0085458    0.034855    -0.18471   0.0017248   0.0043233
-0.029782  -0.0083442  -0.0015233   0.0039985      -0.123    0.010819   0.0078962
-0.01614  -0.0041217   -0.012242   -0.027508   -0.043748    0.019264   0.0091954
0.0046481   0.0033489   -0.023935   -0.059014    0.036154    0.021213    0.013743
0.026085    0.009845    -0.03238   -0.091495     0.10306    0.015692    0.023487
0.041027    0.014068    -0.03238    -0.11845     0.15406   0.0069217     0.03518
0.046548    0.014068    -0.02426    -0.13437     0.19823  -0.0044465    0.044924
0.043625   0.0091954   -0.014516    -0.14087     0.24111   -0.018413    0.050771
0.036804   0.0023744  -0.0083442    -0.13892     0.28788    -0.03173    0.050121
0.030633  -0.0037969  -0.0057458     -0.1321      0.3392   -0.039526    0.042651
0.02641  -0.0083442  -0.0041217    -0.12625     0.38792   -0.041799    0.030308
0.022837   -0.011267  -0.0011985    -0.12235     0.42397   -0.041475    0.017965
0.020564   -0.010618   0.0049729    -0.12073     0.44021   -0.043099    0.009845
0.021538  -0.0089938    0.012119    -0.11878     0.43957   -0.046996    0.003024
0.022188   -0.008669    0.019914    -0.11553     0.42138   -0.051219  -0.0024977
0.021863   -0.008669    0.023162    -0.11391      0.3863   -0.053168  -0.0047713
0.020564   -0.007045    0.021863    -0.11261      0.3366    -0.04927  -0.0021729
0.020888   -0.007045     0.01764    -0.11098     0.27196   -0.038227  0.00042559
0.020564   -0.008669    0.013093    -0.11098     0.18134    -0.02361 -0.00054884
0.016991   -0.011267    0.011144    -0.11813    0.057267   -0.011267  -0.0054209
0.010819   -0.014191    0.011794    -0.13242   -0.098641  -0.0015233   -0.011592
0.0049729   -0.015815    0.015367    -0.14931    -0.27014   0.0075714   -0.013866
0.0052977   -0.014191    0.019264      -0.161    -0.44066    0.015367   -0.015165
0.0085458   -0.010293    0.016991    -0.16782    -0.58975    0.021538   -0.017439
0.0095202  -0.0083442   0.0065969    -0.17107    -0.70116    0.028034   -0.021012
0.009845   -0.010293   -0.011917    -0.17172    -0.75897    0.036154   -0.026858
0.01017   -0.017114   -0.028807    -0.16945    -0.75508    0.048172   -0.033354
0.012768   -0.026209   -0.038876    -0.16198    -0.69791    0.059541   -0.037252
0.015692   -0.032055   -0.042774    -0.15353    -0.60437    0.064088   -0.038551
0.016666   -0.033354   -0.044398    -0.14411    -0.49588    0.062139   -0.038876
0.014068   -0.028157   -0.043423     -0.1334    -0.39389    0.053694    -0.04115
0.012443   -0.018088   -0.035628    -0.12365    -0.31009     0.04395   -0.043423
0.010819  -0.0076946   -0.020037    -0.11391    -0.24675    0.034206   -0.045372
0.0065969  0.00010078  -0.0041217    -0.10416    -0.19706    0.026085   -0.046022
-0.0015233    0.003024    0.003024   -0.095717    -0.14509    0.021863   -0.046671
-0.0080194      0.0014    0.003024   -0.093769   -0.078827    0.025761   -0.044723
-0.012892  -0.0028225 -0.00087364   -0.097017      0.0014    0.038428   -0.037577
-0.020362  -0.0073698  -0.0041217    -0.09994    0.089098    0.061165   -0.028807
-0.026533   -0.008669  -0.0037969    -0.10026     0.17517    0.081952   -0.023935
-0.029132  -0.0089938  -0.0034721   -0.094418     0.25118    0.089098   -0.022311
-0.029132  -0.0063954  -0.0031473   -0.082725     0.30022     0.07773   -0.022636
-0.025559  -0.0041217  -0.0028225   -0.069733     0.31646    0.054993   -0.023285
-0.017764  -0.0060706  -0.0024977   -0.059339     0.30639    0.030633   -0.021661
-0.010943  -0.0089938  -0.0018481   -0.051219     0.28463    0.010495   -0.014191
-0.0083442  -0.0096434  -0.0015233   -0.042449     0.25995  -0.0028225  -0.0034721
-0.007045   -0.008669  -0.0050961   -0.030431     0.23136    -0.01484    0.003024
-0.0080194  -0.0073698   -0.012567   -0.018088     0.19986   -0.029782    0.003024
-0.011592  -0.0057458   -0.017764  -0.0060706     0.16933   -0.046347  -0.0015233
-0.013866  -0.0073698    -0.01549   0.0026992     0.14367   -0.063237  -0.0024977
-0.017439   -0.013866  -0.0047713   0.0088706     0.12418   -0.075255   0.0033489
-0.022636   -0.024909   0.0069217    0.013093     0.11378   -0.081426    0.012119
-0.026858   -0.037252    0.014717    0.012119     0.11346   -0.084024    0.016016
-0.030756   -0.046671    0.016341   0.0046481     0.12158   -0.084349    0.014068
-0.031406   -0.051219    0.013743  -0.0063954     0.12775   -0.085324   0.0069217
-0.027508   -0.054142    0.009845   -0.013866     0.12158   -0.087272  -0.0024977
-0.021337   -0.055116   0.0078962  -0.0093186     0.10177    -0.08305   -0.011267
-0.016464   -0.052193   0.0049729   0.0039985    0.074157   -0.072331   -0.016789
-0.015165   -0.045372   0.0017248     0.01894    0.047523    -0.05804    -0.01614
-0.017764   -0.035628  -0.0054209    0.033231    0.025436   -0.044723   -0.012567
-0.020037   -0.025559   -0.018088    0.042975   0.0052977   -0.035628  -0.0093186
-0.01614   -0.017439   -0.028157    0.045899   -0.018088   -0.034329   -0.008669
-0.007045   -0.012242   -0.032705    0.044599   -0.041799   -0.043748  -0.0096434
0.0036737  -0.0067202   -0.032705    0.037778   -0.058365   -0.058689   -0.008669
0.010819      0.0014   -0.030431     0.02706   -0.064536   -0.075255  -0.0024977
0.015692    0.009845   -0.027833    0.011794   -0.062912   -0.087922   0.0095202
0.022837    0.013743   -0.025559  -0.0060706   -0.052518   -0.094093    0.022837
0.033556    0.014392   -0.021012   -0.022636    -0.03238   -0.094418    0.034206
0.047523    0.013418    -0.01614    -0.03303  -0.0041217   -0.089871    0.039078
0.057267    0.013743  -0.0099683   -0.034004    0.025761    -0.08305    0.037129
0.056292    0.014392  0.00075039   -0.019063     0.05142   -0.073955    0.032582
0.045249    0.012768    0.016016    0.011469    0.074482    -0.06551    0.028684
0.030957   0.0085458    0.029009    0.048172    0.096893   -0.060313    0.029333
0.019589   0.0020496    0.036479     0.07773     0.12158   -0.054792     0.03518
0.014717  -0.0018481    0.036804    0.094295     0.14237    -0.04862    0.040377
0.014392  -0.0050961    0.029009     0.10566     0.15049   -0.041475    0.041676
0.01764  -0.0073698    0.013418     0.10664     0.13749   -0.034978    0.039727
0.019589  -0.0099683  -0.0083442    0.081303     0.10501   -0.029782    0.037778
0.020564   -0.012892   -0.026533     0.01894     0.06084   -0.030431    0.038428
0.021213   -0.011592   -0.038551   -0.059339    0.011144   -0.037902    0.038753
0.016991  -0.0050961   -0.043748    -0.11975   -0.030756   -0.050569    0.036479
0.0095202   0.0065969   -0.044073    -0.13567   -0.058689   -0.062262    0.032257
0.0056225    0.020239     -0.0405    -0.10091    -0.07493   -0.068109     0.02706
0.0052977    0.029983   -0.031406   -0.028157   -0.087272   -0.069083    0.020239
0.0052977    0.034855   -0.016789    0.058566   -0.096042   -0.069733    0.014068
0.00010078     0.03518    0.003024      0.1349    -0.10319   -0.068109   0.0075714
-0.0073698    0.031607    0.026085     0.18394    -0.10449   -0.062262    0.003024
-0.014516    0.026085    0.046223     0.19856    -0.10156   -0.047321   0.0020496
-0.019712    0.018615    0.054344     0.18232   -0.093444   -0.029132   0.0036737
-0.021337   0.0075714    0.047198     0.15211   -0.077203   -0.012242   0.0039985
-0.018413  -0.0031473    0.031282     0.12288   -0.054467  -0.0011985      0.0014
-0.011267   -0.012892    0.013743     0.10112   -0.034004  -0.0015233  -0.0015233
-0.0018481    -0.01614   0.0026992     0.09462   -0.024909  -0.0080194  -0.0044465
0.0036737   -0.012567   0.0010752     0.10047   -0.029132   -0.018413  -0.0060706
0.00075039  -0.0047713   0.0062721     0.10859   -0.040825   -0.026533  -0.0093186
-0.010293   0.0020496    0.013743     0.10956   -0.050244   -0.032055   -0.012567
-0.021661   0.0046481    0.019589    0.097868   -0.053168   -0.031081   -0.013541
-0.030431   0.0062721    0.022188    0.082277    -0.04927   -0.019388   -0.012567
-0.033679   0.0069217    0.023487    0.067011   -0.044723  -0.0024977   -0.011267
-0.032705   0.0075714    0.021538    0.054344   -0.045372    0.012443   -0.013216
-0.034329   0.0059473    0.015692    0.045249    -0.04992    0.019589   -0.018088
-0.042124  0.00042559   0.0072465    0.039402   -0.055116    0.017965   -0.025234
-0.055116   -0.007045 -0.00087364    0.033881   -0.059989    0.012768    -0.03173
-0.065835   -0.014516  -0.0021729    0.030308   -0.064861   0.0062721   -0.034978
-0.067459   -0.019063   0.0033489    0.027709   -0.070707  -0.0021729   -0.034654
-0.060963   -0.016789    0.009845    0.029983   -0.072656   -0.010618   -0.028807
-0.049595   -0.011267    0.010495    0.036479   -0.072331   -0.019388   -0.016464
-0.037577  -0.0034721   0.0023744    0.042651   -0.068109   -0.026533  -0.0050961
-0.028157   0.0059473   -0.012567    0.046223   -0.055441   -0.025559  -0.0028225
-0.022961    0.017316   -0.025559    0.044275   -0.031081   -0.013866  -0.0093186
-0.02426    0.027385   -0.028807    0.037778  -0.0011985   0.0020496   -0.019063
-0.029132    0.033881   -0.021986    0.028359    0.028359    0.013743   -0.029457
-0.034004    0.033881   -0.010293    0.019914    0.049796     0.01894   -0.038227
-0.035953    0.028359   0.0020496    0.015367    0.061165    0.023487   -0.044723
-0.033354    0.021538    0.009845    0.014392    0.058566    0.029658   -0.052518
-0.031081     0.01764    0.013093    0.014717    0.038103    0.034855   -0.059339
-0.030431    0.016666    0.012768    0.015692  -0.0015233    0.036154   -0.063237
-0.030106    0.017316   0.0075714    0.017965   -0.056091     0.03453   -0.060963
-0.028157    0.018615 -0.00054884    0.023162    -0.11683    0.030633   -0.054467
-0.023935    0.019914  -0.0083442    0.032582    -0.17659    0.024461   -0.046996
-0.017439    0.020239   -0.013216    0.040377    -0.22759    0.018615   -0.042449
-0.010943    0.020888   -0.015815    0.042975     -0.2591    0.017965   -0.036927
-0.0028225    0.020888   -0.018738    0.034855    -0.26494    0.023812   -0.027833
0.0069217    0.024137   -0.021986    0.019264     -0.2435    0.032906   -0.016464
0.014717    0.028684   -0.024585   0.0039985    -0.19966    0.039727  -0.0050961
0.021538    0.030308    -0.02361  -0.0044465    -0.14639    0.044275    0.003024
0.026085    0.027385   -0.016789  -0.0057458   -0.093444      0.0433   0.0095202
0.025111    0.023487  -0.0076946  -0.0015233   -0.049595    0.035505    0.012443
0.018615    0.021538  0.00075039   0.0036737   -0.011917    0.025436    0.012119
0.009845    0.024786   0.0085458   0.0069217    0.021538    0.020564   0.0088706
0.0033489    0.032582    0.010819   0.0069217    0.061165    0.019914   0.0062721
0.0026992    0.037778   0.0095202   0.0046481     0.11021    0.017316   0.0036737
0.0033489    0.038103   0.0049729   0.0033489     0.16738    0.011469   0.0017248
0.00042559    0.032906  -0.0015233   0.0033489     0.22032   0.0062721  -0.0015233
-0.008669    0.025436   -0.011267  0.00042559     0.25572   0.0017248  -0.0041217
-0.019712     0.01829   -0.022311  -0.0099683     0.25995  -0.0060706 -0.00087364
-0.027508    0.014068    -0.03303    -0.02361     0.22584   -0.017114   0.0075714
-0.028807    0.013418   -0.043423   -0.036602     0.15244   -0.028482    0.014392
-0.026209    0.013743   -0.054142   -0.045697    0.049796   -0.035628    0.017316
-0.023935    0.014392   -0.061288   -0.048945   -0.057715   -0.034978    0.016016
-0.023285    0.013418   -0.060963   -0.048296    -0.14834   -0.029132    0.014068
-0.022636     0.01017   -0.051868   -0.042774    -0.20908   -0.025884    0.013743
-0.023285   0.0059473   -0.037252   -0.033679    -0.23409   -0.028807    0.013418
-0.024585    0.003024   -0.018738    -0.02361    -0.22791   -0.032705    0.010819
-0.02426  0.00010078  -0.0044465   -0.017114    -0.20193   -0.030431   0.0049729
-0.02361  -0.0024977 -0.00022403   -0.017114    -0.16912   -0.021012  0.00042559
-0.022961  -0.0021729  -0.0037969   -0.019712    -0.13697  -0.0089938 -0.00087364
-0.018088    0.003024  -0.0099683   -0.021337    -0.10806   0.0017248  0.00042559
-0.007045   0.0069217    -0.01484   -0.016464   -0.083375     0.01017   0.0033489
0.0046481    0.008221   -0.016464  -0.0073698   -0.067784     0.01764    0.010495
0.013093   0.0043233    -0.01614  0.00042559   -0.067134    0.022188     0.01764
0.015367  -0.0011985   -0.012567   0.0039985   -0.082725    0.023162    0.022837
0.014068  -0.0067202  -0.0063954   0.0039985    -0.10838     0.01829    0.022837
0.012119  -0.0063954  -0.0028225  -0.0011985    -0.13372   0.0059473    0.019264
0.0052977 -0.00022403  -0.0044465   -0.012567    -0.14899   -0.010618    0.015042
-0.0047713     0.01017   -0.013866   -0.024585    -0.14574   -0.024909    0.013093
-0.013541    0.019914   -0.025234   -0.032055    -0.12008   -0.030431    0.014392
-0.016789    0.025436   -0.031081   -0.029457   -0.074605   -0.024909    0.016666
-0.013866     0.02706   -0.026858   -0.020037   -0.020362   -0.013216    0.016666
-0.007045    0.024786   -0.016789   -0.010618    0.030957  -0.0024977    0.010819
0.0020496     0.01764  -0.0089938  -0.0041217     0.06961   0.0017248   0.0017248
0.01017   0.0072465  -0.0031473  -0.0011985    0.093321  0.00042559   -0.007045
0.01764  -0.0047713   0.0043233   0.0017248     0.10599  -0.0031473   -0.013866
0.028359   -0.013541    0.013743    0.003024     0.11541  -0.0060706   -0.015165
0.039402   -0.016464    0.020564   0.0036737     0.13132  -0.0057458   -0.011592
0.047198   -0.011592    0.022837   0.0010752     0.15893  -0.0044465  -0.0037969
0.046873  -0.0034721    0.019914  -0.0037969     0.19791 -0.00054884   0.0036737
0.041676   0.0036737    0.012119  -0.0073698     0.23721   0.0072465   0.0088706
0.03453   0.0065969   0.0056225  -0.0080194     0.26547    0.016016    0.012443
0.030957   0.0075714   0.0020496  -0.0080194     0.28236    0.021538    0.016666
0.033881   0.0078962  -0.0018481   -0.011592     0.28983    0.025436    0.020239
0.041351   0.0078962  -0.0096434   -0.018413     0.29697    0.028684    0.022837
0.046223   0.0075714   -0.022311   -0.027833     0.30022    0.030957    0.023812
0.042326   0.0065969   -0.033354   -0.033679     0.29308    0.032906    0.022512
0.031932   0.0052977   -0.038227   -0.030106     0.26092    0.034206    0.021863
0.018615   0.0036737   -0.034004   -0.017114     0.20148    0.032257    0.023487
0.008221   0.0017248   -0.024909 -0.00054884       0.131    0.025436    0.028684
0.0026992    0.003024    -0.01549     0.01017     0.06896    0.014392    0.032257
0.00042559   0.0065969  -0.0060706    0.009845    0.022837 -0.00054884    0.029983
-0.0015233   0.0072465  0.00075039   0.0010752   -0.012892   -0.020037    0.022188
-0.0050961 -0.00022403   0.0046481   -0.011267   -0.051868   -0.041799   0.0095202
-0.014516   -0.014191   0.0036737    -0.02426    -0.10091   -0.061288  -0.0028225
-0.026858   -0.030756  -0.0015233   -0.034329    -0.15386   -0.076554   -0.013216
-0.040825    -0.04115  -0.0093186   -0.039201     -0.2029   -0.086623   -0.021337
-0.049595   -0.040825   -0.017114   -0.039526    -0.23928   -0.090521   -0.028807
-0.04927   -0.030756   -0.023285   -0.039201    -0.25585   -0.086623    -0.03238
-0.039526   -0.019063   -0.025234    -0.04115    -0.24578   -0.079802   -0.032055
-0.027508  -0.0080194   -0.022636   -0.045047     -0.2029   -0.075904   -0.027183
-0.017114  0.00042559   -0.020037   -0.047646    -0.13047   -0.082076   -0.020362
-0.0073698   0.0046481   -0.022636   -0.046347   -0.044723   -0.097017   -0.014191
0.0010752   0.0023744   -0.030431   -0.039526    0.028359    -0.11456  -0.0083442
0.0043233  -0.0050961   -0.037902   -0.027183    0.070259    -0.12398   -0.007045
0.0043233   -0.016464   -0.037577   -0.013216    0.074482    -0.12138   -0.014191
0.0036737   -0.025884   -0.029132  -0.0044465    0.045574    -0.10709   -0.025559
0.0036737   -0.029782   -0.020037  -0.0031473   -0.012567   -0.083375   -0.036278
0.0020496   -0.029457   -0.014191   -0.007045   -0.088896   -0.058365   -0.044723
-0.0018481   -0.027183   -0.010293   -0.012567    -0.18309   -0.040175   -0.048296
-0.0037969   -0.022961  -0.0080194   -0.021661    -0.29353    -0.03238   -0.048296
-0.0018481   -0.019388   -0.011592   -0.035953    -0.41858   -0.031081   -0.047971
0.0033489   -0.018738   -0.021661   -0.050569    -0.54655   -0.032055   -0.046671
0.008221   -0.021661   -0.037902   -0.059664    -0.66575   -0.034004   -0.043423
0.0075714   -0.026533   -0.051219   -0.057065    -0.76482   -0.036927   -0.039201
0.0033489    -0.03238   -0.053492   -0.041799    -0.82264     -0.0405   -0.034329
-0.0028225    -0.03173   -0.043099   -0.014516    -0.81874   -0.042774   -0.027183
-0.0093186   -0.024585    -0.02426    0.015367    -0.74955   -0.046996   -0.020037
-0.0099683   -0.013866  -0.0047713    0.041351     -0.6284   -0.053492   -0.013866
-0.0063954  -0.0018481    0.010495    0.058241    -0.47607   -0.058689  -0.0080194
-0.00054884   0.0075714     0.01894    0.065712    -0.31399   -0.059989  -0.0015233
0.0036737    0.011469    0.021863    0.066037     -0.1597   -0.053817    0.003024
0.0033489    0.011144    0.019589    0.062139   -0.026209   -0.042774   0.0036737
0.0010752   0.0091954    0.013418    0.058241    0.079029   -0.028482   0.0069217
0.00042559   0.0059473   0.0052977    0.056942     0.15114   -0.018088    0.016016
0.0017248  0.00042559   0.0020496    0.055318     0.19206   -0.014191    0.025761
0.0039985  -0.0041217   0.0062721    0.048822     0.20278   -0.016789    0.029333
0.0078962  -0.0073698    0.012119    0.040377     0.18849   -0.024585     0.02641
0.013093   -0.008669    0.012768    0.031607     0.15958   -0.033679    0.017965
0.015367  -0.0076946   0.0078962    0.020888     0.12223   -0.039526   0.0065969
0.012768  -0.0060706  -0.0028225   0.0078962     0.07773   -0.044723   -0.007045
0.009845   -0.007045   -0.012567  -0.0050961     0.03453   -0.051219   -0.019063
0.0052977   -0.012892   -0.018413    -0.01614    0.011794   -0.056416   -0.025884
-0.0021729   -0.021986   -0.017114   -0.022636    0.023162   -0.055766   -0.028482
-0.0099683   -0.026858   -0.014516   -0.022311    0.073507   -0.048296   -0.027508
-0.017114    -0.02426   -0.012242   -0.017764     0.15503    -0.03303   -0.025884
-0.022636   -0.016789  -0.0099683   -0.013216     0.24695   -0.014516   -0.025884
-0.026858  -0.0096434  -0.0096434  -0.0093186     0.32978 -0.00087364   -0.025234
-0.027508  -0.0044465   -0.010293  -0.0073698     0.39019     0.01017   -0.026533
-0.024909  -0.0018481  -0.0083442  -0.0050961      0.4243    0.020564   -0.029132
-0.020362  -0.0011985  -0.0037969 -0.00022403      0.4308    0.029009   -0.029457
-0.013541 -0.00054884   0.0046481   0.0095202     0.40968    0.034206   -0.024909
-0.0063954   0.0033489    0.012119    0.019589     0.36681     0.03518   -0.017439
0.0017248    0.012768    0.016016    0.024786     0.31419    0.034206   -0.010293
0.008221    0.022188    0.013743    0.024461       0.258    0.035505  -0.0050961
0.011469     0.02706     0.01017    0.021863     0.19953    0.038428 -0.00022403
0.011144    0.023162   0.0065969    0.019589     0.13977    0.040702   0.0046481
0.0075714    0.013093    0.003024    0.020564    0.081952    0.041351    0.012768
-0.00022403   0.0023744   0.0010752    0.020239    0.028684    0.037129    0.024786
-0.0083442  -0.0057458      0.0014    0.016016   -0.019063    0.031282    0.038428
-0.012892   -0.010293   0.0023744    0.011144   -0.057715    0.023162    0.046548
-0.0080194   -0.014191    0.003024   0.0065969   -0.084674    0.012119    0.044275
-0.00087364   -0.020687  0.00042559   0.0010752   -0.097341  0.00010078    0.031607
0.0043233   -0.027833  -0.0054209  -0.0073698    -0.10254   -0.012567    0.013093
0.0033489   -0.034329   -0.013866   -0.017764    -0.10351   -0.021661  -0.0015233
-0.0047713   -0.036927   -0.020687   -0.025559    -0.10254   -0.026209  -0.0076946
-0.013866   -0.032055   -0.019388   -0.029782   -0.093769   -0.024909  -0.0054209
-0.01614    -0.02361   -0.007045   -0.028482   -0.068758   -0.019388   0.0017248
-0.010293   -0.016464    0.010819   -0.017114   -0.028807   -0.016464   0.0085458
-0.0028225   -0.012892    0.025761   0.0010752    0.019914   -0.016464    0.014392
-0.00022403   -0.015165    0.029658    0.011794    0.076106   -0.018738    0.022188
-0.0024977   -0.017439    0.017965   0.0020496     0.13912   -0.025234    0.033556
-0.0067202   -0.016464  -0.0024977   -0.024585     0.20635   -0.027183    0.046873
-0.010618   -0.011592   -0.019712   -0.050244     0.26969   -0.019712    0.059541
-0.012242  -0.0041217   -0.028157   -0.054142     0.31484  -0.0054209    0.067011
-0.010618   0.0033489    -0.03173   -0.033679     0.33433   0.0059473    0.066686
-0.008669   0.0075714   -0.033354   0.0036737     0.32913    0.010819    0.058241
-0.0089938   0.0078962   -0.030106    0.043625     0.30899   0.0056225    0.047198
-0.012242   0.0039985   -0.018738     0.06961     0.27132  -0.0044465    0.037129
-0.018738  -0.0037969  -0.0034721    0.078055     0.21935   -0.012567    0.027709
-0.026533   -0.011592   0.0078962    0.070259      0.1625    -0.01549    0.019589
-0.036278   -0.016789   0.0085458     0.05142     0.11801   -0.010618    0.011144
-0.043748   -0.016464  -0.0011985    0.030957    0.099492  -0.0024977  0.00075039
-0.045697  -0.0099683   -0.015165    0.014392     0.10729   0.0023744  -0.0093186
-0.040825  -0.0050961   -0.028807   0.0039985     0.13165   0.0043233   -0.014191
-0.03303  -0.0054209   -0.035303  -0.0031473     0.15698    0.003024    -0.01484
-0.023285  -0.0096434   -0.036278  -0.0063954     0.16673  -0.0024977   -0.010618
-0.01549   -0.018088   -0.034004   -0.008669     0.15698  -0.0076946  -0.0067202
-0.011592   -0.025234   -0.028807  -0.0089938     0.13197  -0.0073698  -0.0037969
-0.0076946   -0.027508   -0.019388  -0.0060706    0.098517 -0.00022403  -0.0021729
-0.0031473   -0.022311  -0.0093186   0.0010752    0.067986    0.013418  -0.0011985
0.0014   -0.013541  -0.0050961     0.01017    0.050446    0.033231   0.0020496
0.0026992  -0.0047713  -0.0060706    0.017965    0.046223    0.054668   0.0075714
0.00010078   0.0033489  -0.0093186    0.021863    0.046873    0.072533    0.012768
-0.0031473    0.010819   -0.012892    0.020888    0.048497    0.080978    0.016341
-0.0044465    0.012768    -0.01614    0.019589    0.048497    0.080978    0.016991
-0.0076946   0.0085458   -0.020362     0.01894    0.041027    0.071883    0.011469
-0.008669   0.0020496   -0.022636    0.019914    0.027385    0.055318      0.0014
-0.0067202  -0.0028225   -0.022311    0.019914    0.012119     0.03518  -0.0076946
-0.0037969  -0.0031473   -0.021012    0.016991   0.0020496    0.017965   -0.010943
-0.0031473  0.00010078   -0.018738    0.013418   0.0020496   0.0085458  -0.0096434
-0.008669   0.0033489   -0.015165    0.013418   0.0095202    0.008221  -0.0047713
-0.011592   0.0072465  -0.0080194    0.017316    0.021538    0.014717   0.0023744
-0.012892    0.011469 -0.00087364    0.024137    0.033881    0.024137   0.0095202
-0.01549    0.013418   0.0046481    0.028684    0.039727    0.035505    0.014392
-0.021012    0.016016   0.0085458    0.027709    0.030957    0.042975    0.017316
-0.025559    0.016666    0.012119    0.023487    0.008221    0.043625    0.014392
-0.023935     0.01764    0.014717    0.017965   -0.022636    0.037129   0.0059473
-0.017439    0.017316    0.015692    0.010819   -0.057065    0.027385 -0.00054884
-0.0096434    0.014717    0.014068   0.0056225    -0.09117    0.017965  -0.0018481
-0.0024977    0.014392     0.01017   0.0026992      -0.123    0.014068   0.0020496
0.0039985    0.012768   0.0046481   0.0026992    -0.14996    0.016341    0.008221
0.0085458    0.010495      0.0014   0.0043233    -0.17497    0.022512    0.013743
0.009845   0.0078962   0.0052977   0.0059473    -0.19998    0.029983    0.014717
0.0085458   0.0069217   0.0091954   0.0095202    -0.22986    0.038103   0.0085458
0.0039985   0.0069217   0.0075714    0.010819    -0.26494    0.042001  -0.0011985
0.00075039   0.0075714  0.00010078    0.008221    -0.30262    0.041351   -0.010618
-0.0015233   0.0088706  -0.0073698 -0.00022403    -0.33965    0.035505   -0.018738
-0.0044465    0.012119   -0.010618   -0.015815    -0.37343    0.022837   -0.024585
-0.0076946    0.015367  -0.0096434   -0.034329    -0.40299   0.0049729   -0.028482
-0.010943    0.015692   -0.012242   -0.049595    -0.42085   -0.012242   -0.029132
-0.011592     0.01017   -0.019712   -0.055766    -0.42182   -0.024585   -0.028157
-0.0096434  0.00042559   -0.032055   -0.052193    -0.40461   -0.030431   -0.027508
-0.0083442   -0.010618   -0.041799   -0.039851    -0.37213   -0.034329   -0.025234
-0.0080194   -0.019712   -0.040825   -0.026209     -0.3325   -0.035628   -0.022636
-0.012567   -0.023935   -0.029132   -0.013216    -0.29093   -0.037252   -0.019063
-0.020037   -0.020687   -0.013216  -0.0031473     -0.2513   -0.038876    -0.01549
-0.030106   -0.012567  0.00075039   0.0033489    -0.21622   -0.042124   -0.012892
-0.040175  0.00010078   0.0078962   0.0039985    -0.18959   -0.048296   -0.012242
-0.042449    0.013743   0.0065969 -0.00054884    -0.17172   -0.052843   -0.013866
-0.032055    0.023487  0.00042559  -0.0067202    -0.15841   -0.051219   -0.013866
-0.010618    0.031607  -0.0096434   -0.011267    -0.14574   -0.044398   -0.011917
0.014068     0.03583   -0.018413   -0.013541    -0.13307   -0.038551  -0.0093186
0.031282    0.036154   -0.022311   -0.012567    -0.12008   -0.038876   -0.010618
0.032582    0.036479   -0.017439  -0.0080194    -0.10481   -0.047321   -0.015815
0.023162    0.036154  -0.0063954  -0.0034721   -0.089546   -0.059339   -0.024585
0.014068    0.039402   0.0046481 -0.00022403   -0.076879   -0.067134    -0.03238
0.0085458    0.045249    0.011469 -0.00087364   -0.067459   -0.071032   -0.037902
0.0078962    0.046873    0.012443  -0.0057458   -0.055441   -0.068434   -0.039851
0.011469    0.043625    0.010819   -0.012242   -0.034978   -0.059014   -0.037577
0.01829    0.036479   0.0072465   -0.012892  -0.0067202    -0.04862   -0.032055
0.027385    0.031607   0.0023744  -0.0057458    0.023812   -0.047971   -0.022961
0.033231    0.030957  -0.0031473   0.0033489    0.049472   -0.060638   -0.013866
0.033231    0.033881  -0.0057458   0.0078962    0.065712   -0.078178  -0.0063954
0.02706     0.03518  -0.0041217   0.0069217    0.076431   -0.087597  0.00075039
