0.9703    -0.13307   -0.036602     -0.4163     -1.2082   -0.056741    0.011144
0.96835   -0.036927   -0.065186    -0.73656     -1.3943    -0.10221     0.03518
0.87481    0.059865   -0.061937    -0.98601     -1.3414    -0.13502     0.05272
0.70981     0.16218   -0.035303     -1.0997     -1.0848    -0.15029    0.050121
0.47042     0.24143   -0.011592     -1.0799    -0.73072    -0.14346    0.025761
0.16705     0.25507  -0.0054209    -0.96425    -0.38187    -0.12268   -0.012567
-0.15581     0.17907   -0.017439    -0.76709    -0.09182   -0.092469   -0.047971
-0.43741    0.036804   -0.034654    -0.45333     0.13522   -0.053492   -0.062587
-0.63782    -0.10384   -0.037577    0.013093     0.31581  -0.0044465   -0.048296
-0.7515    -0.16718   -0.020362     0.57793     0.45646    0.056292  -0.0096434
-0.78983    -0.11651   0.0049729       1.083     0.55487      0.1232    0.036804
-0.73364    0.023812    0.021863       1.374      0.5971     0.18134     0.07708
-0.54265     0.18004    0.016666      1.3951     0.57274     0.21902     0.10534
-0.20615     0.27002   -0.021012      1.2058     0.50777     0.22519     0.11703
0.19791     0.24695   -0.090521     0.90729     0.45808     0.20051     0.11281
0.55162     0.13327    -0.17465     0.56267     0.47822     0.16445     0.09397
0.78549    0.011144    -0.24838      0.1742     0.60717     0.14269    0.068635
0.89105   -0.028157    -0.27891    -0.23409     0.82349     0.14659    0.049796
0.87838    0.063763    -0.24415    -0.55272       1.032     0.17842    0.048822
0.75203     0.26352    -0.12625    -0.63685      1.0973     0.23786    0.069934
0.53603     0.49803    0.056617    -0.43027     0.85922     0.31614     0.10989
0.28041     0.68057     0.24695   -0.049595     0.20181     0.39247     0.15081
0.022837     0.73676     0.36941     0.29145    -0.78691     0.43469     0.16965
-0.22499     0.64192     0.37915     0.42787     -1.8263     0.42268     0.14724
-0.44618     0.43859     0.28528     0.34829     -2.6507      0.3457    0.083901
-0.60761     0.20603     0.14756     0.16445     -3.0882     0.20895   -0.008669
-0.70213    0.018615    0.030957    0.016341     -3.1018    0.040377    -0.11391
-0.74728   -0.075255   -0.020037   -0.028157     -2.7806    -0.12203    -0.20518
-0.76612   -0.070058   0.0017248   0.0095202     -2.2797    -0.24545    -0.26234
-0.75053   0.0043233    0.067986    0.072208     -1.7386    -0.31983    -0.27891
-0.67485    0.091372     0.13457     0.10989     -1.1965    -0.35686    -0.26429
-0.52706     0.14269     0.16543     0.10469    -0.63587    -0.37278    -0.23019
-0.31951     0.14919     0.14789    0.054993   -0.059664    -0.36823    -0.18666
-0.08305      0.1297    0.089748   -0.034329     0.48959     -0.3325    -0.13892
0.14334     0.10924    0.010495    -0.18504     0.93197    -0.26169   -0.085973
0.32588    0.096893   -0.071032    -0.46048      1.1701    -0.17562    -0.03173
0.44574    0.092021    -0.14379    -0.90027      1.0726    -0.11293    0.015367
0.49153    0.082602    -0.20355     -1.4609     0.49024   -0.099615    0.046873
0.47335    0.061814    -0.25033     -2.0426    -0.58585     -0.1334    0.065712
0.40936    0.029333    -0.27988     -2.5467     -1.8594    -0.18407    0.078379
0.32198   -0.012242     -0.2945     -2.8569     -2.8569    -0.21849    0.090397
0.23104   -0.054792    -0.29807      -2.766     -3.1976    -0.22044     0.10371
0.15114   -0.086948    -0.28703     -1.9926     -2.7812    -0.18894     0.11963
0.099167   -0.098641    -0.24286    -0.45853     -1.8292    -0.13697     0.13814
0.075131   -0.089221    -0.15223      1.3887    -0.72844   -0.076554     0.15309
0.069934   -0.063886   -0.020362       2.771     0.18264   -0.025884     0.15796
0.067661    -0.04115      0.1219      3.3008      0.7137   0.0069217     0.15146
0.053369   -0.037902     0.23234      3.0205     0.84233    0.020888     0.13327
0.027385   -0.068434     0.28008       2.314     0.61691    0.016016     0.10209
-0.0011985    -0.13664     0.25572      1.6121    0.096893  -0.0031473    0.059216
-0.01549    -0.22824     0.17062      1.1489    -0.59819   -0.034654    0.012119
-0.0015233    -0.32146    0.060515     0.94139     -1.2403   -0.072656   -0.027508
0.042001     -0.3861   -0.040175     0.87871     -1.5551    -0.10579   -0.052843
0.097543    -0.40104    -0.11098     0.83745     -1.3771    -0.12333   -0.062912
0.14691    -0.35751    -0.14119     0.75138    -0.77586    -0.12917   -0.066485
0.1625    -0.26949    -0.13664     0.62471   -0.034654    -0.13534   -0.072006
0.1232    -0.16198    -0.10903     0.49608     0.53538    -0.14769   -0.087272
0.015042   -0.067459   -0.067134     0.40254     0.81115    -0.15711    -0.10774
-0.14314  -0.0073698   -0.019712     0.35187     0.87351    -0.14411    -0.12463
-0.30554   0.0062721    0.023812     0.32523     0.86376   -0.095068    -0.13404
-0.42182   -0.020362    0.054993     0.29373     0.86344   -0.015165    -0.13827
-0.47119   -0.070058    0.064737     0.23689     0.87416     0.07773    -0.13567
-0.4673    -0.12592    0.051096     0.14529     0.88488     0.15958    -0.12885
-0.43579    -0.17659    0.024137    0.029658     0.92678     0.21382     -0.1217
-0.40721    -0.21655  0.00010078   -0.088572       1.031     0.23461    -0.11293
-0.40136    -0.24091   -0.013216    -0.18926      1.1993     0.22552    -0.10156
-0.42507    -0.24805    -0.01484    -0.26137      1.3789     0.19921   -0.089546
-0.4556    -0.23961  -0.0060706    -0.29775      1.4955     0.16803   -0.079802
-0.45398    -0.22272    0.010495    -0.30392      1.5062     0.14302   -0.079152
-0.39779    -0.20225    0.025761    -0.29288      1.4114      0.1245   -0.088572
-0.28411    -0.18569    0.032906    -0.27761      1.2483     0.11443    -0.10449
-0.13957    -0.17757    0.032257    -0.26299      1.0755     0.10664     -0.1178
-0.011592    -0.18374    0.027709    -0.25357     0.94529    0.098193    -0.12852
0.059541    -0.20648    0.021213     -0.2591     0.87188    0.080653    -0.13664
0.061489    -0.24318    0.016016    -0.30782     0.85305    0.054019    -0.14314
0.01829    -0.28053    0.011794    -0.42442     0.86441     0.02706    -0.14444
-0.030756    -0.29677    0.009845    -0.58975     0.87773     0.01017    -0.13275
-0.04992    -0.27728    0.009845    -0.74663     0.90307   0.0085458    -0.10286
-0.013216    -0.21557   0.0056225    -0.87201     0.96218    0.016666   -0.055766
0.077405     -0.1282  -0.0057458     -1.0292      1.0655    0.024137  -0.0041217
0.18914   -0.034329   -0.025234     -1.2826       1.197    0.020564    0.034206
0.26937     0.04395   -0.045372     -1.5586      1.2935  0.00075039    0.044599
0.27034    0.094295   -0.053492     -1.6876      1.2922   -0.025884    0.023162
0.17452     0.11638   -0.042124     -1.5694      1.1723   -0.042449    -0.01484
-0.0041217     0.11801  -0.0050961     -1.2251     0.95341   -0.042124   -0.047646
-0.21687     0.10631    0.051096    -0.74371     0.69616   -0.030106   -0.058365
-0.40526    0.097218     0.10956    -0.17984     0.46945    -0.01549   -0.046022
-0.51959     0.10242     0.15341     0.44346       0.334  -0.0054209   -0.019388
-0.53486     0.12807      0.1729      1.0674     0.32458   0.0072465    0.014068
-0.45333     0.16868     0.16218      1.5559     0.41813    0.030957    0.050121
-0.28898     0.20895     0.11963      1.7388     0.54155    0.062789    0.087149
-0.079152     0.22747    0.058891      1.5436     0.60489    0.087799     0.12125
0.12223     0.20765  -0.0031473      1.0648     0.54513    0.090722     0.14334
0.25897     0.14984   -0.053817     0.49446     0.35317    0.055318     0.14496
0.30477    0.073832   -0.086948   0.0085458    0.080003   -0.017764     0.12255
0.26547   0.0065969   -0.097341    -0.31139    -0.19803    -0.11001    0.083576
0.1742   -0.034329   -0.090196    -0.47964    -0.41176    -0.19283    0.041027
0.076755   -0.046996   -0.073631    -0.55435    -0.52934    -0.24415   0.0033489
0.011794   -0.037902   -0.059664     -0.5813    -0.55532    -0.25357   -0.019388
-0.0018481   -0.017114    -0.04862    -0.55142    -0.51277    -0.22434   -0.021337
0.037454   0.0091954   -0.028482    -0.39064    -0.43384    -0.16555  -0.0031473
0.12678    0.044275    0.018615   -0.055766    -0.35784   -0.089221    0.037778
0.25345    0.086175    0.094295     0.37493    -0.31529  -0.0089938    0.093645
0.39831     0.12743      0.1742     0.73774    -0.32016    0.064737     0.15503
0.53279     0.14951     0.22747     0.93555    -0.36433     0.12125      0.2109
0.62276     0.13327     0.23136     0.98557    -0.42637     0.15146     0.24663
0.63737    0.076431     0.19141     0.96965    -0.48971     0.14821      0.2515
0.58086   0.0072465     0.13197     0.96316    -0.55272     0.11541     0.22357
0.48504   -0.040175    0.074482      1.0002    -0.62061    0.059865     0.17485
0.39474   -0.048296    0.027709      1.0703    -0.68979  0.00042559     0.12093
0.3444   -0.022961  -0.0076946      1.1249    -0.74826   -0.047646    0.071234
0.3379    0.009845   -0.039851      1.0963    -0.77554   -0.080451    0.030633
0.3392    0.026085   -0.077528     0.94172    -0.74501   -0.098641  -0.0031473
0.29405    0.019589    -0.12235     0.67505    -0.62743    -0.10579   -0.035953
0.1703    0.014068    -0.16685     0.36031    -0.44034    -0.10741   -0.066485
-0.026533    0.042651    -0.20323    0.083576    -0.23798    -0.10091   -0.086298
-0.27599     0.12028    -0.22369   -0.097666   -0.084999   -0.088572   -0.086623
-0.55012     0.23234    -0.22532    -0.18796   -0.046996   -0.072331    -0.06616
-0.81192     0.35089    -0.20745     -0.2513    -0.18212   -0.059989   -0.033679
-1.0042     0.44281    -0.17205    -0.34452    -0.48646   -0.057065  0.00010078
-1.0614     0.49576    -0.11066    -0.46437    -0.87038   -0.064861    0.028359
-0.94282     0.50745   -0.019712    -0.56052     -1.1975   -0.079477    0.045574
-0.6664     0.47789    0.089748    -0.58715     -1.3501   -0.094418    0.048822
-0.30782     0.41456     0.18914    -0.54168     -1.2861    -0.10838    0.039078
0.037778     0.32751     0.24858    -0.45918     -1.0474    -0.11748     0.01829
0.28626     0.23364      0.2528    -0.38155    -0.73039    -0.11845  -0.0034721
0.39929     0.14626     0.21415    -0.33283    -0.43644    -0.10384   -0.020037
0.38727    0.072533     0.15568    -0.31918    -0.23246   -0.076879   -0.025559
0.2895    0.016341     0.10306    -0.32958    -0.13112   -0.050569   -0.026209
0.15016   -0.022636    0.072533    -0.34744   -0.087272   -0.038227   -0.031406
0.0033489   -0.043748    0.064737    -0.36044   -0.043748   -0.046671   -0.045697
-0.1269   -0.043423    0.070259    -0.37083    0.029983   -0.063886   -0.062587
-0.22597   -0.028807    0.072533    -0.38707      0.1206   -0.073631   -0.071357
-0.28378   -0.011267    0.059541    -0.41598     0.18329   -0.064861   -0.063561
-0.29612  -0.0080194    0.024137    -0.45885     0.19531   -0.029782   -0.036927
-0.26592    -0.03303   -0.034004    -0.51342     0.19174    0.022188 -0.00054884
-0.19706   -0.092469    -0.10806    -0.57546     0.24338    0.072858    0.039078
-0.091495    -0.17692    -0.18959    -0.63815     0.39831     0.10989    0.073832
0.031282    -0.26851    -0.27079    -0.70116      0.6325      0.1284     0.09462
0.14789     -0.3442    -0.34095    -0.77586     0.86344     0.13035    0.097543
0.24338    -0.38317    -0.38934    -0.88045      1.0018     0.11898    0.083901
0.31971    -0.37765    -0.40136     -1.0204     0.98427     0.10144    0.065387
0.37753    -0.33315    -0.37603     -1.1699     0.79685    0.081952    0.054993
0.4152    -0.26234    -0.32178     -1.2757      0.4714    0.064088    0.054993
0.42462    -0.17724    -0.25325     -1.2936    0.078055     0.05207    0.062789
0.40059   -0.089871    -0.18342     -1.2095    -0.31431    0.045574    0.070584
0.3379   -0.011267    -0.11878     -1.0318    -0.64627    0.038753    0.070909
0.23526    0.050771   -0.063886    -0.74923    -0.86973    0.029983    0.065387
0.097218    0.088124   -0.018738    -0.33575    -0.96977    0.023487    0.057592
-0.066485    0.091696    0.015692     0.19986    -0.96068    0.020888    0.045899
-0.23636    0.063763    0.038753     0.73676    -0.89474    0.016016     0.02706
-0.37862    0.023487    0.045574      1.0505    -0.81387   0.0046481   0.0017248
-0.45301   0.0052977    0.037454     0.95601    -0.71253   -0.013866   -0.027183
-0.43189    0.029333    0.024461     0.48439    -0.57968   -0.038227   -0.054792
-0.30229    0.091047    0.011469     -0.0837    -0.42247   -0.068109   -0.073631
-0.089221     0.16998   0.0043233    -0.41598     -0.2487   -0.097991   -0.077203
0.13587     0.23461   0.0039985    -0.35654   -0.041799    -0.12722   -0.069408
0.29048     0.25507   0.0072465    0.039727     0.21545    -0.15061   -0.056416
0.32783     0.21545    0.011469     0.57598     0.49641    -0.16425    -0.04927
0.26092     0.12548    0.013418      1.0405      0.7176    -0.16133   -0.050569
0.14269    0.016666    0.013743      1.3036     0.77282    -0.13924   -0.057065
0.039078   -0.073631     0.01829      1.3318     0.58086   -0.098965   -0.062587
-0.0067202    -0.12268    0.025761      1.1675     0.11443   -0.056416   -0.064536
0.013093    -0.12755    0.033231     0.89495    -0.54103   -0.021661    -0.06616
0.078379    -0.09994    0.034206      0.5997     -1.2027  -0.0028225    -0.06681
0.15861   -0.059664    0.028034      0.3444     -1.6889   0.0062721   -0.066485
0.21805   -0.026858    0.021213     0.16185     -1.8604    0.017316    -0.06551
0.23234  -0.0093186    0.020239    0.055968     -1.6545    0.042975   -0.063561
0.19986  -0.0063954    0.023487    0.013093     -1.1306      0.0852   -0.055766
0.13782   -0.010943    0.031607   0.0091954    -0.45918     0.13782   -0.039201
0.072533   -0.017439    0.041676    0.021863     0.17192     0.18751   -0.014191
0.024461   -0.023285    0.045574     0.03583     0.70006     0.21317    0.013418
0.0043233   -0.032055    0.039727    0.042651      1.1967     0.20018    0.040052
0.0078962   -0.043099    0.030308     0.04395      1.6881     0.15731    0.062464
0.025436    -0.05739    0.025111    0.045249      2.0581     0.10306    0.077405
0.040702   -0.072981     0.02706    0.049796      2.1438     0.05272    0.080003
0.041676   -0.089546    0.031932    0.056942       1.883   0.0095202     0.06961
0.023162    -0.10644     0.03518    0.059865      1.3714   -0.024909    0.050446
-0.0041217     -0.1191    0.038428    0.056292     0.77639   -0.055766     0.02706
-0.028482    -0.12527    0.042001    0.042651     0.20895   -0.079152   0.0033489
-0.042774    -0.12073    0.046873    0.009845    -0.33283   -0.086623    -0.01549
-0.040825    -0.10806    0.046873   -0.050244    -0.89929   -0.072981   -0.024585
-0.022961   -0.088572    0.039727     -0.1321     -1.5288   -0.039851   -0.024909
-0.0015233   -0.062587    0.028034    -0.21395     -2.2404  -0.0054209   -0.023285
0.0026992   -0.032705    0.013418    -0.26332     -2.9615    0.010495   -0.025884
-0.028157  -0.0076946    0.003024    -0.24838     -3.4649  -0.0076946   -0.036927
-0.10059 -0.00087364  -0.0060706    -0.16263     -3.4971   -0.064536   -0.052518
-0.20583   -0.023935   -0.019712   -0.030756      -2.918    -0.15483   -0.069408
-0.32308   -0.072981    -0.03238    0.098842     -1.7834    -0.25877   -0.086298
-0.43482    -0.13534   -0.026209     0.18492    -0.32016    -0.35686    -0.10026
-0.51374    -0.19348    0.013418     0.21675      1.1217    -0.42865    -0.10611
-0.52934     -0.2435    0.088124     0.22162      2.2325    -0.45366   -0.098965
-0.45398    -0.28995     0.17712     0.23104       2.925     -0.4163   -0.073631
-0.28021    -0.33705      0.2476     0.25735      3.2274    -0.32828   -0.039201
-0.041799    -0.38447     0.27456     0.28593      3.2011    -0.22921   -0.013216
0.2174    -0.42865     0.24598     0.29373      2.8876    -0.16295    -0.01484
0.45061    -0.46275       0.169     0.26352      2.3504    -0.15581    -0.04992
0.61139    -0.49945    0.057917     0.19044      1.7063     -0.2029    -0.10968
0.66206     -0.5433   -0.062587    0.090397      1.0765    -0.26981    -0.17497
0.59515    -0.57643    -0.16458    -0.01614     0.53798    -0.31496    -0.22272
0.42495    -0.55207    -0.23571    -0.11358     0.15731    -0.31171    -0.24091
0.18654    -0.41923    -0.26754    -0.19121    0.037778    -0.26137    -0.23311
-0.048945    -0.15646    -0.26039    -0.23961     0.25215    -0.18244    -0.20778
-0.19543     0.21772    -0.22402    -0.25292     0.71533   -0.087272     -0.1649
-0.21687     0.64225     -0.1714    -0.23344      1.1691    0.015367    -0.10546
-0.14639      1.0271    -0.11163    -0.19446      1.2945     0.11638    -0.03238
-0.045047      1.2893   -0.051219    -0.15321     0.89462     0.20083    0.041027
0.038103      1.3773   0.0017248    -0.12073    0.048822     0.25832    0.095919
0.088124       1.288    0.039402   -0.096692    -0.96718     0.28918      0.1258
0.11931      1.0567    0.058241   -0.076554     -1.9283     0.30022     0.13587
0.15406     0.74001     0.05272   -0.061613     -2.7513     0.29633      0.1349
0.21837     0.40806    0.024786   -0.056416      -3.324     0.27749     0.12775
0.31516     0.12548   -0.018738   -0.060313     -3.4766     0.24143     0.11378
0.41228   -0.061937   -0.068758   -0.065835     -3.1099     0.18979    0.088448
0.44963    -0.14509    -0.11293   -0.059339     -2.2697     0.13457    0.053044
0.35771    -0.14152    -0.13567   -0.025884     -1.1611    0.090072    0.025111
0.10047   -0.079477    -0.13047    0.024461   -0.090196    0.068635    0.018615
-0.27858   0.0095202    -0.10124    0.070259     0.63867    0.065387    0.037129
-0.66705     0.10404   -0.059014    0.086175      0.8813     0.06084     0.06896
-0.94704     0.18394    -0.01614    0.059541     0.71533    0.037778     0.10047
-1.0526     0.23624    0.012443  -0.0041217     0.36648  -0.0031473     0.12158
-0.99284     0.25832    0.023487   -0.077528    0.092671   -0.037577     0.13197
-0.82523       0.258    0.020239    -0.13307    0.025111   -0.036602     0.13684
-0.61281     0.24013    0.014068    -0.14899     0.12093   0.0020496     0.13522
-0.40428     0.20505    0.012768    -0.10903      0.2619    0.053369     0.12515
-0.23051     0.15114    0.021213   -0.017439     0.35284    0.081952     0.10469
-0.10026    0.073832    0.040377      0.0865     0.34732    0.066362    0.076755
-0.008669   -0.022311    0.063113     0.15796     0.27424    0.013418    0.047847
0.053369    -0.12333    0.084226     0.18134     0.20311    -0.04862    0.027385
0.094945     -0.2107     0.10014     0.17939     0.16868   -0.089871    0.017316
0.11995    -0.27436     0.10436     0.17582     0.16121   -0.097017    0.015042
0.11768    -0.31042    0.099817     0.17745     0.13782   -0.073955    0.013743
0.069934    -0.32211    0.087474     0.17095    0.063763   -0.039201   0.0075714
-0.027508    -0.30262    0.067011     0.14172   -0.052193   -0.008669  -0.0037969
-0.15613    -0.23896    0.040702    0.082277    -0.13534    0.009845   -0.016464
-0.28508    -0.13015    0.016666  0.00010078   -0.086298    0.019264   -0.024909
-0.38447   0.0056225  -0.0018481   -0.078178     0.15146    0.028359   -0.023935
-0.43709     0.13327  -0.0096434     -0.1178     0.55032    0.040702   -0.017114
-0.42832     0.22032 -0.00054884   -0.093119     0.99856    0.055968  -0.0076946
-0.35361      0.2528    0.026735  -0.0067202      1.3614    0.063763  0.00010078
-0.2107     0.23689    0.062464     0.10436      1.5403    0.061814   0.0043233
-0.0041217     0.18881    0.088773     0.19076      1.5059    0.058891   0.0085458
0.25053       0.131    0.092021     0.21447      1.2886    0.067011    0.023812
0.52337    0.080978    0.063438     0.16575     0.94821     0.09462    0.054019
0.76957    0.045574   0.0010752    0.062464     0.56104     0.14464    0.096569
0.94691    0.020888   -0.084999   -0.060963     0.19596     0.21123     0.14204
1.0275  0.00075039     -0.1714    -0.16653    -0.11228     0.27229     0.17745
1.0141   -0.018738    -0.23214    -0.21947    -0.34972     0.30185     0.19239
0.93555   -0.044073     -0.2461    -0.21427    -0.51992     0.28593     0.18557
0.83713   -0.076554     -0.2159    -0.18114    -0.62938     0.23656     0.16348
0.75073    -0.11326    -0.15288     -0.1597    -0.66738     0.16998       0.131
0.6731    -0.14931   -0.081101    -0.17724    -0.63197     0.10794    0.093321
0.59255    -0.18309   -0.027833    -0.23571     -0.5472    0.061489    0.053369
0.49608    -0.21135   -0.010293    -0.32308    -0.44976    0.029658    0.016341
0.37233    -0.23246   -0.025234    -0.41825    -0.35784    0.013093    -0.01614
0.21447    -0.24318    -0.04862    -0.47769    -0.26787    0.012119   -0.041475
0.031607    -0.24545   -0.042774    -0.44651    -0.16425    0.025761   -0.058365
-0.16295    -0.24026    0.008221    -0.27046   -0.037252    0.049147   -0.065835
-0.36791    -0.22921    0.092346    0.082927     0.11021    0.073832   -0.065835
-0.59202    -0.21655     0.18524     0.58605     0.25995    0.091372   -0.060313
-0.82134    -0.21752     0.25637      1.1048     0.39052     0.10014   -0.050244
-1.0247    -0.25292     0.28008      1.4601     0.49153    0.095919   -0.040175
-1.164     -0.3299     0.25378      1.5459     0.58573    0.075131   -0.038551
-1.2144    -0.43222     0.19401      1.3734     0.70266    0.044924   -0.047646
-1.1741    -0.52349     0.12093      1.0343      0.8394    0.014717   -0.068758
-1.0623    -0.58195    0.046223     0.63413     0.94334   -0.014516    -0.10026
-0.90871    -0.60469   -0.026533     0.24078     0.93327   -0.050569     -0.1334
-0.73007    -0.59267   -0.095393    -0.12982      0.7556    -0.09929      -0.161
-0.54038    -0.55272    -0.16035     -0.4582     0.43762    -0.15451    -0.17367
-0.34582    -0.49426    -0.21232    -0.65309    0.076755    -0.19641    -0.16685
-0.14444     -0.4163    -0.23603     -0.6258    -0.21232     -0.2055    -0.13924
0.033231    -0.30294    -0.21037    -0.41468    -0.36271    -0.17497    -0.10026
0.13165    -0.14022     -0.1282    -0.15191    -0.36856    -0.11813   -0.059989
0.10339    0.061165   -0.010293    0.065062    -0.23831   -0.051868   -0.034329
-0.04115     0.27067     0.10989     0.23721    0.025436   0.0046481   -0.028157
-0.22629     0.45386     0.20116     0.39247     0.38467    0.042001    -0.03238
-0.34939     0.57274     0.24566     0.51037     0.72897    0.058566   -0.034978
-0.3364     0.59093     0.24111     0.51654     0.91996    0.054344   -0.028482
-0.16718     0.49901     0.19011     0.34732     0.87448    0.030957   -0.013541
0.12158     0.33465     0.11573    0.055643     0.61464 -0.00022403    0.013093
0.45905     0.16738    0.042326     -0.2159     0.26677   -0.023935    0.042651
0.78256    0.064088  -0.0089938    -0.33088  -0.0063954   -0.032705     0.06084
1.0616    0.052395   -0.035628    -0.22597    -0.10611   -0.030431     0.06084
1.2652    0.099167    -0.04992    0.047523   -0.036927   -0.028157    0.046223
1.3526     0.14269   -0.062262     0.33952     0.13327   -0.037252    0.027385
1.2961     0.13879    -0.07493     0.48926     0.31614   -0.064861   0.0085458
1.1148    0.083576   -0.080127     0.43145     0.43469    -0.10286   -0.011267
0.87058    0.014392   -0.066485     0.22357     0.44346    -0.14087   -0.031406
0.62958   -0.034004   -0.035303  -0.0099683     0.34472    -0.16912    -0.04992
0.43242   -0.048296  0.00010078    -0.16068     0.18069    -0.18342   -0.064536
0.2934   -0.037577    0.027709    -0.18601   0.0020496    -0.18017   -0.073631
0.19758   -0.021337    0.035505    -0.10871    -0.16165    -0.16718   -0.073631
0.11898    -0.01614     0.01764    0.012768    -0.30749    -0.15029    -0.06681
0.048497   -0.022961   -0.021337     0.11866    -0.46925    -0.13469   -0.053817
-0.00022403   -0.034654   -0.063886     0.17355    -0.70311    -0.11975   -0.034654
-0.010293    -0.04115   -0.089221     0.17062     -1.0377    -0.10741   -0.010943
0.022188   -0.039851   -0.087272      0.1232     -1.4187    -0.10384    0.009845
0.074482   -0.038551   -0.061613    0.046873     -1.7308    -0.11033    0.024137
0.10112   -0.051219   -0.031406   -0.037902     -1.8757    -0.12105    0.031282
0.056292   -0.087272   -0.020362    -0.11391     -1.8133     -0.1295    0.034855
-0.087272    -0.14022   -0.037252    -0.17822     -1.5661     -0.1282    0.033231
-0.32308    -0.19283    -0.07428    -0.23636     -1.2082    -0.11553    0.024137
-0.60696    -0.22597    -0.11586    -0.29255    -0.83498   -0.096692   0.0065969
-0.86129    -0.22109    -0.14606    -0.34095    -0.53096   -0.080776   -0.011917
-1.0052    -0.16588    -0.15483    -0.37538    -0.34712   -0.075904   -0.025884
-0.98764   -0.059014    -0.13599    -0.38934    -0.29612   -0.083375   -0.028157
-0.80672    0.072858   -0.095068    -0.38025    -0.34777   -0.098965   -0.019063
-0.50855     0.18492   -0.045372    -0.35232     -0.4137    -0.11813  -0.0057458
-0.15711     0.23883   0.0017248    -0.32795    -0.40104    -0.13664   0.0026992
0.18946     0.22812    0.039402    -0.35881    -0.27956    -0.14671   0.0072465
0.46295      0.1677    0.057267    -0.52674   -0.084674    -0.14087    0.010495
0.61951    0.080003    0.053694    -0.88078     0.11346    -0.11748    0.015042
0.67797   -0.010293    0.033881     -1.3696      0.2489   -0.081426    0.017965
0.68155   -0.088247   0.0078962     -1.8757     0.29438   -0.043748     0.01894
0.65102     -0.1623   -0.024585     -2.2781     0.27164    -0.01614    0.014392
0.57696    -0.24123   -0.061613     -2.4723     0.22941 -0.00087364   0.0036737
0.4623    -0.32178   -0.093119      -2.359     0.20538    0.011794   -0.012242
0.3314     -0.3809    -0.10059     -1.8468     0.22259    0.029333   -0.029457
0.2174    -0.38577   -0.067459    -0.88825     0.30022    0.056292   -0.047321
0.15341    -0.31626   0.0036737     0.43274     0.46555    0.089098   -0.062587
0.17192    -0.17724      0.0865      1.7723     0.70331     0.11671   -0.069733
0.28203  -0.0047713     0.15179      2.7184     0.94269      0.1297   -0.066485
0.44249     0.14561      0.1677      2.9708      1.0947     0.11931   -0.060638
0.57793     0.23689     0.12158      2.4888      1.0983      0.0865   -0.064861
0.61074     0.27132    0.022512       1.514     0.94367    0.041027   -0.089546
0.48991     0.29243   -0.096042     0.41163     0.67018  0.00075039    -0.12398
0.20408     0.34959    -0.18959    -0.47444     0.34472    -0.01614    -0.14541
-0.20843     0.46847    -0.23279    -0.95386    0.031282   0.0065969    -0.12755
-0.66283      0.6325     -0.2172     -1.0273    -0.23019     0.06896   -0.065186
-1.0503     0.79685    -0.14964    -0.74306    -0.41013     0.15341    0.028359
-1.2858     0.90761   -0.045372    -0.23084    -0.49783     0.23396     0.13165
-1.33      0.9271    0.067011     0.26969     -0.5446     0.28333     0.22422
-1.1841     0.84428     0.16153     0.56689    -0.64139     0.28138     0.28756
-0.86259      0.6796     0.22259     0.67667    -0.84277     0.21805     0.31062
-0.40916     0.47042      0.2554     0.73059     -1.0864     0.10696     0.30022
0.079029     0.25832     0.26872     0.80855     -1.2264   -0.017764     0.26872
0.47335    0.073832     0.27002     0.91249     -1.1289    -0.11715     0.22812
0.67895    -0.06681      0.2528      1.0177    -0.69499     -0.1688     0.18167
0.65978    -0.15126     0.21058      1.0941    0.089098    -0.16847     0.12905
0.45288    -0.16718     0.15179      1.1109      1.0577    -0.13307    0.073832
0.13879    -0.11521    0.090397      1.0479      1.9139    -0.09182    0.023162
-0.18212    -0.01549    0.040052     0.90664      2.4043   -0.076554   -0.019063
-0.42312    0.092021    0.011469     0.70526      2.4872    -0.10579   -0.052843
-0.54168     0.16965  -0.0028225     0.45678      2.3124    -0.17627   -0.082725
-0.54428     0.19791   -0.013866     0.17225      1.9973    -0.27631    -0.10709
-0.46405     0.17842   -0.028482      -0.123      1.4806    -0.39389    -0.12657
-0.33737      0.1258   -0.046996    -0.39714     0.57079    -0.50985    -0.14152
-0.20323    0.057267   -0.061937     -0.6232     -0.8457    -0.59137    -0.15353
-0.094093  -0.0080194   -0.066485    -0.77814     -2.5282    -0.60761    -0.16133
-0.028157    -0.05739   -0.063237    -0.85219     -3.9843    -0.54687    -0.16425
-0.013216   -0.088896   -0.056741    -0.83823     -4.7281     -0.4202    -0.16068
-0.060638    -0.10481   -0.051868    -0.72682     -4.5469    -0.25975    -0.15288
-0.17757    -0.10676   -0.039851    -0.51992     -3.6235    -0.10221    -0.14281
-0.35069   -0.093444   -0.018738     -0.2539     -2.4324    0.025761    -0.12852
-0.53811   -0.072331   0.0069217   0.0065969       -1.47     0.11118    -0.11033
-0.67745   -0.056741    0.024461     0.18719    -0.99446     0.15016   -0.094093
-0.72   -0.061288    0.025761     0.21577    -0.90904     0.14399   -0.090521
-0.65796   -0.088247   0.0069217    0.033231    -0.90611     0.10599    -0.10546
-0.52479    -0.13372   -0.028807    -0.36238    -0.71318     0.05207    -0.13469
-0.37668    -0.18959   -0.081751      -0.885    -0.25455    0.003024    -0.16815
-0.25422    -0.24935    -0.14411     -1.4235     0.35544   -0.024585    -0.18894
-0.16133    -0.30554     -0.2042     -1.8643     0.93197   -0.021337    -0.18666
-0.085973    -0.34322    -0.24513     -2.0345      1.3344    0.014717    -0.15483
-0.017114    -0.34939    -0.24675     -1.6996      1.5121    0.080328   -0.097666
0.048822    -0.32113     -0.2029    -0.75085      1.5092     0.16445   -0.027183
0.11216    -0.27371    -0.13437     0.54318      1.4345      0.2489    0.042651
0.16478    -0.22791   -0.078827      1.5592      1.3828     0.31971     0.10404
0.20018    -0.20713   -0.064536      1.8778       1.361     0.37103     0.14919
0.21967    -0.22174    -0.10124      1.4887       1.298     0.39831      0.1742
0.23591    -0.26819    -0.17822      0.7124      1.1278     0.39604     0.17874
0.26514    -0.31983    -0.27209   -0.057065     0.83193     0.35739     0.16965
0.32686    -0.33965    -0.34679    -0.56441     0.40643     0.29243     0.15763
0.42138     -0.2919    -0.37018    -0.77099    -0.13534     0.21935     0.14821
0.5068    -0.18017     -0.3325    -0.75573    -0.72195     0.14821     0.14302
0.51914   -0.042449    -0.25292    -0.60696     -1.2296    0.079354     0.13587
0.42885    0.073832    -0.16035     -0.3822     -1.5265   0.0069217      0.1206
0.26482     0.14561   -0.072331    -0.12073     -1.5681   -0.069733    0.093321
0.091372     0.17127    0.003024     0.13457      -1.368    -0.14249    0.056292
-0.035953     0.16575    0.066686     0.34017    -0.99154    -0.19283    0.020239
-0.097017     0.14854     0.11866       0.461    -0.55727    -0.20225   0.0026992
-0.10514      0.1284     0.15796     0.47627    -0.20648    -0.16198    0.010495
-0.079802     0.10404     0.18167     0.38857   -0.043099   -0.080776    0.041027
-0.034654    0.069285     0.18719     0.23331   -0.073306    0.015692    0.081952
0.018615    0.022512     0.17452    0.061165    -0.20908    0.099492     0.11411
0.067661   -0.030106     0.14691   -0.096367     -0.3364     0.14886     0.11963
0.097218    -0.07493     0.11476    -0.23571    -0.38122     0.15861    0.099167
0.10079   -0.095717    0.094945    -0.36433     -0.3312     0.14204    0.059865
0.081303   -0.083375    0.097868     -0.4608    -0.21752     0.10859    0.013743
0.039078   -0.046022     0.11736    -0.45301   -0.069408    0.070909   -0.025884
-0.030106  -0.0021729     0.14626    -0.28768    0.095269    0.041027   -0.052193
-0.1217    0.029333     0.17127  -0.0024977     0.26287    0.023812   -0.063561
-0.21752    0.042975     0.18427     0.29275     0.43404     0.01829   -0.060313
-0.28118    0.045899     0.18362     0.50258     0.65361     0.01894   -0.044398
-0.26624    0.045574       0.169     0.60099     0.99076    0.020888    -0.02426
-0.14346      0.0433     0.13977     0.61041      1.4777    0.017965   -0.012567
0.080653    0.028034     0.09397     0.57598      2.0678   0.0056225   -0.010618
0.36161   -0.014516    0.030957     0.52856      2.6307    -0.01614   -0.021661
0.63965   -0.088247   -0.044398     0.45483      3.0062   -0.039851   -0.042124
0.85759    -0.17724    -0.11813     0.31354      3.0848   -0.055766   -0.067459
0.95731    -0.25552    -0.17335    0.083576       2.862   -0.054142   -0.088896
0.89365     -0.2945    -0.19446    -0.19024      2.4323    -0.03303   -0.097017
0.65491    -0.27274    -0.17919    -0.42052      1.9236   0.0023744   -0.090845
0.26644    -0.19316    -0.13469    -0.54038      1.4416      0.0433   -0.073631
-0.20778   -0.084674   -0.079802    -0.53128      1.0548    0.078379   -0.054142
-0.6768    0.016991   -0.031406    -0.39324     0.78776     0.10566   -0.038227
-1.0461    0.080003   0.0095202    -0.10774     0.62763     0.13327    -0.02426
-1.2316    0.083576    0.047523     0.32848     0.52921     0.16835  -0.0063954
-1.1929    0.037129    0.082277     0.83128     0.43469     0.20635    0.016991
-0.96198   -0.039526     0.11021      1.2389     0.29827     0.23883    0.037454
-0.61963    -0.12235      0.1245      1.3487    0.093645     0.25118    0.045899
-0.26169    -0.19283     0.11411      1.0262    -0.14931     0.23104    0.041351
0.060515    -0.23863    0.083576     0.32978    -0.35816     0.18102    0.033881
0.33368     -0.2487    0.039402    -0.45593    -0.47899     0.11443    0.032257
0.55747    -0.21914  -0.0060706    -0.99316    -0.49036    0.050446    0.041351
0.7176    -0.15613   -0.038551     -1.1202     -0.4267   0.0020496    0.056942
0.79003   -0.070058   -0.050244    -0.87493    -0.37408   -0.027833    0.068635
0.75755    0.020564   -0.045047     -0.4254    -0.42702   -0.042124    0.068635
0.62016    0.098517   -0.029132    0.029983    -0.62613   -0.048945     0.05272
0.41293     0.15211  -0.0096434     0.35089    -0.91683   -0.061288    0.025761
0.20473     0.17939    0.012119     0.49186     -1.1936   -0.088896   0.0056225
0.060515     0.19011    0.031282     0.48309     -1.3638    -0.12982   0.0062721
0.0072465     0.19921    0.044275     0.38045     -1.3833    -0.17172    0.031607
0.025436     0.21512    0.046873     0.24046     -1.2777    -0.19966    0.067986
0.076755     0.23948    0.038103     0.10144       -1.09    -0.20648    0.095919
0.12353     0.26222    0.022512   -0.010943    -0.85869    -0.19608     0.10014
0.14951     0.27099   0.0059473    -0.08305    -0.62905    -0.17789    0.079029
0.15893     0.25313  -0.0057458    -0.11651    -0.44489    -0.16133    0.042975
0.16121      0.2057  -0.0096434    -0.13437    -0.32276    -0.15256   0.0085458
0.16023     0.14626  -0.0050961    -0.16458     -0.2578    -0.15548    -0.01549
0.14756     0.11346    0.008221     -0.2068    -0.23538    -0.16945   -0.025559
0.11963     0.12937    0.029009    -0.22142    -0.23538    -0.18471   -0.024909
0.083251     0.18394     0.06019     -0.1597    -0.21979    -0.19283   -0.014191
0.056292     0.25085    0.096893   -0.010293     -0.1334    -0.19024  0.00010078
0.046873      0.2986     0.12353     0.17192    0.064088    -0.18049    0.014717
0.056292     0.30769     0.12483     0.29762     0.36356    -0.17237    0.020564
0.094945     0.27879    0.099817     0.31939     0.71338    -0.16523    0.016991
0.17095     0.22617    0.072533     0.25378      1.0294    -0.15451    0.010819
0.26514     0.16478    0.070584     0.16315      1.2327    -0.13534    0.010495
0.33368     0.10371     0.10177    0.089748      1.2717    -0.11001    0.014717
0.33693      0.0433     0.14886    0.029009      1.1467   -0.079477    0.015042
0.2554   -0.015165     0.18427   -0.056416     0.88325    -0.04927  0.00075039
0.10339   -0.066485     0.18654    -0.19998     0.50128   -0.028157   -0.031406
-0.080451    -0.10644     0.14724    -0.40266    0.041027   -0.021012   -0.075904
-0.25812    -0.13112    0.074157      -0.631    -0.43254   -0.028807    -0.12268
-0.40558    -0.14054   -0.010293    -0.81582    -0.80834   -0.044073    -0.15191
-0.50757    -0.13632   -0.086298    -0.89702    -0.99121   -0.061613    -0.15613
-0.55207    -0.12138    -0.14119    -0.84342    -0.94834   -0.076879    -0.14444
-0.53746    -0.10059     -0.1701    -0.64821    -0.72584   -0.087922    -0.12852
-0.47087   -0.075579    -0.17822    -0.35946    -0.42052   -0.088247    -0.11715
-0.36433   -0.039201    -0.18309   -0.089546    -0.14671    -0.07428    -0.10741
-0.22726    0.014068    -0.19576     0.04395   0.0039985    -0.04927   -0.092145
-0.073306    0.081303    -0.21492   0.0072465   -0.010293   -0.019063   -0.065186
0.073507     0.14496    -0.22369    -0.12787    -0.17562    0.011144   -0.026533
0.18557     0.18881    -0.20745    -0.24415    -0.43092    0.029009    0.013093
0.2554     0.20051     -0.1688    -0.26462    -0.71025     0.02641    0.042001
0.30055     0.17322      -0.123    -0.14444    -0.96425   0.0088706    0.059216
0.35609     0.11054   -0.073631     0.15926     -1.1653   -0.012892    0.072533
0.44704    0.033881   -0.013541     0.63153     -1.2956    -0.02426    0.091372
0.57176    -0.02361    0.066686      1.1428     -1.3345   -0.018088     0.11866
0.67992   -0.047646     0.15373      1.5134     -1.2754  -0.0011985     0.14042
0.69584   -0.050894      0.2148      1.6225     -1.1241    0.012443     0.13717
0.5552   -0.069083     0.22389      1.4647    -0.90546    0.015367     0.10339
0.2541     -0.1269     0.17485      1.1405    -0.65698    0.009845    0.051096
-0.13112    -0.22304    0.087149     0.77996    -0.43287 -0.00054884  0.00010078
-0.48841    -0.33218   -0.010943     0.48309    -0.27404  -0.0067202   -0.027833
-0.73689    -0.41728   -0.087922     0.28885    -0.18796 -0.00022403   -0.022311
-0.86226    -0.44456    -0.13372     0.18199     -0.1334    0.019914   0.0043233
-0.90124    -0.39584    -0.14444      0.1258   -0.063886    0.045899    0.032906
-0.90546    -0.27631    -0.12495    0.087474    0.047198     0.06831    0.047198
-0.89215    -0.11228   -0.088896    0.050446     0.20213    0.082602    0.044599
-0.85122    0.058241   -0.051219    0.008221     0.36291    0.089748    0.036804
-0.76644     0.20083    -0.02426     -0.0405     0.45516    0.090072    0.032257
-0.64237     0.29373   -0.011267   -0.092794     0.41553    0.083901    0.031607
-0.50368     0.32848   -0.011267    -0.13924      0.2122    0.068635    0.032257
-0.3809     0.31159   -0.017439    -0.17627    -0.11521    0.042651    0.028359
-0.29093     0.26027   -0.024585    -0.20355    -0.46665   0.0059473    0.014717
-0.23246     0.19856   -0.029132    -0.22921    -0.72617   -0.038876   -0.012567
-0.18894     0.14139   -0.031406    -0.25033    -0.81354   -0.086298   -0.050569
-0.14671     0.10014   -0.027833    -0.26429    -0.71123    -0.12722   -0.086948
-0.10351    0.079354    -0.01549    -0.26689    -0.45885    -0.15158    -0.11098
-0.070707    0.079029   0.0078962    -0.25227     -0.1269    -0.14964    -0.11683
-0.068758    0.089748    0.038753    -0.22304     0.20181    -0.12203    -0.11033
-0.10026    0.097218    0.076106    -0.18439      0.4584   -0.078503    -0.10254
-0.14769    0.090072     0.11703    -0.14346     0.59937   -0.038551    -0.10026
-0.18991    0.058566     0.14821    -0.11261     0.60359   -0.019063    -0.10026
-0.20778  -0.0018481     0.16088    -0.10546     0.47464   -0.024909   -0.097991
-0.19316   -0.095393     0.15244    -0.12333     0.23201    -0.04862   -0.093444
-0.13112    -0.21557     0.13132    -0.15776   -0.064536   -0.078827   -0.087922
-0.0021729    -0.34744    0.098193     -0.2081    -0.31983    -0.10189   -0.076229
0.19726    -0.46957     0.05207    -0.29482    -0.44066    -0.10449   -0.057715
0.4217    -0.55889   -0.010943    -0.46567    -0.39487   -0.081426   -0.036278
0.59937    -0.59592   -0.089871    -0.74176    -0.22694   -0.034654   -0.019388
0.66693    -0.57546    -0.17757     -1.0685    -0.03238    0.025436  -0.0093186
0.5984    -0.50335     -0.2487     -1.3163    0.086824    0.080003  -0.0028225
0.42365    -0.39389    -0.27793     -1.3586     0.10794     0.10729   0.0010752
0.20928    -0.26754    -0.26332     -1.1799    0.076431    0.095269   0.0091954
0.027709    -0.14476    -0.22272    -0.90481    0.020888    0.041676    0.019914
-0.0824   -0.035628    -0.17757    -0.69759   -0.080451   -0.038227    0.028359
-0.11618    0.056292    -0.13827    -0.59722    -0.22921    -0.11943    0.030957
-0.075579     0.13522   -0.096692     -0.4543    -0.37798    -0.17302    0.029333
0.040702     0.19953   -0.043748   -0.070058    -0.44586    -0.17919     0.03518
0.22747     0.24241    0.018615     0.57404    -0.38415    -0.13145    0.055968
0.43534     0.24955     0.06831      1.2422    -0.19381   -0.045372    0.080328
0.5984     0.21837    0.081952      1.6008    0.090397    0.045249    0.090072
0.66433     0.16315    0.048497      1.4052     0.41228     0.10534     0.06831
0.62698     0.11703   -0.028157     0.63835      0.6848     0.12288    0.020888
0.51979     0.10956     -0.1243    -0.43287     0.83518     0.10761   -0.035628
0.38727     0.14789    -0.21427     -1.3914     0.85727     0.07773   -0.086623
0.25865      0.2122    -0.27501     -1.9799     0.81309    0.050771     -0.1204
0.15731     0.27424    -0.28573     -2.1306     0.78451    0.036479    -0.13404
0.10177     0.32426    -0.23603     -1.8812     0.82121    0.034206    -0.13015
0.094945     0.38142    -0.13112      -1.255     0.92775    0.039078    -0.11651
0.11995      0.4636    0.010819    -0.26494      1.0759    0.040052   -0.097991
0.13944      0.5565     0.15568     0.98362      1.1837    0.025436   -0.077203
0.13262     0.61951     0.26384      2.2273      1.1554  -0.0073698   -0.052843
0.097543     0.60587     0.30315      3.1478     0.97128   -0.044073   -0.025559
0.024137     0.48471     0.26092      3.4453     0.71857   -0.070382  0.00010078
-0.096042     0.26352     0.15406      3.0205     0.51427   -0.073955    0.012443
-0.24448 -0.00022403    0.023487      2.0922     0.41975   -0.056416   0.0056225
-0.37668    -0.22272   -0.084999       1.072     0.42073   -0.029132   -0.016789
-0.44326    -0.34777    -0.14639      0.3353     0.46587   -0.012892   -0.038876
-0.42605    -0.37343    -0.16035    0.054993     0.49218   -0.018413    -0.04927
-0.36303     -0.3416    -0.14574     0.16218     0.46133    -0.04115   -0.045047
-0.31594    -0.30035    -0.12755     0.45353      0.3759   -0.062587   -0.032705
-0.33413    -0.27436    -0.11651     0.71987     0.28366   -0.063886   -0.016464
-0.42767    -0.25422    -0.10806     0.82966     0.24371     -0.0405    0.003024
-0.57253    -0.21655    -0.09117     0.74456     0.29925      0.0014    0.025111
-0.7213    -0.15646   -0.064536     0.50745     0.44639    0.046223    0.044599
-0.82848   -0.095068    -0.03173     0.18557     0.63088    0.083576    0.053694
-0.85642   -0.054792  -0.0028225    -0.16815     0.74488     0.11443    0.053694
-0.78074   -0.035953   0.0085458    -0.52122     0.65849     0.14334    0.053694
-0.59884   -0.026858  -0.0021729    -0.81614      0.2502     0.17355    0.061489
-0.34452   -0.017114   -0.034004    -0.97465    -0.49685     0.20083    0.077405
-0.069733  -0.0073698   -0.079477    -0.96523     -1.3888     0.21935    0.095919
0.17842  -0.0015233    -0.12755    -0.80445     -2.1128     0.22941     0.11638
0.36973  -0.0060706    -0.16165     -0.5394      -2.433     0.22974     0.13457
0.49673   -0.027183    -0.16523    -0.21427     -2.2843     0.21415     0.14464
0.56364   -0.064536    -0.13437     0.14042     -1.7591     0.17907     0.14009
0.57533    -0.11066   -0.073955     0.48406     -1.0247     0.12872     0.11801
0.53279    -0.15029    0.010495     0.75203    -0.26592     0.06961    0.087149
0.45581    -0.16458     0.11671     0.87741     0.37103    0.013418    0.056292
0.37298    -0.14119     0.23656     0.84135     0.80952   -0.027833    0.039727
0.31386   -0.092794     0.34635     0.67343       1.009   -0.046671    0.040702
0.28691   -0.043423     0.41098     0.42397     0.91703    -0.04992    0.055968
0.28431    -0.01614     0.40741     0.15049     0.52304   -0.046022    0.072858
0.29535   -0.019712     0.33725   -0.097341    -0.06551     -0.0405    0.083251
0.30542   -0.046347     0.22682    -0.29093    -0.61573   -0.028482    0.084876
0.30639   -0.079477     0.10956    -0.42345    -0.91586  -0.0037969    0.083251
0.29405    -0.10319    0.015367    -0.50205    -0.90319    0.026735    0.081952
0.27261    -0.11163    -0.04115    -0.53973    -0.67712    0.046873    0.078704
0.24923    -0.10481   -0.054467    -0.55045    -0.39811    0.041351    0.067661
0.23364   -0.087922   -0.034654    -0.55012    -0.20193    0.011469    0.050446
0.22877    -0.06616      0.0014    -0.54915    -0.14346   -0.028482    0.028359
0.23071   -0.045047    0.041027    -0.54915    -0.17757   -0.061613   0.0075714
0.23331   -0.026209    0.075781    -0.53811    -0.21655    -0.07493  -0.0083442
0.23396  -0.0093186    0.098517    -0.50335    -0.20063   -0.068109   -0.014516
0.22682   0.0039985     0.10826    -0.43839     -0.1217   -0.051219   -0.012242
0.2096    0.014392     0.10924    -0.35361   -0.010293   -0.035303  -0.0054209
0.18167    0.020239     0.10177    -0.27079    0.097868   -0.028807 -0.00022403
0.13977     0.01764    0.092346    -0.21167     0.18167   -0.030431   0.0059473
0.087474   0.0020496    0.080328    -0.19089     0.23883   -0.034654    0.011144
0.031282    -0.03303     0.06019    -0.20388     0.27619   -0.036602    0.015042
-0.021012   -0.094093    0.030957    -0.23928      0.2921   -0.032055    0.015367
-0.06681    -0.17757   -0.007045    -0.28313     0.27749   -0.026209    0.008221
-0.10968    -0.26689   -0.042124    -0.31594     0.22032   -0.022636  -0.0060706
-0.15093    -0.33413   -0.060638    -0.32341     0.13392   -0.021012    -0.02426
-0.18796    -0.35037   -0.056091    -0.30944    0.057917    -0.02426   -0.044073
-0.21979    -0.30165   -0.032055    -0.28735    0.039078    -0.03238   -0.059989
-0.24123    -0.19998   0.0020496    -0.26851     0.10989    -0.04927   -0.070058
-0.23409   -0.073631     0.03453    -0.25325     0.26157   -0.072006   -0.071357
-0.18277    0.049472    0.052395    -0.24026     0.44314   -0.095717   -0.059989
-0.092469     0.14042    0.048497    -0.23149     0.58735    -0.11618   -0.039201
0.019589     0.17939    0.032582    -0.22564     0.63153    -0.13404   -0.015815
0.13587     0.17712    0.016991    -0.21622      0.5487    -0.15223   0.0026992
0.2502     0.16185    0.010819    -0.20453     0.36064    -0.17075   0.0065969
0.35641     0.16185    0.012443    -0.19316     0.13262    -0.18374  -0.0034721
0.43209     0.18199    0.015367    -0.18991    -0.05804    -0.19089   -0.027508
0.44021     0.20311   0.0091954    -0.19868     -0.1688    -0.19478    -0.05739
0.35641     0.19791   -0.010293    -0.21979    -0.21492    -0.19154   -0.084349
0.19726     0.15731   -0.035303    -0.26657    -0.26722    -0.17562    -0.10221
0.022837     0.10177   -0.054467    -0.36011    -0.40461    -0.14639    -0.10774
-0.098316    0.055318   -0.060638    -0.50368    -0.65179    -0.10676   -0.096042
-0.1321    0.032906   -0.054467    -0.67452    -0.98082   -0.064536   -0.064861
-0.10156    0.034855   -0.043099    -0.83725     -1.3189   -0.024909   -0.021986
-0.06616    0.054019   -0.030431    -0.98114     -1.5759    0.008221    0.022188
-0.074605    0.087474    -0.02426     -1.1208     -1.6873    0.037778    0.054993
-0.13924      0.1336   -0.027508     -1.2407     -1.6252    0.058241    0.067986
-0.23766     0.18199   -0.036278     -1.2459     -1.3774    0.063438    0.059216
-0.32536     0.22129    -0.04862     -1.0178    -0.93437    0.056292    0.039402
-0.35719     0.24241   -0.059339    -0.54005    -0.30619    0.048497     0.02641
-0.30912     0.24695   -0.061613    0.070584     0.44184    0.048172    0.024137
-0.19283      0.2463   -0.047971     0.63997      1.1642    0.051096    0.024786
-0.040175     0.24955   -0.020037      1.0561      1.7164    0.048497    0.020239
0.11508     0.26157    0.015042      1.3078      2.0113    0.036479   0.0075714
0.24371     0.27521    0.050121      1.4364      2.0487    0.015692   -0.007045
0.31874     0.27976    0.078379      1.4923      1.9145   -0.012892   -0.018738
0.32328      0.2593    0.090072      1.4942      1.7044   -0.040175   -0.029132
0.24793     0.20116     0.07708      1.4377      1.4663   -0.056741   -0.038876
0.093321     0.10112    0.042326      1.3139      1.2133   -0.052843   -0.044398
-0.12008   -0.034978  -0.0021729      1.1275     0.92808   -0.017764   -0.036927
-0.34452    -0.18309   -0.046347     0.89982     0.58638      0.0433   -0.016464
-0.52251    -0.31171   -0.081426     0.65978     0.18264     0.11054    0.011144
-0.60567    -0.39292    -0.10546     0.43762    -0.23863     0.15601    0.036154
-0.56929    -0.41468    -0.11813     0.25507    -0.57968     0.15991    0.051745
-0.42897     -0.3757    -0.12333     0.11671    -0.75995      0.1219     0.05142
-0.23831     -0.2906    -0.12787    0.017965    -0.77229    0.056292    0.032906
-0.064211    -0.18829    -0.13697   -0.052193    -0.69141   -0.016789   0.0033489
0.036804   -0.096367    -0.15256    -0.10611     -0.5904   -0.084999   -0.029457
0.045899   -0.034004    -0.17075    -0.14834    -0.48711    -0.13892   -0.059014
-0.022311   0.0091954    -0.17984    -0.17302    -0.37115     -0.1727   -0.078503
-0.13599    0.047523    -0.17205    -0.18082     -0.2435    -0.18407   -0.090845
-0.26299    0.092996    -0.14866    -0.17497    -0.12527    -0.18114    -0.10026
-0.36953     0.15081    -0.11521     -0.1649   -0.050569    -0.17465    -0.10546
-0.42377     0.22065   -0.077528    -0.14931   -0.034004    -0.16588    -0.10709
-0.40363     0.29405   -0.040175    -0.12527   -0.055766    -0.14996    -0.10189
-0.31366     0.35219  -0.0050961   -0.091495    -0.08305    -0.12268    -0.09117
-0.18666     0.37688    0.024461   -0.053492   -0.089221   -0.087272   -0.075255
-0.061937     0.36356    0.045249   -0.018088   -0.050569   -0.050569   -0.053817
0.041027     0.32036    0.054993    0.009845    0.028359   -0.017439   -0.029132
0.12483     0.25605    0.055643     0.02641     0.12418    0.010495  -0.0067202
0.19693     0.17452    0.049796    0.029333      0.2083    0.033556   0.0095202
0.26287    0.084551    0.041676    0.021863     0.26482    0.054344    0.020564
0.31939  -0.0050961    0.030308   0.0059473     0.29438     0.07773    0.026085
0.34212   -0.084349    0.014392   -0.018738      0.2973     0.10436    0.030308
0.3051    -0.14704  -0.0080194   -0.053817     0.26482     0.13295     0.03518
0.19076    -0.19024   -0.036602    -0.09117     0.18914     0.16413    0.040052
0.0062721    -0.22012   -0.065186     -0.1178    0.058241     0.19499    0.042001
-0.20225    -0.23766   -0.085648     -0.1217    -0.14769     0.21642    0.039402
-0.35946    -0.24156   -0.088896    -0.09994    -0.43741      0.2174    0.038753
-0.39779    -0.22856   -0.066485   -0.056091    -0.78463     0.19563    0.042975
-0.29775    -0.20193   -0.021337  -0.0089938     -1.1241     0.16153    0.053369
-0.096692    -0.16328    0.031932    0.010819     -1.3872     0.12743     0.06831
0.12548    -0.11845    0.078055   -0.022311     -1.5193    0.091696    0.078704
0.28528   -0.078503     0.10274    -0.11098      -1.506    0.038428    0.070584
0.33303   -0.053817     0.10079    -0.22694     -1.3771   -0.046022    0.039727
0.27489   -0.046671    0.074482    -0.32471     -1.1848    -0.16425  -0.0096434
0.15114   -0.059014    0.036479    -0.36303    -0.96003    -0.30197   -0.073631
0.01017   -0.088572  -0.0015233    -0.32211    -0.69726    -0.43677    -0.14541
-0.11845    -0.13177   -0.034978     -0.2016    -0.36985    -0.53811     -0.2146
-0.23409    -0.18959    -0.06616   -0.026209   0.0026992     -0.5852    -0.26819
-0.32893    -0.24545   -0.095068     0.15081     0.32621    -0.56831     -0.2867
-0.3796    -0.26949    -0.11456     0.27132     0.49771    -0.49945    -0.26072
-0.35849    -0.24026    -0.10871     0.31159     0.47919    -0.39649    -0.19446
-0.26397    -0.16912   -0.067784     0.29665     0.31841    -0.28021    -0.10676
-0.12787   -0.090845   0.0039985     0.26742     0.12807    -0.17302   -0.022636
-0.0011985   -0.043748    0.078055     0.24955   0.0075714   -0.089871    0.041351
0.077405   -0.035303     0.12613     0.24273   -0.017114   -0.036602    0.078704
0.10014   -0.037577     0.13814     0.23234    0.026735   -0.013216    0.090072
0.075131   -0.010943      0.1232      0.2135    0.088124  -0.0096434    0.079029
0.0091954    0.064088     0.10144     0.18492     0.12645    -0.01549    0.056292
-0.083375     0.18199      0.0852     0.15244     0.13327   -0.015165    0.029333
-0.17107     0.31484    0.080328     0.12483     0.13652 -0.00022403   0.0078962
-0.22434     0.43339    0.083576     0.10306      0.1716    0.029658   0.0023744
-0.22532     0.51135    0.088773    0.059541     0.23591     0.06831    0.016991
-0.17497     0.53441    0.082602   -0.057715     0.27619     0.10306    0.047198
-0.088247     0.49706    0.054668    -0.27436      0.2135     0.12548    0.075781
0.00010078     0.40708    0.008221    -0.54005 -0.00054884      0.1336    0.089423
0.053694     0.28333   -0.039201    -0.73364    -0.34257       0.131    0.081627
0.055318     0.15731   -0.061613    -0.74858    -0.73461      0.1232     0.06019
0.016016    0.061489    -0.04862    -0.55792     -1.0776     0.11931    0.039078
-0.03238    0.011469   -0.010293    -0.22044     -1.2913     0.12872    0.027709
-0.058689   0.0033489     0.03583     0.18946     -1.3303     0.14951    0.027709
-0.043423    0.020564    0.073832     0.63997     -1.1744      0.1781    0.037454
0.010495    0.042975    0.096244      1.0895    -0.83628     0.20668    0.054019
0.089748    0.059541    0.096569      1.4455    -0.34809     0.23299    0.074157
0.18329    0.066037    0.073507      1.5433     0.19466     0.25507    0.092996
0.27326    0.058241    0.023487      1.2178     0.63023     0.27002     0.10664
0.3353     0.03453   -0.054142     0.43794     0.81374      0.2606     0.10696
0.35447  -0.0063954    -0.14476    -0.57708     0.70298     0.21447    0.093321
0.32134   -0.059989    -0.22077     -1.4281     0.39604     0.13392     0.06831
0.23656    -0.11975    -0.25715     -1.8692    0.096244     0.03583    0.041351
0.10469    -0.17659    -0.25292     -1.8994   -0.015165   -0.053168    0.015042
-0.055116    -0.22661    -0.22954     -1.6847     0.14432    -0.11391  -0.0099683
-0.21525    -0.27014     -0.2068     -1.4151     0.55682    -0.14022   -0.034978
-0.34452    -0.30879    -0.18991     -1.2118      1.1217    -0.13404   -0.059339
-0.42929    -0.33997    -0.17627     -1.0744      1.6826    -0.10384   -0.076229
-0.46892    -0.36011    -0.16458    -0.86584      2.0831   -0.060963   -0.079802
-0.47087    -0.36531    -0.14444    -0.35849      2.2309   -0.013866   -0.068758
-0.45366    -0.35037    -0.10676     0.55357      2.1256    0.030957   -0.048296
-0.43319    -0.31659   -0.044398       1.617      1.8265     0.06896   -0.024909
-0.41111    -0.26884    0.041027      2.3637      1.3893    0.088448  -0.0011985
-0.37733    -0.21882     0.13262      2.4732      0.8498    0.083901    0.016341
-0.3286    -0.18407     0.20473      1.9818     0.23559    0.050771    0.022837
-0.26007    -0.17562     0.23136      1.2061    -0.44781   -0.014516    0.009845
-0.15223    -0.19446     0.20213     0.50615     -1.1617    -0.10644   -0.020037
0.0095202    -0.23019     0.12872    0.091047     -1.8107    -0.20875   -0.057715
0.2122    -0.27631    0.037454   -0.040175     -2.2541    -0.28995   -0.084349
0.42105    -0.32471    -0.04115   -0.021661     -2.3528    -0.32146   -0.083375
0.59612    -0.36044   -0.094418   -0.012242     -2.0491    -0.29158   -0.059664
0.69941    -0.36563    -0.12365   -0.097341     -1.4229    -0.21752   -0.030431
0.70721     -0.3286    -0.13372    -0.20063    -0.64009    -0.12852   -0.011267
0.63023    -0.23993    -0.11553    -0.15093     0.11638   -0.045047   -0.007045
0.5094    -0.10156   -0.055441     0.15114     0.72182    0.029333    -0.01484
0.39279    0.067336    0.045249     0.62081      1.1532    0.097868   -0.028482
0.31062     0.24208     0.16543       1.069      1.4445     0.16348    -0.04115
0.25865     0.39279     0.26514      1.3289      1.6436     0.23104   -0.046996
0.22292     0.49186     0.31062      1.3354      1.8012     0.30055    -0.04115
0.18816     0.52726     0.29048      1.1334      1.9431     0.36648    -0.02361
0.14626     0.51135     0.21545     0.82739      2.0389     0.41813   0.0046481
0.10177      0.4727     0.11313     0.51557      2.0334     0.44216    0.038428
0.071558     0.43924    0.011469      0.2489      1.9249     0.42787    0.072858
0.076755     0.42332   -0.072981     0.02641      1.7878     0.38402     0.10209
0.13555     0.41618    -0.13632    -0.18796      1.7291     0.32946     0.12515
0.24825     0.39539    -0.18017    -0.43157       1.807     0.28333     0.14334
0.3811     0.33887    -0.20875    -0.70311      1.9931      0.2515     0.15926
0.48439     0.25085    -0.22109    -0.96133      2.1568     0.22584     0.16965
0.51525     0.15244    -0.21687     -1.1432      2.0854     0.19239     0.16803
0.45873    0.071883    -0.19024     -1.1942      1.5582     0.14009     0.14691
0.33433    0.018615    -0.13859     -1.1078      0.4727     0.06961     0.10826
0.18004  -0.0096434   -0.063886    -0.92105     -1.0455   -0.011267    0.069285
0.045899   -0.023935    0.021213    -0.68524     -2.5837   -0.096042    0.041676
-0.03303   -0.028482     0.10177    -0.42832     -3.7323    -0.18342    0.029983
-0.056091   -0.022636     0.16185    -0.15386     -4.2185    -0.26462    0.028359
-0.052843   -0.010293     0.19661    0.089423     -4.0148    -0.33218    0.029658
-0.068434   0.0056225     0.21155     0.18557     -3.3552    -0.37245    0.027385
-0.13762    0.025111      0.2122  0.00010078     -2.6445    -0.38187    0.017965
-0.27436    0.050446     0.20051    -0.50368     -2.2125    -0.36596    0.003024
-0.45203    0.073507      0.1781     -1.1991     -2.1209     -0.3364   -0.017439
-0.60437    0.080978     0.14919     -1.8809     -2.1933    -0.30132   -0.039201
-0.64757    0.062139     0.11963     -2.3713     -2.1966    -0.26462   -0.053817
-0.53096     0.01894    0.093321     -2.5698     -1.9734    -0.22661    -0.05804
-0.27664   -0.046671    0.064088     -2.4353      -1.493    -0.19056   -0.062262
0.021863    -0.13275    0.029658     -1.9455    -0.85317    -0.16653   -0.080451
0.26287    -0.23441  -0.0093186     -1.0987    -0.22337    -0.15743    -0.11326
0.39084    -0.33283   -0.048945    0.029009     0.23721    -0.15646    -0.14736
0.40611    -0.40851   -0.086623      1.1805     0.43827    -0.14476    -0.16198
0.34635    -0.44099     -0.1191      2.0545     0.38597    -0.10579    -0.14281
0.25832    -0.41858    -0.14866      2.4794     0.17127   -0.035628   -0.088572
0.15601    -0.35004    -0.18179      2.4706   -0.080776     0.05207   -0.015815
0.039727    -0.25357    -0.21785      2.1747    -0.25195     0.13944    0.058891
-0.080776    -0.14899     -0.2461      1.7489    -0.27306     0.21252     0.12353
-0.18796   -0.055441    -0.25162      1.3039    -0.14671     0.26449     0.17127
-0.27014    0.016666    -0.22402     0.91996    0.058891      0.2921     0.19661
-0.31854    0.059216    -0.16847     0.65296     0.26319      0.2934     0.20116
-0.32048    0.071558    -0.10059     0.53214     0.41943     0.26872     0.18589
-0.25975    0.058241   -0.037252     0.54383     0.53506     0.22194     0.15309
-0.13469    0.030308   0.0062721     0.63705     0.65491      0.1625     0.10989
0.029658  0.00075039    0.026085     0.74001     0.79913     0.10339    0.067011
0.19304   -0.015815    0.031282      0.7962     0.94204    0.063113     0.03518
0.31549   -0.011267    0.031607     0.77509      1.0245    0.047523    0.016991
0.38078     0.01017    0.033231      0.6783      1.0018    0.051745   0.0075714
0.40546    0.036804    0.039727     0.52694     0.87838    0.064413   0.0046481
0.42852    0.056617    0.047847     0.35122     0.69064    0.076106    0.011469
0.48504    0.056292    0.054993     0.18004     0.46847    0.071883    0.026085
0.59547    0.033881    0.058566    0.032257     0.22584    0.042326    0.037778
0.74683   0.0020496    0.058241   -0.086948   -0.038551    -0.01549    0.038428
0.87546   -0.019388    0.052395    -0.18244    -0.28443   -0.095068    0.023812
0.89917   -0.026209    0.036479     -0.2526    -0.42052    -0.18017  -0.0044465
0.7582   -0.021012    0.010495    -0.29547    -0.36401    -0.25195   -0.042449
0.44606    -0.01484   -0.019712     -0.3325   -0.095068     -0.2958   -0.084349
0.0046481   -0.013866   -0.050569    -0.42345      0.3366     -0.2984    -0.11943
-0.47412   -0.011592   -0.080451    -0.64009     0.81342    -0.25292    -0.13599
-0.89182   0.0017248    -0.10903    -0.99186      1.2032    -0.16977     -0.1334
-1.1867    0.027385    -0.13892     -1.3936      1.3968   -0.075255    -0.11715
-1.3394    0.056942    -0.16165     -1.7087       1.338  -0.0083442    -0.10026
-1.3634    0.067986     -0.1714      -1.823      1.0392    0.016666    -0.09117
-1.2764     0.05272    -0.16295     -1.6525     0.56884   0.0052977   -0.095717
-1.1029    0.025761    -0.12982     -1.1783    0.029658   -0.025559    -0.10741
-0.86778    0.019264   -0.060313    -0.53843    -0.46925   -0.062262    -0.11391
-0.59787    0.057267    0.050446    0.013093    -0.86746   -0.098316    -0.10579
-0.32601     0.14074     0.20018     0.32556      -1.151    -0.13404   -0.080776
-0.09182     0.25183     0.37038      0.4701      -1.293    -0.17172   -0.047971
0.065062     0.35219     0.52077     0.60814     -1.2426    -0.21232   -0.026858
0.12807     0.40059     0.60684     0.82381    -0.98439    -0.26007   -0.033354
0.11216     0.37265     0.60262      1.0496    -0.56831    -0.31789   -0.068109
0.055643     0.27521     0.51102      1.1506    -0.10091    -0.38252    -0.11456
-0.0021729     0.14691     0.35934      1.0489     0.32036    -0.43741    -0.15451
-0.040825    0.038753     0.18849     0.77639     0.64517    -0.46048    -0.17594
-0.055766   -0.014516    0.038428     0.44931     0.86149    -0.43612    -0.17075
-0.04992   -0.012892   -0.070382      0.1729     0.95536    -0.35881    -0.14216
-0.034978    0.019589    -0.13924   -0.023285     0.89722    -0.24188   -0.097991
-0.027183    0.056942    -0.17724    -0.16653     0.66791    -0.11261   -0.047646
-0.036602    0.082927    -0.18991    -0.27858     0.28691  -0.0018481   0.0043233
-0.053817    0.095919    -0.17627    -0.35264    -0.18699    0.066362    0.048497
-0.064536    0.091047    -0.14314    -0.38285    -0.67972    0.089423    0.074806
-0.063886    0.059865    -0.10871    -0.39032     -1.1059    0.069934    0.079354
-0.054792   -0.007045   -0.093769    -0.39324     -1.3323    0.014392    0.060515
-0.04992    -0.10221   -0.098965    -0.38772      -1.226   -0.068758    0.024137
-0.068434    -0.20355    -0.11131    -0.35134    -0.74176     -0.1675   -0.021986
-0.12203    -0.28021    -0.11261    -0.26949    0.038428    -0.26332   -0.072331
-0.19771    -0.31042   -0.093769    -0.15061     0.91573    -0.33705    -0.11878
-0.25975    -0.28735   -0.056416   -0.020037      1.6569     -0.3705    -0.14899
-0.27111    -0.22239  -0.0041217    0.091372      2.1013    -0.35426    -0.15321
-0.22207    -0.13827    0.051096     0.15341       2.202    -0.29482    -0.13372
-0.1282   -0.064211    0.089423     0.15244      2.0051    -0.20518    -0.10449
-0.011917   -0.022636    0.096569    0.095269      1.6157    -0.10124   -0.073631
0.10112   -0.019388    0.076106   0.0072465      1.1805  0.00010078   -0.042774
0.18719   -0.040825    0.042975   -0.089546     0.84687    0.086824  -0.0076946
0.23266    -0.06616    0.011144    -0.18504     0.68674     0.15146    0.031282
0.23331   -0.077528   -0.017439    -0.29612     0.65296     0.19563    0.069934
0.20181   -0.072981   -0.047321    -0.43774     0.63705     0.22519    0.099167
0.15471    -0.06616   -0.088247    -0.59852     0.55357     0.24598     0.11411
0.10956    -0.07493    -0.13729    -0.74923     0.37655     0.26287     0.11573
0.067661    -0.11196    -0.18374    -0.86584    0.097868     0.28041     0.11443
0.021538    -0.17237     -0.2107    -0.94931    -0.31139     0.30347     0.11508
-0.030106    -0.23051     -0.2107     -1.0045    -0.86194     0.33075     0.11898
-0.067134    -0.26007    -0.18796     -1.0113     -1.5021     0.34894      0.1245
-0.059989       -0.25    -0.15548    -0.90839     -2.0972      0.3431     0.13392
0.0010752     -0.2042    -0.12268     -0.6651     -2.4895     0.30997     0.14529
0.093645    -0.13989   -0.097017     -0.3299     -2.5707     0.25995     0.15601
0.18134   -0.081426   -0.074605   0.0062721     -2.3284     0.21285     0.16413
0.22812    -0.04927   -0.050894     0.27911     -1.8562     0.18069     0.16543
0.21285    -0.05804   -0.026858     0.47399     -1.2848      0.1716     0.15666
0.13977    -0.09929  -0.0011985     0.60489    -0.69596     0.18167     0.13684
0.031932    -0.14509    0.020564     0.68902    -0.12722     0.19499     0.10534
-0.062912     -0.1675     0.02706     0.72442     0.40351     0.19499    0.065062
-0.092794    -0.14671   0.0017248      0.6835     0.84265     0.16121    0.019589
-0.036602   -0.082076   -0.060638     0.54415      1.1291    0.088448   -0.021012
0.078379    0.013093    -0.14444     0.31516      1.2503   -0.011592   -0.053492
0.19271     0.11898    -0.21849    0.036154      1.2626    -0.11618    -0.07493
0.2541     0.22162    -0.25422    -0.22337      1.2383    -0.20063   -0.082725
0.2476     0.31809    -0.23668     -0.3809      1.1853     -0.2513   -0.077203
0.19823     0.41293    -0.17692    -0.38122      1.0395    -0.26267   -0.063237
0.14724     0.50648   -0.090845    -0.22726     0.73709    -0.24448   -0.045047
0.13197      0.5893  0.00010078    0.024786     0.30315    -0.19868   -0.027508
0.17517     0.64127    0.081952     0.28463    -0.15191     -0.1308   -0.011917
0.26937     0.64225     0.14237     0.46717    -0.49815    -0.04992   0.0043233
0.38045      0.5893     0.17582     0.53538    -0.66575    0.034855     0.01894
0.46977     0.49218     0.18037     0.50648    -0.67128     0.11638    0.029009
0.50745     0.37071     0.15698     0.41878    -0.59332     0.18622    0.032582
0.47529     0.23786     0.10891     0.31354    -0.52836     0.23494    0.030633
0.36486     0.10371    0.046223      0.2148    -0.54395     0.25378    0.019264
0.18881   -0.015165   -0.019063     0.12678    -0.65081     0.24306  -0.0015233
-0.011267   -0.095717   -0.072331    0.036154    -0.79958     0.21188   -0.024909
-0.17302    -0.11748    -0.10254   -0.084674    -0.90774      0.1755   -0.035953
-0.24545     -0.0824    -0.10286    -0.24026    -0.91586     0.14302   -0.027508
-0.21297   -0.011917   -0.079477    -0.38512    -0.80899     0.11606  -0.0028225
-0.096042     0.06084   -0.040825    -0.45593     -0.5943    0.096893     0.02641
0.056292     0.10566      0.0014    -0.42247    -0.27761    0.089423    0.049796
0.18362     0.10469    0.035505      -0.301     0.13197    0.094945    0.057592
0.23818    0.058241    0.053044    -0.12333     0.60847     0.10664    0.042975
0.19823   -0.017764    0.056617     0.10989      1.0791      0.1245    0.009845
0.075456   -0.090196    0.058566     0.39474      1.4461     0.15438   -0.031406
-0.097341    -0.13177    0.075781     0.69227      1.6371     0.20213   -0.067459
-0.27079    -0.13307     0.11151     0.91801        1.63     0.26384   -0.080776
-0.39584    -0.11326     0.14854     0.99466      1.4588     0.32101   -0.062587
-0.44099    -0.10319     0.16348     0.89202      1.1993     0.35349   -0.021012
-0.41143    -0.13112     0.14237     0.65264      0.9232     0.33855    0.020239
-0.34257     -0.2055    0.086824     0.35609     0.66108     0.27002    0.039402
-0.27339    -0.30619     0.01829      0.0852     0.38857     0.15958    0.024786
-0.22402    -0.39259   -0.045697    -0.11228    0.022512    0.025436   -0.021012
-0.19868    -0.43709   -0.098965    -0.22434    -0.49263    -0.12008   -0.083375
-0.19901    -0.43384    -0.14444    -0.27046     -1.0753    -0.26364    -0.14996
-0.21947    -0.39584    -0.18017    -0.27111     -1.5616    -0.38739     -0.2107
-0.24123    -0.34712    -0.19576    -0.24838     -1.8149    -0.47282     -0.2591
-0.23538    -0.30489    -0.18536    -0.22044     -1.8019    -0.50855    -0.28865
-0.19478    -0.27858    -0.15321    -0.20972     -1.5853    -0.48776    -0.28963
-0.14314    -0.25877    -0.11228    -0.22889     -1.2686    -0.41923    -0.26267
-0.12105    -0.22597    -0.07493    -0.26527    -0.94217    -0.32568    -0.21232
-0.15776    -0.16328   -0.045372    -0.28898    -0.66121    -0.23344    -0.15126
-0.25195   -0.075255   -0.021337    -0.27079    -0.45008    -0.16523   -0.096367
-0.35816    0.025111  -0.0044465    -0.20388    -0.32731    -0.12625   -0.055766
-0.41565     0.12158   0.0078962    -0.10254    -0.29612    -0.10968   -0.027183
-0.3835     0.19888    0.019589   0.0023744    -0.33055    -0.10059  -0.0041217
-0.26884     0.24566    0.029009    0.088124    -0.38934   -0.088247    0.022188
-0.10351       0.258     0.03518     0.14821    -0.42247   -0.069083    0.052395
0.083251     0.24078    0.038103     0.17842    -0.39746   -0.047321      0.0865
0.26384     0.20116    0.036804     0.17874    -0.30165   -0.029782     0.12028
0.42008     0.15503    0.038103     0.15828    -0.15678   -0.015815     0.15114
0.54513     0.11541    0.046873     0.13392  0.00010078 -0.00022403     0.17615
0.62795    0.082927    0.058891     0.11866     0.13327    0.014392     0.19239
0.65881    0.050771    0.069285     0.11378     0.22422    0.024461     0.19401
0.63023    0.012768    0.072858     0.11118     0.28723    0.024786      0.1755
0.54805   -0.030756     0.06831     0.09462     0.36778     0.01829     0.13684
0.43599   -0.064536    0.059216    0.055968     0.51297    0.011794    0.090072
0.33173   -0.070382    0.047523   0.0059473     0.72832    0.016666    0.052395
0.26027   -0.039851    0.032257   -0.040175      0.9664    0.031607    0.037129
0.22129    0.015367    0.013743   -0.071032      1.1421    0.046873    0.040702
0.20051    0.075131  -0.0050961   -0.081751      1.2064    0.051096    0.046548
0.18167     0.11703   -0.020687   -0.079152      1.1658    0.038428    0.044924
0.15568     0.12158   -0.036602   -0.073306      1.0733   0.0062721    0.033231
0.12158    0.089423   -0.052518   -0.062262     0.98037   -0.039201    0.015367
0.084551    0.036479   -0.068434    -0.03303     0.87221   -0.089871  -0.0015233
0.045574   -0.020687   -0.079802     0.02706     0.64322    -0.13534   -0.013541
0.009845   -0.071357   -0.086623     0.11281     0.15406    -0.16847   -0.019063
-0.008669    -0.11423   -0.086948     0.19401    -0.66088    -0.18634   -0.016464
-0.0024977    -0.14769   -0.077528     0.23526      -1.671    -0.19251  -0.0034721
0.030633     -0.1701   -0.052518     0.22324     -2.5844    -0.18861    0.019589
0.0865    -0.17659   -0.013216     0.17777     -3.0982    -0.17367    0.047198
0.14756    -0.16685     0.03453     0.12288     -3.0599    -0.14704    0.076431
0.18751    -0.13859    0.076106    0.071234     -2.5305    -0.11651     0.10566
0.19401   -0.087597     0.09397     0.02706     -1.7194   -0.085324     0.12613
0.16575   -0.014191    0.082927   -0.017114    -0.87266   -0.052518     0.13652
0.10404    0.072858    0.047198   -0.054792    -0.17984    -0.01614     0.14107
0.013093     0.15406   0.0036737   -0.075904     0.26482    0.020564     0.14561
-0.09929     0.20863   -0.027833   -0.064211      0.4623    0.045899     0.14821
-0.22791      0.2187   -0.034654  -0.0096434     0.47399    0.051745     0.14399
-0.35589     0.18199   -0.012242    0.080653     0.34797     0.03583     0.12548
-0.46405     0.11573    0.031607     0.18622      0.1232   0.0023744    0.098193
-0.52706    0.040377    0.079354     0.28041    -0.15191   -0.037577    0.073507
-0.53323   -0.027508     0.11281     0.34115    -0.41988   -0.070058    0.059216
-0.48451   -0.078503     0.12223     0.36064    -0.59949   -0.084024     0.05207
-0.41013    -0.11391     0.11378     0.34245    -0.61151   -0.082076    0.043625
-0.35784    -0.14801    0.093645      0.2921    -0.44196   -0.072331    0.023812
-0.35979    -0.18666     0.06961     0.21285    -0.15548   -0.060313  -0.0099683
-0.4202    -0.22077    0.046223     0.11768     0.15309    -0.04927   -0.052193
-0.51115    -0.23311    0.028034    0.032582     0.41423   -0.037252   -0.092794
-0.58228    -0.20778    0.016991   -0.016464     0.60359   -0.021986    -0.11975
-0.60404    -0.14444   0.0091954   -0.029132     0.72734  -0.0080194     -0.1308
-0.5813   -0.054792      0.0014   -0.030756      0.7988 -0.00087364    -0.13307
-0.53843    0.043625   -0.012892   -0.045372     0.83161  -0.0031473    -0.13275
-0.48256     0.13587   -0.028807   -0.068109     0.83713  -0.0054209    -0.12625
-0.39389     0.21772   -0.035303   -0.089871     0.83258   0.0059473    -0.10221
-0.2487     0.28885   -0.025234    -0.14184     0.82446     0.03453   -0.055116
-0.05804     0.34375 -0.00054884    -0.28346     0.79848    0.072208   0.0020496
0.13555     0.37558    0.027385    -0.52804     0.73741     0.10306    0.049472
0.28918     0.38825    0.053694    -0.79438     0.63542     0.11541    0.069934
0.37818     0.39442    0.071234     -0.9649     0.49771     0.10761    0.066686
0.40254     0.39279    0.076106    -0.95743     0.34342    0.087474    0.051745
0.37363     0.36518    0.062464    -0.75605     0.18687    0.067011    0.033881
0.31484     0.29957    0.042975    -0.36109    0.046223    0.056942    0.021213
0.25702     0.21025    0.042651     0.22357   -0.048945    0.054993     0.01894
0.22812     0.12418    0.079679     0.92158   -0.068434    0.048822    0.022837
0.2463    0.065387     0.14561      1.5715   0.0026992    0.023812    0.023812
0.31029    0.042326      0.2109      1.9665      0.1362    -0.02426    0.010819
0.41098    0.042326     0.24728      1.9148     0.26255   -0.089871   -0.017439
0.53084    0.044275     0.23916      1.3604     0.32686    -0.15873   -0.057715
0.65426    0.034855     0.19174     0.47627     0.32101     -0.2133   -0.097341
0.76275    0.014068     0.12028    -0.38739     0.26482    -0.24286      -0.123
0.83583   -0.010293    0.037129    -0.91488     0.18102    -0.24773    -0.13145
0.85824   -0.030756   -0.045047     -1.0234    0.081303    -0.23279    -0.12592
0.81439   -0.041475     -0.1217    -0.81289   -0.030431    -0.20485    -0.11261
0.69129   -0.037902    -0.18731    -0.47704    -0.14639     -0.1714   -0.099615
0.48406   -0.026209    -0.24026    -0.19641    -0.23051    -0.13567   -0.093119
0.20765   -0.017764    -0.28151   -0.081426    -0.23896   -0.094743   -0.089546
-0.11521   -0.030106    -0.31106    -0.14704    -0.14216    -0.04927   -0.079477
-0.4582   -0.077203    -0.32536    -0.33575    0.049472  -0.0024977   -0.063237
-0.78951    -0.14899    -0.31854    -0.57221     0.29178    0.039402   -0.043748
-1.0653    -0.21785    -0.29028    -0.78658     0.52629    0.067661   -0.025884
-1.2384    -0.26169    -0.24708     -0.8798      0.7111    0.084876   -0.015165
-1.278    -0.27696    -0.19251    -0.73169     0.83648     0.10177   -0.012242
-1.1867    -0.27891    -0.12787    -0.31854     0.90599     0.12418   -0.015165
-1.0019    -0.28411   -0.056416     0.23201     0.87448     0.14367   -0.021337
-0.77067    -0.30132   0.0078962     0.71045     0.66888     0.15049   -0.027833
-0.53746    -0.32633    0.045899     0.96088     0.26255      0.1349    -0.03303
-0.34322     -0.3403    0.049147     0.94594    -0.24708    0.094945   -0.039851
-0.20908    -0.32373    0.024786     0.72702    -0.66705    0.041676   -0.052518
-0.12852    -0.27144   -0.012242      0.4269    -0.83595  -0.0041217   -0.064211
-0.062587    -0.19121   -0.042774     0.15926    -0.71253   -0.032055    -0.06681
0.027709    -0.10481    -0.05804   -0.017439    -0.38447   -0.042124   -0.061613
0.15341   -0.040175   -0.064536    -0.11488   -0.017114   -0.042774   -0.051219
0.29795   -0.021337   -0.073631    -0.18049     0.24533   -0.042449   -0.045047
0.45158   -0.039201    -0.09117    -0.25195     0.33335   -0.048296   -0.044398
0.61496   -0.051219    -0.10611     -0.3286     0.26027    -0.05804   -0.049595
0.75658   -0.016789    -0.09929    -0.39129    0.094295    -0.06551   -0.052843
0.80205    0.063438   -0.061613    -0.40201   -0.070707   -0.061613   -0.045047
0.68642     0.15568      0.0014    -0.30749    -0.16035   -0.042449   -0.026533
0.40871     0.22227    0.073507   -0.073955    -0.13827   -0.010618   0.0010752
0.044275     0.24501      0.1349     0.25572   -0.019712    0.032582     0.03583
-0.30229     0.23396     0.17387     0.56429     0.14432    0.080978    0.071883
-0.5524     0.21837     0.19076     0.74099     0.29405     0.13002     0.10534
-0.66218     0.22194     0.19076     0.73514     0.39637     0.17127     0.13197
-0.62223     0.24598     0.17712     0.56364     0.45451     0.19953     0.15049
-0.4595     0.27002     0.15341      0.2973     0.49998     0.20928     0.15926
-0.22532     0.27196     0.11995    0.029983     0.56689     0.19628     0.15763
0.028684     0.24208    0.072858     -0.1714     0.66043     0.15926     0.14237
0.25702     0.18362    0.012443    -0.28443     0.74359     0.10534     0.11931
0.43209     0.11248   -0.050244    -0.31139     0.76567    0.047198    0.095919
0.5513    0.046548    -0.10741    -0.27014     0.69324  -0.0054209    0.073182
0.62568    0.003024    -0.14704    -0.19089     0.52661   -0.048945    0.053044
0.65914   -0.010618    -0.15841    -0.10806     0.31192   -0.083375    0.032257
0.64419  -0.0099683    -0.14346   -0.047646      0.1271    -0.10514    0.010495
0.55844   -0.018413    -0.11358   -0.023285    0.029658    -0.11553    -0.01614
0.40546   -0.052518   -0.086623   -0.034329    0.011144    -0.11651   -0.046671
0.21252    -0.11326   -0.067784   -0.065835    0.030957    -0.11098   -0.076229
0.0059473    -0.18666   -0.059014    -0.10189    0.043625   -0.098641   -0.096042
-0.19316    -0.25357   -0.053168    -0.13242    0.024786   -0.072981   -0.097666
-0.36173    -0.29093   -0.044723    -0.15158   -0.028157   -0.032055   -0.082725
-0.47444    -0.28508   -0.026858     -0.1597    -0.11553    0.011469   -0.063237
-0.50595    -0.23603  0.00042559    -0.15711    -0.23863    0.039078   -0.050244
-0.44976    -0.15516    0.030957    -0.14541    -0.39422    0.039078   -0.048296
-0.33607   -0.065186    0.051745    -0.11326    -0.58033    0.016016    -0.05804
-0.2133   0.0052977     0.05272   -0.053168    -0.78431   -0.018413   -0.071682
-0.12073     0.03453    0.030633    0.022837    -0.98504   -0.049595   -0.085973
-0.084349    0.027709  -0.0034721    0.082277     -1.1647   -0.068434   -0.097017
-0.11651    0.011469   -0.034654    0.089423     -1.2956   -0.079802    -0.11001
-0.20778    0.021863   -0.048945   0.0026992     -1.3365   -0.096367    -0.12398
-0.32438    0.072533   -0.038227     -0.2487     -1.2624    -0.12333    -0.13859
-0.40591     0.14107  -0.0044465    -0.74858     -1.0584    -0.15418    -0.14996
-0.40688     0.18264    0.038753     -1.4797    -0.72779    -0.17432    -0.15158
-0.31269     0.15828    0.064088     -2.2606    -0.32211     -0.1727    -0.13989
-0.13599    0.064737    0.061814     -2.8517    0.072858    -0.14964    -0.11651
0.099167   -0.068434    0.039727     -3.1132     0.35934    -0.11066   -0.086623
0.35479    -0.19998    0.012119     -3.0606     0.46068   -0.065186   -0.058365
0.58151    -0.29288  -0.0047713     -2.7254     0.36551   -0.018088   -0.034978
0.73384    -0.31529   0.0091954     -2.0134      0.1664    0.039727  -0.0096434
0.79328    -0.25552    0.060515    -0.82588    0.022837     0.11931    0.029009
0.76535    -0.13827     0.13522     0.67018    0.036154     0.22032    0.082927
0.67603  -0.0076946     0.19304      1.9028     0.18004     0.31744     0.13977
0.56332    0.090072     0.18557      2.3949     0.34797     0.37655     0.18427
0.46295     0.12807    0.091696      2.0457      0.4584      0.3733      0.2057
0.40416     0.10826   -0.064536      1.2402     0.50745     0.31127     0.20733
0.40221    0.053694    -0.22694     0.57436      0.5552     0.22162     0.20148
0.45678  -0.0044465    -0.33965     0.44574     0.65329     0.13782     0.19434
0.53506   -0.034654    -0.37245      0.8394     0.77054    0.080978     0.18687
0.58735   -0.023935    -0.33835      1.4754     0.79101    0.050771     0.17712
0.57404    0.032906    -0.26884      2.0474     0.59872    0.025111     0.15731
0.48374      0.1219    -0.19316      2.3605     0.17257   -0.019712      0.1258
0.3314        0.22    -0.12722      2.3705    -0.38285   -0.089871    0.086175
0.15211      0.3038   -0.064861      2.1555    -0.90839    -0.16945    0.047523
-0.013541     0.36031   0.0020496      1.8486     -1.2537    -0.23506    0.013743
-0.12722     0.38922    0.070584      1.5449     -1.3352    -0.26916  -0.0099683
-0.1753     0.39539      0.1232      1.2643      -1.179    -0.26364   -0.027183
-0.18179     0.37363     0.14139     0.98817    -0.88273    -0.22402   -0.039526
-0.18471     0.32004     0.12093     0.70916     -0.5472      -0.161   -0.044723
-0.20583     0.24468    0.080978     0.45353    -0.22402   -0.089871   -0.038876
-0.23149     0.16283    0.050121     0.26579    0.078055   -0.026533   -0.024585
-0.23538    0.091696    0.043625     0.16998     0.35122    0.010819  -0.0099683
-0.20485    0.039402    0.059865     0.15406     0.57663     0.01764  -0.0067202
-0.14866   0.0075714    0.084226     0.17647     0.73417   0.0023744   -0.016464
-0.090196  -0.0096434     0.10242     0.18946     0.79718   -0.019388   -0.032055
-0.04862   -0.024909     0.10891     0.16088     0.75171    -0.03303   -0.046996
-0.030431   -0.044723     0.10761    0.082277     0.59417   -0.035303   -0.055441
-0.037577   -0.071032     0.10729   -0.026533     0.31776   -0.030756   -0.053168
-0.06551    -0.10091     0.11151    -0.13697   -0.039851   -0.025234   -0.043423
-0.10871    -0.12625     0.11995    -0.22044    -0.40493   -0.024585   -0.036927
-0.15516    -0.14249     0.12515    -0.26851    -0.70765    -0.03173   -0.038227
-0.18926    -0.14346      0.1232     -0.2867    -0.89994   -0.045047   -0.045047
-0.19901     -0.1282     0.11671     -0.2906    -0.95873   -0.058365   -0.052193
-0.18764    -0.10189     0.10859    -0.29223    -0.90709   -0.067784   -0.056741
-0.17237   -0.072006    0.099492    -0.30424     -0.8064   -0.071357   -0.058689
-0.1662   -0.051544    0.087474    -0.33153    -0.74241   -0.071032   -0.056741
-0.17724   -0.046022    0.072208     -0.3796    -0.77846   -0.068109   -0.047971
-0.2055    -0.05739     0.05272    -0.44196    -0.89669   -0.061937   -0.031081
-0.24545   -0.084024    0.029009    -0.50725     -1.0058   -0.046671  -0.0076946
-0.29093    -0.12463  -0.0044465    -0.56831     -1.0045   -0.026858    0.014068
-0.3364    -0.17854   -0.049595    -0.61768     -0.8431   -0.013541    0.024461
-0.37245    -0.24091   -0.098641    -0.65828    -0.53323   -0.011592    0.020888
-0.3848    -0.30327    -0.14444    -0.68882    -0.13762   -0.019712   0.0075714
-0.36336    -0.35199    -0.17984    -0.70408      0.2606   -0.029132  -0.0093186
-0.31009    -0.37473    -0.19868    -0.69856     0.58508    -0.03303    -0.02361
-0.23474    -0.36141    -0.20031    -0.67128     0.79393   -0.029132   -0.031081
-0.14606    -0.31139    -0.18212    -0.62483     0.87741   -0.012892   -0.029782
-0.059664    -0.23928    -0.14606    -0.56084      0.8459    0.009845   -0.021012
0.0069217    -0.16458    -0.10416    -0.48679     0.71955    0.029333  -0.0080194
0.049472    -0.10384   -0.063886      -0.415     0.53733    0.035505   0.0052977
0.06896   -0.062262   -0.030106    -0.35491     0.35252    0.026085    0.014068
0.071883   -0.037577  -0.0054209    -0.31139      0.2083   0.0049729    0.013743
0.058566   -0.021337    0.010819    -0.28963     0.13035   -0.017764   0.0026992
0.03518  0.00010078    0.023487    -0.28443     0.10956    -0.03238   -0.011917
0.008221    0.031607     0.03518    -0.28443     0.10859   -0.030756   -0.021337
-0.012892    0.066686    0.046548    -0.28216    0.074482   -0.016464   -0.021661
-0.022311    0.089098    0.053694    -0.27144   -0.032705 -0.00054884   -0.019063
-0.022311    0.080978    0.055318     -0.2539    -0.21265   0.0059473   -0.014191
-0.016789    0.042001    0.055318    -0.23279    -0.41111  -0.0018481   -0.008669
-0.0083442   -0.015815    0.052395    -0.21752     -0.5459   -0.021661  -0.0024977
0.0023744    -0.06681    0.049796    -0.21752    -0.56149    -0.04115   0.0046481
0.011794   -0.096692     0.05142    -0.23311    -0.43319   -0.048945    0.016666
0.015042    -0.10319    0.053694    -0.27046    -0.17172   -0.042449    0.029009
0.0078962   -0.091495     0.05207    -0.33575     0.17842   -0.029782     0.03453
-0.017439    -0.06681    0.042651    -0.42475     0.53376   -0.021986    0.024786
-0.07428   -0.039851    0.022188    -0.52706      0.8053   -0.024909  -0.0011985
-0.174   -0.015815  -0.0096434    -0.62061     0.93717   -0.035303    -0.04115
-0.30327   0.0056225    -0.04862    -0.66218     0.93132   -0.044723   -0.079477
-0.43287    0.030308   -0.082725    -0.60664     0.84915   -0.038551   -0.096367
-0.54882    0.059541   -0.098641    -0.43741     0.77574  -0.0076946     -0.0824
-0.64724     0.09397   -0.088572    -0.17984      0.7595    0.045574     -0.0405
-0.70765     0.13782    -0.05739     0.10534      0.7634     0.11508    0.016341
-0.70083     0.19271   -0.010943     0.34212     0.65134     0.19044    0.076106
-0.61249     0.25183    0.042975     0.47659     0.23039     0.25248      0.1297
-0.4582     0.29145    0.090072     0.49706    -0.62548     0.27554      0.1664
-0.28086     0.29275     0.11508     0.43437     -1.7899     0.24825      0.1768
-0.12268     0.25475     0.11411     0.32458     -2.9173     0.18492     0.15926
-0.01614     0.18751    0.089098      0.1703     -3.6358     0.11118     0.12093
0.029333     0.11021    0.046873   -0.034978     -3.7014    0.049796    0.073182
0.03518    0.041676  -0.0044465    -0.26851     -3.0758    0.017316    0.036154
0.032906   -0.008669   -0.061937    -0.47119     -1.9348    0.014392     0.01764
0.045574   -0.038876    -0.12495     -0.5904    -0.60242    0.031282    0.017965
0.072858   -0.056091    -0.18959    -0.61443     0.56689     0.05142    0.026735
0.10112   -0.064861    -0.24448    -0.54558      1.3097    0.065062    0.030633
0.11736    -0.06681    -0.27209    -0.34809        1.58    0.062139    0.022188
0.12223   -0.060313    -0.25975   0.0046481      1.5147     0.03583   0.0052977
0.12807   -0.039201     -0.2055     0.45808      1.3302   -0.013541   -0.010293
0.14724  -0.0054209     -0.1178     0.85954      1.1889    -0.07493   -0.017439
0.17972    0.038753   -0.007045      1.0489       1.133    -0.13859   -0.013866
0.21382    0.080328     0.10664      0.9742      1.0866    -0.19543  -0.0031473
0.23786     0.10306     0.20246     0.73741     0.94042    -0.24415    0.012443
0.25897     0.10631     0.26449     0.52174     0.67343     -0.2854    0.033231
0.28561     0.10404     0.28496     0.46328     0.38467    -0.31659     0.05142
0.31711     0.10404     0.25962     0.55422      0.2122    -0.33575    0.056617
0.33952     0.10112     0.20181     0.67505     0.22487    -0.33997    0.046873
0.3327    0.086175     0.13392     0.70753     0.39247    -0.32731    0.025436
0.28691    0.059865    0.075131     0.62113     0.61853    -0.30132  -0.0011985
0.19921    0.033231    0.033231     0.47497     0.79945    -0.26819   -0.027833
0.069285    0.011469    0.011144     0.35219     0.86279    -0.22986   -0.047971
-0.10189  -0.0044465   0.0056225     0.29827     0.78971    -0.18861   -0.059339
-0.27988    -0.01484    0.011144     0.30672     0.61269    -0.14509   -0.061288
-0.4176   -0.016464    0.021538     0.34797     0.38402   -0.097017   -0.054467
-0.47022   -0.010943    0.032906     0.38142     0.15276   -0.046022    -0.04115
-0.41305  -0.0015233      0.0433     0.37395   -0.050894   0.0065969   -0.023935
-0.24286    0.012768    0.045899     0.31159    -0.22726    0.055318  -0.0083442
0.024786    0.033881    0.040052     0.20311    -0.38025    0.096244   0.0056225
0.3457    0.066362    0.026735    0.072208    -0.51115     0.12678    0.014392
0.64095     0.10696   0.0078962   -0.058689    -0.62093     0.14561     0.01829
0.81179     0.14204   -0.020362    -0.17594    -0.70278     0.14854    0.012443
0.79231     0.15471   -0.053492    -0.27014    -0.72714     0.13327  -0.0028225
0.58475     0.13749   -0.084674    -0.30424    -0.65828     0.10794   -0.020687
0.26384     0.09397    -0.10514    -0.23733    -0.48029    0.078055   -0.034329
-0.037902    0.041351    -0.11033   -0.069733    -0.21395    0.046548   -0.044073
-0.19089 -0.00022403   -0.096367     0.14009    0.078704     0.01017   -0.053492
-0.13534   -0.016464   -0.063237     0.31159     0.32231   -0.027833   -0.062262
0.11021  -0.0011985   -0.014516     0.39896     0.45646   -0.064536   -0.071682
0.46295     0.03583    0.041027     0.40319     0.45191   -0.091495   -0.074605
0.79848    0.070909    0.087474     0.35024     0.33011   -0.096367   -0.066485
0.98979    0.078379     0.10924     0.26644     0.14334   -0.075579   -0.052193
0.95796    0.043625     0.10047      0.1755   -0.054792   -0.032055   -0.039851
0.70916   -0.020037    0.067661    0.092671    -0.21395    0.019589   -0.036927
0.31809   -0.088896    0.022512     0.02641    -0.30457    0.064413   -0.042124
-0.10709    -0.13762   -0.022311    -0.02361    -0.33153    0.089748   -0.044073
-0.47444    -0.14866   -0.056416   -0.059014    -0.32308    0.095269   -0.035628
-0.72747     -0.1191   -0.070707   -0.077528    -0.28508    0.092996   -0.010943
-0.84407   -0.067134   -0.063886   -0.080776    -0.18244    0.098517    0.024137
-0.84407    -0.02426   -0.045372   -0.072656    0.024137     0.11736    0.053369
-0.78041    -0.02361   -0.034329    -0.06681      0.3314     0.14367    0.056942
-0.70116   -0.069408     -0.0405   -0.075579     0.67797      0.1638    0.032257
-0.62028    -0.14574   -0.060638    -0.10351     0.98134     0.17127  -0.0050961
-0.51894    -0.23149    -0.08305    -0.14281      1.1827     0.16868    -0.03173
-0.36401    -0.30977    -0.10026    -0.17789      1.2665     0.16185   -0.038227
-0.15483    -0.34907    -0.10968    -0.19024      1.2448     0.15763   -0.026533
0.064413    -0.32633    -0.10514    -0.16847      1.1028     0.15893  -0.0060706
0.22877    -0.23928   -0.087272    -0.12105     0.81894      0.1638    0.013418
0.28821    -0.12398   -0.062912   -0.061613     0.44216       0.169    0.026085
0.22032   -0.025559   -0.042449  -0.0054209    0.095269      0.1729    0.030633
0.030308    0.030957   -0.028807    0.030957    -0.12235      0.1716    0.023487
-0.23279    0.048172   -0.021337    0.021538    -0.22726     0.15341     0.01017
-0.47444    0.057267   -0.020362   -0.046671    -0.30912     0.11118  -0.0083442
-0.59949    0.089748   -0.022311    -0.15418    -0.43709    0.038753   -0.026533
-0.55402     0.15958   -0.022311    -0.26527    -0.62775   -0.055441   -0.039201
-0.34355      0.2476   -0.024585    -0.35914    -0.87266    -0.15548   -0.039526
-0.034004     0.31679   -0.038551    -0.43124     -1.1286    -0.23538   -0.025559
0.2947      0.3405   -0.066485    -0.47607     -1.3183    -0.28118  -0.0057458
0.58151     0.32328    -0.10059    -0.48581     -1.3943    -0.29158    0.013743
0.78873     0.28561     -0.1295    -0.45463     -1.3501    -0.27923    0.023812
0.8943     0.25085    -0.14899    -0.39974     -1.2166    -0.26299    0.021538
0.88423     0.22941    -0.15905    -0.35037     -1.0692    -0.25585   0.0069217
0.76112     0.21675    -0.16068     -0.3325    -0.96685    -0.26364   -0.015165
0.5435       0.207    -0.15483    -0.36141      -0.885    -0.28898   -0.041475
0.27976     0.19726    -0.14444    -0.42215    -0.73656    -0.31918   -0.065186
0.028684     0.18427    -0.13047    -0.46535    -0.44164    -0.33315   -0.080776
-0.16068     0.15991    -0.11553    -0.45528    0.015042    -0.30814   -0.085324
-0.25942     0.11801    -0.10319    -0.43547     0.56137    -0.23701   -0.076879
-0.2591    0.065387    -0.09929    -0.48126      1.0742    -0.13599   -0.056091
-0.17302    0.015042    -0.10384    -0.56441      1.4517   -0.036278   -0.027833
-0.034004   -0.021012    -0.10774    -0.52057      1.6319     0.03518  -0.0011985
0.1245   -0.041475   -0.092794    -0.21622      1.5972    0.064088     0.01764
0.27619   -0.047321   -0.049595     0.30964      1.3711    0.054019    0.029333
0.40449   -0.053168    0.016666     0.87026      1.0294    0.020239    0.037778
0.49608   -0.070058    0.087799      1.2685     0.65849   -0.021012    0.049472
0.55585   -0.095393     0.14237      1.4033     0.30282   -0.054467    0.061489
0.5945    -0.11845     0.16575      1.2873   -0.035953   -0.075904    0.072858
0.61886    -0.13567     0.15698      1.0132    -0.35556   -0.090196    0.079029
0.62276    -0.15223       0.131     0.69746    -0.61996    -0.10124    0.074806
0.60035     -0.1727     0.10306     0.42982    -0.76807    -0.10936    0.059865
0.54545    -0.20096    0.078704     0.24988    -0.76677    -0.11456    0.034206
0.44801    -0.23376    0.056617     0.14367    -0.64659    -0.11748  -0.0037969
0.29568    -0.26234    0.033881     0.07708    -0.48581      -0.123   -0.054467
0.086175    -0.27241    0.013093    0.029333    -0.36303     -0.1334    -0.11066
-0.16847    -0.25455    0.009845   0.0078962    -0.30814    -0.14249    -0.15581
-0.44164    -0.21362    0.029009    0.024137    -0.27566    -0.13827    -0.17919
-0.6768     -0.1675    0.058241    0.069934    -0.17627    -0.10936    -0.17497
-0.79503    -0.13015    0.081952     0.10566    0.061814   -0.053817    -0.14964
-0.74208    -0.10156    0.090722    0.090072     0.44769    0.023812    -0.10741
-0.52901   -0.073306    0.081952    0.009845     0.91184     0.10209   -0.053492
-0.23181   -0.039201     0.05207    -0.10416      1.3386     0.16283 -0.00054884
0.055643   0.0023744   0.0085458    -0.19154      1.6066     0.19953    0.044599
0.26839    0.046873    -0.03238    -0.20258      1.6504     0.22682    0.082927
0.3785    0.087799   -0.063237    -0.12787      1.4809     0.26937     0.11671
0.37363     0.10989   -0.082076   0.0020496      1.1678     0.33887     0.14529
0.26255    0.097218   -0.092145     0.13522     0.81634     0.42235     0.16543
0.075131    0.053369    -0.09994     0.22292     0.52337     0.50095     0.17777
-0.16003  -0.0021729    -0.10774     0.24046     0.34115     0.55487     0.18134
-0.41046   -0.045372    -0.11488     0.19336     0.25735     0.56981     0.17939
-0.63068   -0.068109    -0.11033     0.12385     0.20863     0.53766     0.17225
-0.77716    -0.07428   -0.093444    0.079679    0.098517      0.4584     0.15861
-0.82621   -0.071357   -0.067784    0.074157    -0.18342     0.34082     0.13555
-0.78788   -0.063561   -0.037252    0.062789    -0.65569     0.20116     0.10177
-0.68784   -0.050894  -0.0063954   -0.027833      -1.228    0.061489    0.062464
-0.56117   -0.031406    0.027385    -0.22499     -1.7714   -0.056416    0.028034
-0.43677  -0.0024977    0.062464    -0.48029     -2.1777    -0.14671   0.0039985
-0.33835    0.031607    0.096569    -0.72389     -2.3827     -0.2172   -0.013541
-0.28183    0.058891     0.11866    -0.94411     -2.3557    -0.28281    -0.03303
-0.26429    0.063438     0.11508     -1.1984     -2.1076    -0.34907   -0.062587
-0.25292    0.046548    0.091696     -1.4927     -1.6856    -0.39909   -0.095068
-0.20518    0.022837    0.071234     -1.7107     -1.1556     -0.4124    -0.11683
-0.10774   0.0010752    0.069934     -1.7198    -0.60989     -0.3861     -0.1204
0.0052977   -0.018413    0.092021     -1.5008    -0.16263    -0.33315    -0.10774
0.079029   -0.042124     0.12418     -1.1796     0.11833    -0.27306   -0.092145
0.079029   -0.072331     0.14821    -0.92235     0.25702    -0.22044   -0.085973
0.011469    -0.09994     0.15958    -0.74761     0.34375    -0.18439   -0.088247
-0.0837    -0.11001     0.16478    -0.46535     0.46328     -0.1597   -0.093444
-0.17172   -0.095717     0.17257     0.15601     0.63315    -0.13502   -0.093444
-0.23636   -0.060313      0.1781      1.1035     0.80692    -0.10514   -0.085648
-0.26981   -0.014191     0.16803      2.0545     0.92288   -0.075904    -0.07428
-0.26559     0.02706     0.13327        2.62     0.94172   -0.056416    -0.06681
-0.22304    0.050446    0.076106      2.6129     0.86604   -0.051544   -0.062262
-0.15029    0.047847    0.015042      2.1471     0.73157    -0.05804   -0.055766
-0.057065    0.020564   -0.033354      1.5199     0.57793   -0.062587   -0.039201
0.048497   -0.022961   -0.064861      1.0226      0.4165   -0.058365   -0.012242
0.16575   -0.074605   -0.084024     0.80238     0.22454    -0.04862    0.013743
0.27976    -0.12138    -0.10156     0.80367   -0.011267   -0.040825    0.023812
0.35154    -0.15191    -0.12105     0.85889    -0.25098   -0.043423    0.010819
0.34635    -0.15418    -0.13762     0.82576    -0.42735   -0.057065   -0.020362
0.25507    -0.12008    -0.13567     0.66011    -0.49815   -0.068758   -0.054142
0.10371   -0.049595    -0.10871     0.41748    -0.44716   -0.064861   -0.072981
-0.052843    0.044275   -0.063237     0.19434    -0.29775   -0.038876   -0.068109
-0.16198     0.13684   -0.014191    0.065712    -0.10709   0.0056225   -0.042774
-0.18829     0.19953    0.022188    0.044924    0.055318    0.059541   -0.011267
-0.12268     0.21707    0.031607    0.082602     0.14107     0.10956     0.01764
0.016016     0.19563   0.0095202     0.10371     0.14464     0.14854    0.039402
0.19531     0.15763   -0.030756    0.059865     0.09462     0.17127     0.05207
0.3863     0.12223   -0.068109   -0.048945    0.042651     0.18069    0.059216
0.55942     0.10501   -0.082725    -0.17952    0.044275     0.18329    0.064737
0.69064     0.10794   -0.064861    -0.27988     0.12775     0.18881    0.074806
0.7621     0.11671   -0.027833    -0.31756     0.28821     0.19499    0.089423
0.75788     0.10696   0.0033489    -0.29482     0.49121     0.18946    0.098517
0.64809    0.059216    0.012119    -0.24318     0.69162     0.15763    0.095594
0.41228   -0.021337 -0.00054884    -0.19576     0.83648    0.099492    0.079354
0.074806    -0.11196   -0.026533    -0.16912     0.86571     0.02706     0.05272
-0.30684    -0.19251   -0.060638    -0.17724      0.7176   -0.051868    0.019914
-0.66121    -0.24643   -0.094418    -0.23928     0.40124    -0.12268   -0.013216
-0.9321    -0.26429    -0.11975    -0.36303     0.03518    -0.16847   -0.038551
-1.0909    -0.24026    -0.12755    -0.52024    -0.22629    -0.17302   -0.053168
-1.1435    -0.18049    -0.11488    -0.65958     -0.2958    -0.13599   -0.055441
-1.1091   -0.097991     -0.0824    -0.74371    -0.19446   -0.077853    -0.04115
-1.0084   -0.014191   -0.037252    -0.78951    -0.02426   -0.021661   -0.013866
-0.85674    0.062139    0.016341    -0.83206    0.099167    0.016341    0.018615
-0.65796     0.12093    0.069934    -0.86226     0.12678     0.03518    0.050771
-0.41305     0.15698     0.10859    -0.81257    0.094945    0.036479    0.080328
-0.11813      0.1781     0.11768    -0.63068    0.087474    0.032257     0.11086
0.21935     0.19921    0.097543    -0.35361     0.16315    0.030633     0.14594
0.55974     0.23169    0.064413   -0.071682     0.28268    0.036479     0.17745
0.83778     0.26742    0.036804     0.14496     0.30087    0.047198     0.19174
0.99564     0.28821    0.021213     0.28138  -0.0021729    0.053044     0.18264
1.0099     0.28041    0.017965     0.36324    -0.75345    0.043625     0.15406
0.90242     0.23851    0.025111     0.42397     -1.8084    0.014068     0.11866
0.72442     0.17225     0.03583     0.47757     -2.7991    -0.03173    0.082602
0.53343     0.10144      0.0433     0.51557     -3.3321   -0.078827    0.047847
0.3772    0.039727    0.047523     0.51914     -3.1973    -0.10838    0.016016
0.27424  -0.0063954    0.048822     0.47367     -2.4554    -0.11001   -0.010943
0.21837   -0.039201    0.046548     0.37883     -1.3839   -0.087272   -0.033354
0.17712    -0.06551    0.040702      0.2528    -0.33185   -0.048945   -0.048945
0.11118   -0.097666    0.033556     0.11573     0.41845  -0.0080194    -0.05804
0.00042559    -0.14281    0.022512   -0.018738      0.7556    0.019589    -0.06616
-0.15093    -0.20583   0.0072465    -0.14087     0.73092    0.021538   -0.080127
-0.31074    -0.28573   -0.014516    -0.24188     0.47887  -0.0018481    -0.10189
-0.43741    -0.36628   -0.040825    -0.31594     0.16445   -0.039526    -0.12787
-0.48321     -0.4228   -0.068758    -0.35654   -0.070382   -0.071032    -0.14476
-0.4189    -0.43741   -0.092145    -0.36336      -0.161   -0.081426    -0.14087
-0.24156    -0.41305    -0.10351    -0.34484    -0.11391    -0.06551    -0.11163
0.033556    -0.35784   -0.098641    -0.31464     0.01017   -0.035628   -0.067459
0.35284    -0.27014   -0.081426    -0.28638     0.12613  -0.0083442   -0.031081
0.6351    -0.13794   -0.056741    -0.26819     0.15503  0.00010078   -0.017764
0.79133    0.033881   -0.031406    -0.26234     0.06961   -0.019712   -0.031081
0.75788     0.21058   -0.013216    -0.26137   -0.089871   -0.063886    -0.06551
0.51427     0.34342  -0.0057458    -0.26592    -0.23863    -0.11748    -0.10611
0.10339     0.40091  -0.0044465    -0.29417    -0.28703    -0.16133    -0.13892
-0.37278     0.38597  -0.0054209     -0.3783    -0.18731    -0.17627    -0.16165
-0.80022     0.32361  -0.0093186     -0.5498    0.042651    -0.15841    -0.17594
-1.0838      0.2554   -0.012892    -0.79438     0.32783    -0.11943    -0.18439
-1.1747      0.2083   -0.013541     -1.0442     0.57079   -0.077203    -0.18991
-1.0721     0.17712   -0.010943     -1.2163     0.70623   -0.050244    -0.19413
-0.81971     0.12743  -0.0067202     -1.2559     0.72962     -0.0405    -0.19186
-0.47412    0.038753  -0.0011985     -1.1478     0.68057   -0.036602     -0.1727
-0.096367   -0.073631   0.0059473    -0.89312     0.60684   -0.022311    -0.12982
0.24923     -0.1688     0.01829    -0.47249     0.53279   0.0095202   -0.064211
0.52174    -0.21102    0.037454     0.13652     0.45548     0.05272    0.012768
0.70266    -0.20031    0.054344     0.82868     0.36161    0.092346    0.082927
0.78841    -0.16035    0.054668      1.3734     0.24566     0.11703     0.13197
0.78191    -0.11943    0.036154      1.5611     0.11443      0.1232     0.15796
0.69194   -0.093119    0.014392      1.3549   -0.017439     0.11898      0.1664
0.54188   -0.084024   0.0059473     0.89982    -0.12625     0.11443     0.16705
0.36648   -0.082725   0.0085458     0.43177    -0.18212     0.11606     0.16575
0.19531   -0.080127    0.012443     0.13327    -0.16847     0.11801     0.16185
0.044924   -0.065186   0.0023744    0.032257   -0.089221     0.11476     0.15309
-0.082725   -0.034004   -0.027508     0.01764     0.03583     0.10469     0.14107
-0.19219     0.01829   -0.078503   -0.034654     0.19271    0.093645     0.12613
-0.28086    0.092346    -0.14476    -0.16035     0.37753    0.079679     0.11281
-0.3286     0.18784    -0.21005    -0.30035     0.59482    0.067336     0.10501
-0.30457      0.2986    -0.25325    -0.37895     0.81732    0.060515     0.10339
-0.19738     0.40871    -0.26494    -0.37148     0.97355    0.054344     0.10274
-0.037252     0.49868    -0.24513    -0.30197      1.0018    0.039402     0.10047
0.1336      0.5526    -0.20323     -0.2068     0.90047    0.009845    0.090397
0.27261     0.55974    -0.15353    -0.11715     0.72345   -0.030756    0.074157
0.35219     0.51687    -0.10709   -0.046996     0.54513   -0.072981    0.053044
0.37006     0.43469   -0.068758  -0.0041217     0.41585    -0.10546    0.032582
0.34732     0.33075   -0.038227    0.014068     0.35706     -0.1256    0.011469
0.30412     0.22259   -0.011592    0.028684     0.37201    -0.13697  -0.0083442
0.25735     0.12807    0.025111    0.084551     0.45743    -0.14314    -0.02361
0.21902     0.06084    0.076431     0.22454     0.58995    -0.14216   -0.037252
0.19531    0.028034     0.14464     0.45028     0.72377    -0.13762   -0.051219
0.18589    0.023487     0.21967     0.70948     0.81634     -0.1295   -0.063237
0.17745    0.035505     0.28171     0.92223     0.84135    -0.11878   -0.072656
0.15633    0.044599      0.3038      1.0164     0.78841    -0.10514   -0.072006
0.11931    0.038103     0.27976     0.96413     0.66855   -0.084349   -0.059989
0.074482   0.0091954      0.2161     0.79231     0.50258   -0.054792   -0.044073
0.033231   -0.036927     0.13165     0.56786     0.31646   -0.021986   -0.027833
0.0078962   -0.086623    0.049796     0.35544     0.12093   0.0052977   -0.013541
0.0010752    -0.12982   -0.014516     0.19823   -0.092469    0.021213  -0.0031473
0.0069217    -0.16198   -0.059989     0.10177    -0.34517    0.024461   0.0010752
0.018615    -0.18309   -0.089546    0.050771    -0.65796    0.020564 -0.00022403
0.035505    -0.19121    -0.10514    0.031607     -1.0292    0.016016  -0.0028225
0.054993    -0.18926    -0.10741    0.029009     -1.4278    0.012443  -0.0083442
0.062464    -0.18861    -0.10416    0.019589     -1.7928   0.0026992   -0.016464
0.042326    -0.19446    -0.10579  -0.0096434     -2.0446   -0.017764   -0.030431
-0.0034721    -0.20485    -0.10936   -0.052843      -2.116   -0.042774   -0.051544
-0.056091    -0.21362    -0.10903   -0.086623     -1.9913   -0.064211   -0.074605
-0.093769    -0.21427    -0.10156   -0.096367     -1.7055   -0.073631    -0.09182
-0.10059     -0.2055   -0.089546   -0.098641     -1.3319    -0.06616    -0.10189
-0.071032    -0.18569   -0.075904    -0.11943    -0.95516   -0.047646    -0.10838
-0.023285    -0.15321   -0.056416    -0.15808     -0.6245   -0.024909    -0.11033
0.011144    -0.11163   -0.014516    -0.17107     -0.3442  0.00042559    -0.10416
-0.0024977    -0.06681    0.050446    -0.11943   -0.098316    0.025761   -0.092145
-0.08305   -0.037577     0.11963   -0.015815     0.13067    0.045249   -0.078827
-0.21622     -0.0405     0.16575    0.077405     0.35187     0.05142   -0.068758
-0.36466   -0.080776     0.17095    0.096569     0.55877    0.043625   -0.063561
-0.48094    -0.14769      0.1349    0.029333     0.72052    0.031282   -0.061937
-0.52998    -0.21655    0.076755   -0.084024     0.78678    0.017316   -0.059014
-0.49848     -0.2578     0.02641    -0.18342     0.72864   0.0046481   -0.053492
-0.39649    -0.24773   0.0085458    -0.22272     0.55747  -0.0031473   -0.043423
-0.25617    -0.18796    0.023812    -0.19186     0.29892  -0.0034721   -0.029457
-0.12333    -0.10091    0.056292    -0.11033   -0.037252  0.00042559   -0.013216
-0.035953   -0.019712    0.083901    -0.01614    -0.41565   0.0036737  0.00042559
-0.01614    0.028684    0.095594    0.057917    -0.72552    0.003024   0.0059473
-0.052193    0.034206    0.092671    0.099817     -0.8012   0.0039985   0.0049729
-0.11488   0.0056225    0.083576     0.11768    -0.51374    0.016991   0.0039985
-0.16912   -0.041475    0.080653     0.12905     0.11378    0.050446    0.012443
-0.18634   -0.085324    0.088448     0.14432     0.87513     0.10112    0.032582
-0.16263    -0.11196     0.10501     0.15666      1.4702     0.15471    0.059216
-0.11586     -0.1217     0.12223     0.14561      1.6511     0.19336    0.081303
-0.06681    -0.13372     0.13165    0.091047      1.3247     0.20083    0.088773
-0.021986    -0.16133     0.12645 -0.00054884      0.5932      0.1716    0.074806
0.021863    -0.19576     0.10566    -0.13015    -0.30359     0.11378    0.039402
0.074482    -0.22467    0.068635    -0.31301     -1.1085    0.037454   -0.011267
0.13977    -0.23311    0.012768    -0.54428     -1.6567   -0.039526   -0.063886
0.2122    -0.21817   -0.065186     -0.7658     -1.8802    -0.10709    -0.10514
0.27976    -0.18277    -0.16588    -0.90254     -1.7951    -0.15483    -0.12495
0.32004    -0.13924    -0.27501    -0.92333     -1.4606    -0.17302    -0.11618
0.31646   -0.089871    -0.36921    -0.85479    -0.96393    -0.15905   -0.082076
0.26969   -0.022311    -0.41468    -0.72812    -0.39129    -0.11553   -0.022961
0.19986     0.07708    -0.39032    -0.54525      0.1755   -0.057715    0.056292
0.12807      0.2057    -0.29385    -0.30587     0.67505   -0.012892     0.14334
0.061489      0.3327    -0.15451   -0.043099      1.0882  -0.0063954      0.2174
0.003024     0.42268   -0.018738     0.18134       1.412   -0.055766      0.2593
-0.039201     0.45158    0.070584     0.29827      1.6115    -0.15613     0.25962
-0.048945     0.42235    0.089098     0.26222      1.6102    -0.28703     0.22162
-0.013866     0.35122    0.039078     0.10534      1.3377    -0.42247      0.1625
0.077405     0.26287   -0.051219   -0.024909     0.81959    -0.52869     0.10404
0.21675     0.18134    -0.13892    0.048172     0.21317    -0.58163    0.067336
0.3733      0.1297    -0.18536     0.36129    -0.28638    -0.57416    0.054993
0.49024     0.11541      -0.174     0.78289    -0.57221    -0.51732    0.055318
0.50615     0.11866    -0.11618      1.1259    -0.66933    -0.43027    0.054668
0.37525     0.10436   -0.045697      1.2594     -0.6794    -0.32731    0.047847
0.088773    0.050771   0.0069217      1.1538    -0.67907    -0.21752    0.031932
-0.31464   -0.032055    0.024461     0.87773    -0.65861    -0.11358    0.016341
-0.74176    -0.10936    0.010495      0.5461     -0.5485   -0.021012   0.0072465
-1.0964    -0.14996   -0.017764     0.26514    -0.29937    0.053044   0.0072465
-1.3121    -0.14152   -0.044073    0.087149    0.063113     0.11378    0.013743
-1.3709   -0.091495   -0.056091    0.013093     0.43892     0.16803    0.023162
-1.2998   -0.027833   -0.051868   0.0049729     0.70493     0.21837    0.029009
-1.1432    0.014068   -0.037252    0.016016     0.79166     0.25605    0.025111
-0.93275    0.016341   -0.016789    0.008221     0.72215     0.27164    0.009845
-0.67387   -0.021337    0.011469   -0.031081      0.5867     0.26807   -0.007045
-0.36823   -0.081101    0.041351   -0.091495     0.48341     0.25215   -0.013541
-0.03303    -0.13242    0.063113    -0.15548      0.4688     0.22844  -0.0050961
0.29145    -0.14866    0.071883    -0.19316     0.54318     0.19953   0.0059473
0.55227    -0.12527    0.067661    -0.16263     0.67148     0.16478 -0.00022403
0.70136   -0.082076    0.054344   -0.043423     0.81017     0.12255   -0.029782
0.7111    -0.04862    0.037454     0.10566     0.91216    0.070259   -0.080776
0.58898   -0.041799    0.019264     0.18914     0.92613   0.0091954    -0.13177
0.3863   -0.054142   0.0033489     0.16348     0.81991   -0.050244     -0.1636
0.16543   -0.059989  -0.0034721     0.06084     0.60619   -0.094743    -0.16555
-0.027833   -0.044073  -0.0041217   -0.050894     0.33498    -0.11521    -0.13957
-0.1727  -0.0011985   0.0039985    -0.11163    0.086175    -0.11261    -0.10091
-0.26104    0.056292    0.017316    -0.10546   -0.064536   -0.096367   -0.068109
-0.28508     0.11541    0.031607   -0.054142   -0.079152   -0.077528   -0.046022
-0.24221     0.16185    0.046548   0.0085458    0.025111   -0.056741   -0.034329
-0.14541     0.18297    0.061489    0.056942     0.19044   -0.030106   -0.029457
-0.025234     0.17257     0.06896     0.07708     0.34505    0.008221   -0.027833
0.088448      0.1349    0.064088    0.067661     0.43112    0.054668   -0.025234
0.1781     0.08585    0.053694    0.039078     0.43209     0.10761   -0.025234
0.22844    0.040052    0.045249   0.0039985     0.38337     0.15276   -0.031081
0.22357   0.0046481    0.042651   -0.028482     0.31646     0.17907   -0.043423
0.16738   -0.018088    0.049147   -0.054142      0.2096     0.18459   -0.057065
0.076106   -0.031406     0.06084   -0.075579    0.012768     0.17615   -0.066485
-0.028157     -0.0405    0.066362    -0.09994    -0.28183      0.1625   -0.069408
-0.12625   -0.047971    0.054019    -0.13469    -0.61736     0.14854   -0.067134
-0.19966   -0.046671    0.025436    -0.17627    -0.91878     0.13327    -0.05739
-0.22077    -0.02361  -0.0031473    -0.20843      -1.089     0.11606   -0.039526
-0.16685    0.031932   -0.021012    -0.21947     -1.0675     0.10566   -0.013541
-0.045372     0.11086   -0.022311    -0.20225    -0.86973     0.10956    0.017316
0.098193     0.19271  -0.0063954    -0.15938    -0.57383      0.1271     0.04395
0.21123     0.25345    0.020239    -0.09994    -0.24318     0.15049    0.057917
0.26417     0.27359    0.052395   -0.038227     0.10274     0.16835    0.053044
0.25085      0.2502    0.076431    0.011144      0.4584     0.17485    0.034206
0.19628     0.19304    0.080978    0.038428     0.81082     0.17192    0.012443
0.13749     0.12255    0.069285    0.038428      1.0866     0.16803  -0.0015233
0.10859     0.06019    0.050771    0.016991      1.1509      0.1664  -0.0073698
0.11995    0.015042    0.030633   -0.014516      0.8498     0.16705  -0.0054209
0.16445    -0.01549    0.012768   -0.045697     0.10696     0.16218   0.0026992
0.22909   -0.035628   0.0017248   -0.077528    -0.91748     0.14204     0.01764
0.29665   -0.044398  -0.0018481    -0.11228     -1.8695     0.10177    0.036479
0.36161   -0.045047 -0.00087364    -0.14671     -2.4399    0.044599    0.056292
0.42657     -0.0405   0.0010752    -0.17562     -2.5097   -0.021012    0.072208
0.49413   -0.038551  0.00075039    -0.19283     -2.1839   -0.087597    0.078379
0.56429   -0.043423 -0.00087364    -0.19381       -1.71    -0.15126    0.078055
0.6325   -0.056741  0.00010078    -0.18049     -1.2978    -0.20875    0.072858
0.68317   -0.085324   0.0020496    -0.15678     -1.0113     -0.2552    0.064088
0.68902    -0.12398    0.003024     -0.1269    -0.78788    -0.28378     0.05207
0.62633    -0.16295   0.0033489   -0.095393     -0.5394    -0.29028    0.035505
0.48471    -0.19933  0.00042559   -0.069083    -0.22954    -0.27664    0.013418
0.27261    -0.23571  -0.0089938   -0.053817     0.11021    -0.24448   -0.012892
0.019264    -0.26819   -0.025234   -0.053168     0.41748    -0.19901   -0.039201
-0.22174     -0.2854   -0.045697   -0.064211     0.64095    -0.14541   -0.061613
-0.39876    -0.27761   -0.069408   -0.082076     0.77119   -0.098641   -0.072331
-0.48029    -0.24903   -0.088572    -0.10091     0.82219   -0.070707   -0.072006
-0.4686    -0.20908   -0.099615    -0.11391     0.82219   -0.065186   -0.067784
-0.39389     -0.1701    -0.10059    -0.11683     0.80432   -0.075579   -0.068758
-0.29807    -0.13892   -0.090196    -0.09929     0.77119   -0.084999   -0.072656
-0.21362    -0.11651   -0.073955   -0.065186     0.67213   -0.087597   -0.076879
-0.15029    -0.10124   -0.059014   -0.030756     0.44866   -0.081101   -0.079152
-0.10286   -0.085973   -0.051868   -0.011267     0.07773   -0.070058    -0.08305
-0.061613   -0.067134   -0.057715   -0.012567    -0.40753   -0.057065    -0.09182
-0.024909   -0.043099   -0.072331   -0.033354    -0.92268   -0.047646    -0.10676
-0.00054884   -0.010943    -0.07493   -0.057065     -1.3868   -0.043748    -0.12398
-0.00087364    0.023487   -0.050244   -0.055766      -1.736   -0.049595    -0.13534
-0.028807    0.056617  0.00075039   -0.010618     -1.9059   -0.059664    -0.13275
-0.066485    0.091047    0.064737    0.074806     -1.8523   -0.062912    -0.10968
-0.088572      0.1362     0.12028     0.17257      -1.584   -0.053492   -0.070382
-0.088896     0.18914     0.14626     0.24208     -1.1799   -0.030756    -0.03173
-0.081426     0.24338     0.12807      0.2502    -0.75573  -0.0041217 -0.00022403
-0.076229     0.28788    0.071234     0.18719    -0.40493    0.027385    0.027385
-0.075255     0.31484  -0.0028225    0.077405    -0.16588    0.066686    0.054344
-0.076229     0.31581   -0.070382   -0.046022   -0.019712     0.11151     0.08585
-0.083375     0.28788    -0.11651    -0.15905    0.085525     0.15211     0.12353
-0.10091     0.23689     -0.1334     -0.2474     0.19206     0.17874     0.15633
-0.12138      0.1742    -0.12398    -0.31074     0.31744     0.18622      0.1742
-0.13924     0.11768    -0.10221    -0.35654     0.44931      0.1781     0.17257
-0.14801    0.076755   -0.079152    -0.39097     0.55844     0.15893     0.15828
-0.15873    0.054993   -0.062587    -0.41403     0.61171      0.1323     0.13717
-0.19511    0.048822   -0.052518    -0.39844      0.5971     0.10339     0.11476
-0.27469    0.050446   -0.036927    -0.30197     0.53668     0.07773    0.093645
-0.38804    0.057267  -0.0073698    -0.11066     0.48471    0.057592    0.072533
-0.4962    0.066037    0.030633     0.12775     0.49511     0.04395    0.053694
-0.55824    0.070584    0.064413     0.32296     0.57111    0.033556    0.038103
-0.54752    0.054019    0.083576     0.40156     0.65849    0.023487     0.02706
-0.45073  -0.0037969    0.080328     0.34472     0.69129   0.0078962    0.020888
-0.26397    -0.11001    0.056617     0.18264     0.63413    -0.01484    0.019264
0.022512     -0.2461    0.023487   -0.023935     0.49673    -0.04927    0.019264
0.39961      -0.377  -0.0083442    -0.21849     0.32166   -0.092469    0.015042
0.82056    -0.47119    -0.03303    -0.34907     0.15893    -0.13762   0.0033489
1.2149    -0.50952   -0.044073    -0.38837     0.05272    -0.17205  -0.0037969
1.5134    -0.48841   -0.035628     -0.3705    0.026085    -0.18764 -0.00054884
1.6569    -0.41435  -0.0076946    -0.35621    0.073507    -0.18439    0.010495
1.5936    -0.29807    0.032257    -0.34192     0.16803    -0.16685    0.022837
1.3042    -0.15093    0.079679    -0.25617     0.28821    -0.13145    0.031932
0.82446    0.014392     0.13035   -0.081751     0.41715   -0.077528    0.037778
0.24598     0.17874      0.1729    0.084551     0.53311   -0.014516    0.044275
-0.29775     0.32231     0.19466     0.13457     0.62406    0.041351     0.05207
-0.69629     0.42592     0.19044    0.075131      0.6809    0.079679    0.063438
-0.90871     0.48439     0.16088    0.033231     0.71793    0.097543    0.073832
-0.94379      0.5016     0.11606     0.14919      0.7582    0.094945    0.080653
-0.84342     0.48959    0.066037     0.46198     0.81602    0.072208    0.080003
-0.6703     0.46523     0.01829      0.8852      0.8891    0.041676    0.071558
-0.49393     0.44639   -0.019063      1.2061     0.96348    0.013743    0.064413
-0.35654     0.44379   -0.041799      1.1847      1.0223  -0.0024977     0.06019
-0.26981     0.45191   -0.052193     0.73871      1.0388  -0.0057458    0.056617
-0.21849     0.45191   -0.057715    0.074157     0.98329   0.0010752     0.05272
-0.17075     0.42105   -0.063237    -0.44066     0.83745    0.013743    0.048497
-0.088572     0.35187   -0.069083     -0.5433     0.61724    0.026085    0.048172
0.044599     0.25085   -0.075255    -0.20713     0.37363    0.036479    0.054993
