-0.036278    0.042651    -0.43612   -0.013866    -0.32536   -0.078827    -0.12268
-0.04992    0.037454    -0.43806    -0.10254    -0.15451   -0.071682    -0.13015
-0.059989    0.033556    -0.44229    -0.22986    0.035505   -0.057065    -0.13307
-0.064861    0.033556    -0.44326    -0.36563      0.2109   -0.041799    -0.12852
-0.065186    0.037454    -0.42767    -0.47477     0.34505   -0.027833    -0.11618
-0.064536    0.042975    -0.38642    -0.53583     0.42332   -0.012242    -0.10091
-0.064861    0.049147    -0.32633    -0.54655     0.44834   0.0062721   -0.085973
-0.064211    0.054344    -0.26007    -0.51472     0.44054    0.030957    -0.07428
-0.063561    0.059216    -0.19251    -0.42345     0.43827    0.056942   -0.068758
-0.058689    0.064737    -0.11715    -0.23733     0.47627    0.080653   -0.069408
-0.048296     0.06831   -0.025234    0.064737     0.56592     0.10047    -0.06681
-0.033354    0.069934    0.092346     0.42462     0.68609     0.11346   -0.054792
-0.021661    0.065712     0.23039     0.73157     0.79945      0.1219   -0.037252
-0.019063    0.054344     0.35934     0.89949     0.87058      0.1271   -0.022311
-0.026209    0.038428     0.43957     0.90372      0.8891      0.1336   -0.010943
-0.038227    0.010819     0.44086     0.78354     0.86409     0.14204  -0.0044465
-0.044398   -0.038551     0.35544     0.60814     0.81244     0.15373  -0.0015233
-0.040825    -0.11033      0.2057     0.43794     0.75398     0.16705   0.0010752
-0.030431    -0.18764    0.035505     0.30672     0.70493     0.18199   0.0062721
-0.014516    -0.24545    -0.11196     0.22259     0.66563     0.19401    0.015042
0.0069217    -0.26494    -0.20323     0.17712     0.62373     0.20311    0.025111
0.024786    -0.24123    -0.21687     0.14919      0.5487      0.2044    0.033881
0.033881    -0.18471    -0.14769     0.12418     0.41488     0.19434    0.039078
0.032582    -0.11358   -0.017764    0.093645     0.20538     0.17257      0.0433
0.023487   -0.042449     0.12905    0.058891    -0.07428     0.14269    0.049472
0.014392    0.015042     0.24111    0.026735    -0.37798     0.11313    0.058566
0.012443    0.054668     0.28203  -0.0011985    -0.63685    0.089748    0.065062
0.019589    0.077405     0.24273   -0.025234    -0.79828    0.073832    0.067661
0.032257    0.086175     0.14854   -0.048296    -0.84018    0.065387    0.065062
0.042326     0.08585    0.050121   -0.069083    -0.77229    0.057917    0.058891
0.044599    0.083901   -0.010618     -0.0824    -0.62548    0.048497    0.050121
0.037454    0.084876   -0.011917   -0.084999    -0.42994    0.042326      0.0433
0.028034    0.092021    0.039727   -0.076229     -0.2159    0.041676      0.0433
0.021538     0.10794     0.11606    -0.05804   -0.016789    0.049472     0.05142
0.019589     0.12937     0.18102   -0.031406     0.13132    0.063438    0.064413
0.023487     0.14691     0.20765  -0.0041217     0.19661    0.079354    0.076755
0.028684     0.15244     0.17647     0.01829     0.16543    0.098193    0.085525
0.029983     0.14269    0.090397    0.030308    0.056292     0.11638    0.091372
0.029333     0.11963    -0.03303    0.029333   -0.097341      0.1219    0.095594
0.029009    0.089098    -0.16782    0.016016    -0.25845     0.11021     0.10047
0.031282    0.062789    -0.27956  -0.0021729    -0.39487    0.087474     0.10469
0.033881    0.047198    -0.34387   -0.018088    -0.47444    0.061165     0.10566
0.037778    0.042975    -0.35199   -0.027183    -0.47022    0.037129     0.10339
0.039727    0.045899    -0.31139   -0.027833    -0.36238     0.01894    0.094945
0.042651     0.05207    -0.24188   -0.023285    -0.16782   0.0095202    0.083576
0.045899    0.058891     -0.1649   -0.017764    0.066037    0.016016     0.07708
0.045899    0.063113   -0.088896   -0.012567     0.27944    0.038103    0.079029
0.042326    0.059541   -0.027183  -0.0096434     0.43145    0.072208    0.085525
0.037778    0.049796   0.0039985   -0.010943     0.51232     0.10631    0.091696
0.033231    0.037129   0.0095202   -0.015815     0.54026     0.13457    0.093645
0.031932    0.028034    0.027709   -0.021986     0.53896     0.15211    0.095594
0.029009     0.02706    0.092021   -0.029132     0.52109     0.15991     0.10209
0.023487    0.033881     0.19206    -0.03303     0.48471     0.16608     0.11151
0.01894    0.045574     0.27586   -0.031081     0.42755     0.17582     0.11801
0.021863    0.058891     0.28431    -0.02426     0.35544     0.18362     0.11995
0.034206    0.072208     0.19369   -0.020687     0.28788     0.18524     0.11833
0.047198      0.0852    0.050446   -0.028157     0.24793     0.17777     0.11573
0.055968    0.095594   -0.045047   -0.044723     0.24598      0.1664     0.11638
0.053694    0.098842  -0.0093186   -0.060313     0.27359     0.16056     0.11963
0.042001    0.089098     0.12483   -0.070058     0.31127     0.16705     0.12125
0.025111    0.062789     0.19791   -0.074605     0.33595     0.18199     0.11833
0.0065969     0.02706    0.063113   -0.074605     0.32978     0.19336     0.10956
-0.0099683   -0.011267     -0.2893   -0.074605     0.28106     0.19141    0.095269
-0.023285   -0.040825    -0.71805   -0.073955     0.19174     0.17972     0.07773
-0.028157   -0.055766     -1.0289   -0.072331    0.076106     0.16348    0.064413
-0.021337   -0.058365     -1.0909   -0.067784   -0.050244     0.14561    0.060515
-0.0057458   -0.051868    -0.88662   -0.060963    -0.17075     0.12807    0.063763
0.011794   -0.044073    -0.50303   -0.045697    -0.27339     0.11183     0.06961
0.024137   -0.040825   -0.063561   -0.025559    -0.35849    0.098193    0.075781
0.029658   -0.042449     0.31939  -0.0028225    -0.44261    0.084876    0.080653
0.032582   -0.045697     0.58768    0.016991    -0.54752    0.071234    0.085525
0.036804   -0.045372     0.72799    0.031282     -0.6755    0.056292    0.091372
0.041027   -0.038227     0.72897     0.03518    -0.82621    0.042651    0.096893
0.048172    -0.02426     0.53993    0.022188     -1.0006    0.030957     0.10209
0.057267  -0.0031473    0.096244  -0.0037969     -1.1689    0.019914     0.10599
0.065387     0.01894    -0.55207   -0.026858     -1.2839     0.01017     0.10501
0.063438    0.032906     -1.1796    -0.03173     -1.3147  -0.0015233    0.097218
0.047198    0.035505     -1.5424   -0.012892     -1.2553   -0.014191    0.081627
0.025436    0.029983      -1.531    0.027385     -1.1211   -0.025884    0.062464
0.0091954    0.023487     -1.2212     0.07773    -0.94152   -0.034654    0.045249
0.0043233    0.022512    -0.79275     0.12483    -0.74468   -0.035303    0.040052
0.012768    0.032582    -0.41955     0.15666     -0.5433   -0.027508    0.048172
0.025111    0.050121    -0.19543      0.1729    -0.34127   -0.011917    0.063763
0.038103     0.06831    -0.12852     0.17257    -0.14281    0.010819    0.076431
0.049147    0.081952    -0.16458     0.16575    0.039727    0.037129    0.083901
0.057267    0.087149     -0.2107     0.15179     0.19239    0.059216      0.0865
0.057917    0.079029    -0.15061     0.12807     0.30055     0.06831    0.079679
0.045574    0.053044    0.099817    0.091047     0.35447    0.063113    0.065712
0.022837    0.015042     0.52012    0.045899     0.36129    0.044599    0.047523
0.00042559   -0.023285     0.99953   0.0023744     0.34537    0.021538    0.031282
-0.012892   -0.047321      1.4124   -0.028482      0.3379   0.0059473    0.020564
-0.016464   -0.052843      1.6751   -0.039526     0.36259   0.0036737    0.016991
-0.013541   -0.044073      1.7612   -0.032055     0.42138    0.015367    0.015692
-0.007045   -0.030431      1.6781   -0.014191     0.49121    0.030633    0.012119
0.00075039   -0.023285      1.4702   0.0056225     0.53863    0.038103   0.0069217
0.0010752   -0.026209       1.196    0.014068     0.53961    0.029009 -0.00087364
-0.008669   -0.036927     0.91216   0.0039985     0.48764   0.0056225  -0.0089938
-0.026858   -0.053168     0.66141   -0.021986     0.39149    -0.02426   -0.017114
-0.044723   -0.067134     0.46328   -0.055116     0.27684   -0.047971   -0.021661
-0.056091   -0.071682     0.32198    -0.08305     0.18654   -0.056091   -0.023285
-0.059339    -0.06551     0.22584   -0.092469     0.15633   -0.050244   -0.021661
-0.052843   -0.053817     0.15958   -0.080127     0.20213   -0.036927   -0.019712
-0.041799   -0.038551     0.10534   -0.047971     0.31549    -0.02361   -0.019063
-0.026858   -0.018738    0.048822  -0.0099683      0.4675   -0.013866   -0.016464
-0.0067202   0.0026992   -0.019388    0.021213     0.62081  -0.0073698   -0.011267
0.016341    0.021863   -0.093444     0.03453     0.73319  -0.0024977  -0.0024977
0.037129    0.037454    -0.15029    0.018615     0.77542   0.0017248   0.0056225
0.052395    0.047523     -0.1649   -0.027183     0.73676  -0.0018481    0.010819
0.055318    0.053694    -0.13242   -0.095717      0.6312    -0.01549    0.013418
0.044924    0.056942   -0.068109    -0.16295     0.48699    -0.03303    0.016016
0.02706    0.059541   0.0095202    -0.19251     0.33075    -0.04862     0.01894
0.012443     0.06084    0.092996    -0.15938     0.16868   -0.059339    0.025111
0.008221     0.06019     0.17192   -0.068434  0.00042559   -0.069733    0.031932
0.012768    0.056617     0.23299    0.047847     -0.1662   -0.081101     0.03583
0.015692     0.05142     0.26352     0.15179    -0.30977   -0.095393    0.037129
0.0088706    0.042326     0.25118      0.2083    -0.41143    -0.11001    0.031282
-0.012242    0.025761     0.18946     0.20083    -0.46827    -0.12105     0.01894
-0.044398  0.00042559    0.098842      0.1232    -0.48516    -0.12787   0.0020496
-0.079802   -0.037577    0.016016   -0.017764    -0.46762    -0.13275   -0.013541
-0.11228   -0.080776   -0.029457    -0.18861    -0.41111    -0.13502   -0.022636
-0.13892     -0.1191   -0.027833    -0.33088    -0.30814    -0.13242   -0.020687
-0.15126    -0.14184   0.0046481    -0.38772    -0.16295    -0.12592   -0.011592
-0.14801    -0.14346    0.043625    -0.33867  -0.0031473    -0.11975  0.00075039
-0.13437    -0.12365    0.069285    -0.21102     0.13555    -0.11423    0.011794
-0.11456   -0.086298    0.064737   -0.060638     0.22584    -0.10286    0.023487
-0.090196   -0.046671   0.0088706    0.061489     0.25248   -0.083375    0.035505
-0.060963   -0.019063    -0.11423     0.12905        0.22   -0.059989    0.049472
-0.029132  -0.0093186    -0.28346     0.14432     0.14367   -0.037902    0.062139
0.0014   -0.013541    -0.44066     0.12255      0.0433    -0.02361    0.072858
0.022188   -0.021012    -0.52869    0.087474    -0.06551    -0.01614    0.078055
0.028034   -0.022311     -0.5066    0.058891     -0.1727   -0.012567    0.073507
0.024786    -0.01484     -0.3718    0.049796    -0.27436   -0.011592    0.063763
0.024461  -0.0011985    -0.16133    0.059865     -0.3705   -0.011917    0.054019
0.028684    0.016016    0.070909    0.079029     -0.4595   -0.008669    0.047847
0.03518    0.030957     0.28138    0.092996    -0.52674  -0.0041217    0.048822
0.041027    0.040702      0.4571    0.091696    -0.55142  -0.0054209     0.05207
0.042651    0.044924     0.60814    0.075456    -0.51699   -0.017114    0.051096
0.036154    0.045574     0.75041    0.051745    -0.43482     -0.0405    0.042326
0.027709    0.042001     0.84395    0.032906     -0.3286   -0.071357    0.028684
0.017316    0.035505     0.72734    0.025761    -0.21005   -0.099615    0.015367
0.0062721    0.026085     0.22649     0.02641   -0.073631    -0.11586   0.0065969
-0.0024977    0.017316    -0.62743    0.032257    0.080978    -0.11683  0.00010078
-0.0047713   0.0088706     -1.5752    0.040377     0.22617    -0.10254  -0.0089938
-0.00087364   0.0033489     -2.3255    0.049147     0.31062   -0.080451   -0.018738
0.0043233 -0.00054884     -2.6831    0.054344     0.28593   -0.063886   -0.028157
0.0059473  -0.0031473     -2.6006    0.055318     0.15146   -0.061937   -0.035953
0.0039985  -0.0063954     -2.1709     0.05272   -0.045697   -0.072006   -0.042774
0.0046481  -0.0057458     -1.5681    0.047523     -0.2591   -0.083375   -0.045697
0.008221  -0.0041217    -0.96847    0.038428    -0.45268   -0.089221   -0.043423
0.0091954  -0.0034721    -0.49588    0.023487    -0.59884   -0.090521   -0.039851
0.0062721  -0.0047713    -0.19316   0.0023744    -0.68199   -0.088572   -0.040825
-0.0057458  -0.0060706   -0.032055   -0.024585    -0.69726   -0.084999   -0.045697
-0.020362  -0.0060706    0.046548   -0.051868    -0.65666   -0.081101   -0.054142
-0.03173  -0.0047713    0.094945   -0.072656    -0.57513   -0.077853   -0.065186
-0.038227  -0.0034721     0.14399   -0.080127    -0.46405   -0.077528   -0.072981
-0.038876  -0.0028225     0.20895   -0.076229    -0.34322   -0.078503   -0.071682
-0.034978  -0.0024977     0.29275   -0.063886     -0.2435   -0.082076   -0.064861
-0.027508  -0.0024977     0.38078   -0.047971    -0.19381    -0.09182   -0.056091
-0.018088  -0.0024977     0.44639    -0.03303    -0.20258    -0.10611    -0.04862
-0.0093186  -0.0024977      0.4701   -0.021661    -0.25552    -0.12138   -0.044723
-0.0018481  -0.0050961     0.45581   -0.013866    -0.31918    -0.13177   -0.042124
0.0078962   -0.010293      0.4256   -0.012567    -0.35199    -0.13469   -0.041799
0.01894    -0.01549     0.40708   -0.014516     -0.3299    -0.12755   -0.043423
0.029333    -0.01614     0.41033   -0.014191       -0.25    -0.11586   -0.046996
0.033556  -0.0093186     0.42203   -0.010943    -0.13534    -0.10221   -0.052518
0.037778   0.0049729     0.42722  -0.0028225   -0.014191   -0.087272   -0.057715
0.044275    0.020888     0.41878   0.0078962    0.091372   -0.073955   -0.063886
0.050771    0.031282     0.39831    0.019589     0.16933   -0.059664   -0.069083
0.049472    0.033556     0.37688    0.029009     0.21382   -0.044723   -0.071682
0.039727    0.029658     0.36648    0.033881     0.22389   -0.031406   -0.067459
0.025111    0.021538     0.36876    0.034206     0.21252   -0.022961   -0.061288
0.011794    0.012119      0.3733    0.030308     0.19466   -0.022961   -0.056741
0.00075039   0.0017248     0.37201     0.02641     0.18979   -0.028482   -0.059339
-0.0073698  -0.0054209     0.35804    0.028359      0.2109    -0.03303   -0.068758
-0.012242  -0.0063954     0.33335    0.032257     0.25995   -0.032055   -0.075904
-0.012567  -0.0024977     0.30737    0.036804     0.33011   -0.026209   -0.074605
-0.0063954   0.0036737     0.28203    0.039402     0.40936   -0.020687   -0.063561
0.0046481   0.0069217     0.25475    0.042975     0.48764   -0.013541   -0.047971
0.014717   0.0046481     0.22812    0.046223     0.55552  -0.0050961   -0.033679
0.020888  -0.0018481     0.20408    0.048822     0.60911  0.00075039    -0.02426
0.020239  -0.0047713     0.18102    0.047523     0.64452    0.003024   -0.022961
0.016016 -0.00087364     0.15926    0.042001     0.66466    0.003024   -0.025234
0.012443   0.0091954     0.13782    0.034855     0.67473   0.0052977    -0.02426
0.011794    0.022837     0.11671    0.031282     0.68317    0.013093   -0.018088
0.016016    0.036479    0.092671    0.029658     0.69616    0.028034   -0.010943
0.023487    0.046223    0.068635    0.028684     0.71403    0.045899   -0.007045
0.030633    0.048172    0.046548    0.029009     0.73514    0.061814  -0.0076946
0.030957    0.044599    0.029658    0.032582     0.75658    0.074482   -0.011267
0.021538    0.039402    0.021538    0.039078     0.77444    0.079354   -0.015165
0.0062721    0.036479     0.02706    0.046223     0.78289    0.074806   -0.019388
-0.0067202    0.037778    0.046873    0.053369     0.77379    0.059865   -0.021986
-0.011592    0.042651    0.071234    0.058891     0.73189    0.039078   -0.019388
-0.0076946    0.046223    0.089098    0.061814     0.64549    0.023812   -0.012242
0.00042559    0.047198    0.088773     0.06084     0.49218    0.017965  -0.0031473
0.0072465    0.048172    0.069934    0.057592      0.2489    0.022837   0.0059473
0.009845    0.054019    0.037454    0.050121   -0.084674    0.031607    0.013093
0.011144    0.058891 -0.00022403    0.036154    -0.47022    0.034855    0.016341
0.011469    0.059865   -0.034978    0.014392     -0.8405    0.024786    0.013418
0.008221    0.055643   -0.067459   -0.010293     -1.1244  -0.0031473   0.0072465
0.00010078      0.0433    -0.10221   -0.034329     -1.2741   -0.042449   0.0010752
-0.014516    0.026735    -0.14444   -0.059339     -1.2822   -0.088247  -0.0076946
-0.03303   0.0078962    -0.18861   -0.086948     -1.1861    -0.13404   -0.020037
-0.051868   -0.012892    -0.22077    -0.11618     -1.0494    -0.17205   -0.036278
-0.067784   -0.035628    -0.21785    -0.14184     -0.9217    -0.19543   -0.050244
-0.073306   -0.062262    -0.16718    -0.15678    -0.81874    -0.20355    -0.05804
-0.068109   -0.090521   -0.091495    -0.15808    -0.73364    -0.19413   -0.057065
-0.056416     -0.1178   -0.035628    -0.14769    -0.66316    -0.17205   -0.050894
-0.043423    -0.14281   -0.058689    -0.13307    -0.60729    -0.14411   -0.040825
-0.03303    -0.16393    -0.18309    -0.11586    -0.56766    -0.11228   -0.029782
-0.027183    -0.17432    -0.36368   -0.095068    -0.54168   -0.080451   -0.019388
-0.025884     -0.1675    -0.51277   -0.073631    -0.51894   -0.051544   -0.010618
-0.028807    -0.14476    -0.56214   -0.051544    -0.48776   -0.026209  -0.0028225
-0.029782    -0.10871    -0.50368   -0.028807    -0.43709  -0.0050961   0.0075714
-0.025234    -0.06681     -0.3809  -0.0067202    -0.37018    0.012768    0.019914
-0.019712   -0.030106    -0.25098    0.009845    -0.31042    0.030957    0.033881
-0.018738  -0.0080194    -0.14996    0.015042    -0.27696    0.047523    0.041351
-0.025884  0.00042559   -0.085973   0.0091954    -0.27566    0.060515     0.04395
-0.034654  -0.0044465   -0.048945  -0.0047713    -0.31594    0.069285    0.044275
-0.04115   -0.015815   -0.014516   -0.021012    -0.40234    0.072858    0.042326
-0.042774   -0.026858    0.037454   -0.032705    -0.49913    0.069285    0.040702
-0.042124   -0.031406     0.10989    -0.03303      -0.555    0.058891    0.041351
-0.044073   -0.026209     0.19174   -0.020362    -0.54752    0.042651      0.0433
-0.04927   -0.015165     0.26677   0.0026992    -0.47964    0.026085    0.046548
-0.054792 -0.00022403     0.31906     0.02641    -0.36985    0.014717    0.046548
-0.055441    0.016991     0.33823    0.045899    -0.23214    0.013418    0.037778
-0.051219    0.038428     0.32069    0.058566   -0.073631    0.021538    0.021863
-0.043099    0.063763     0.26774    0.066362    0.095269    0.033231   0.0069217
-0.030106    0.090397     0.19856    0.072208     0.25995      0.0433   0.0017248
-0.013866     0.11183     0.13197    0.081952     0.41618    0.049147   0.0059473
0.0039985     0.12125    0.076755    0.096244     0.56624    0.053044    0.017316
0.018615     0.11638    0.028684     0.11248      0.7202    0.059216    0.029658
0.026085     0.10014    -0.01484      0.1219     0.88423    0.062464    0.041027
0.022512    0.076755   -0.057715     0.11995      1.0645    0.056292     0.05142
0.012443    0.050121    -0.10026     0.10079       1.248    0.036804    0.055318
-0.0011985    0.022188    -0.14054    0.065062      1.4163   0.0062721    0.047198
-0.015165  -0.0054209    -0.18114     0.01894      1.5527   -0.027833    0.027385
-0.031406   -0.034654    -0.22207   -0.031406      1.6401   -0.054792  0.00075039
-0.04927    -0.06551    -0.26819   -0.079802      1.6706    -0.06681   -0.028157
-0.067459   -0.093444    -0.31366    -0.11456      1.6427   -0.064861   -0.050569
-0.079152    -0.10936    -0.35037    -0.13307      1.5439   -0.058365   -0.060638
-0.081426    -0.10968    -0.37343    -0.13924      1.3604   -0.059664   -0.058365
-0.075904   -0.095393    -0.38447    -0.14249      1.0992   -0.079477   -0.048945
-0.064536   -0.075904    -0.36433    -0.14769     0.78808     -0.1178   -0.043099
-0.050569    -0.05739    -0.28248    -0.15516     0.46393    -0.16425   -0.045372
-0.038227   -0.043423     -0.1269    -0.16133      0.1768    -0.20323   -0.055766
-0.028482   -0.035628    0.084876    -0.16035   -0.022311    -0.21947   -0.065835
-0.021337   -0.034004     0.31971    -0.14899    -0.10968    -0.20778   -0.068758
-0.017114   -0.035303     0.52921    -0.12463   -0.089871    -0.17172   -0.062262
-0.012242   -0.036278     0.65686   -0.088572  0.00042559    -0.12365   -0.051544
-0.0060706   -0.032705     0.65751   -0.046022     0.10729   -0.077853   -0.039201
0.00075039   -0.024585     0.52759  -0.0044465      0.1755    -0.04115   -0.028157
0.0072465    -0.01614     0.30347    0.030957     0.17842   -0.013216   -0.018738
0.012443   -0.011592    0.047523    0.058241     0.12028   0.0078962   -0.011592
0.015692   -0.010293    -0.17757    0.075781    0.039727    0.021538  -0.0057458
0.015042  -0.0076946    -0.33315    0.084226   -0.021661    0.033231  0.00075039
0.015042  0.00075039    -0.41143    0.091696   -0.039851    0.047847   0.0091954
0.016991    0.015692    -0.42507     0.10047   -0.018738    0.063763     0.01894
0.024137    0.039402    -0.39649     0.11313    0.012443    0.079354    0.028034
0.036479    0.069285    -0.35037     0.12613    0.027709    0.093645    0.031932
0.049796    0.098842    -0.30132     0.13295   0.0085458     0.10501    0.029658
0.060515     0.12385     -0.2435     0.13717   -0.055766     0.11151    0.021538
0.063763     0.14107    -0.16003     0.13782    -0.16295     0.10924    0.013093
0.057592     0.14756   -0.038876     0.13522    -0.30262     0.10014   0.0052977
0.044275     0.14042     0.12223     0.12125    -0.45723    0.088448  0.00010078
0.026735     0.11541     0.31386    0.092996    -0.60242    0.078379   0.0020496
0.0088706    0.076431     0.50875    0.057592     -0.7213    0.072208    0.013743
-0.0028225    0.033231     0.67213    0.027709    -0.80737    0.067011    0.028684
-0.0018481  -0.0018481     0.76957    0.010495    -0.86161    0.062139    0.042975
0.0046481    -0.02426     0.77899   0.0072465     -0.8863    0.056942    0.053369
0.0091954   -0.035953     0.69974    0.014717    -0.88662    0.054019    0.057917
0.0036737   -0.037902     0.55292    0.029658    -0.86908    0.053694    0.052395
-0.0076946   -0.033354     0.37006    0.045899     -0.8405    0.056617    0.038428
-0.01549   -0.026209     0.18492    0.054668     -0.8038    0.058241    0.021863
-0.015815   -0.018413    0.023812    0.053044     -0.7632     0.06084    0.014068
-0.0050961   -0.012892   -0.095393    0.042975    -0.72357    0.062139     0.01764
0.014392  -0.0073698    -0.16977    0.028684    -0.67907    0.062789    0.029333
0.033231  -0.0024977    -0.20583    0.017316    -0.61249    0.065062    0.042326
0.045574   0.0036737    -0.22207    0.015692    -0.50985     0.06961    0.051096
0.046223   0.0088706    -0.22954    0.027709    -0.37733    0.075131    0.055643
0.037129    0.011469    -0.23409    0.049147    -0.23181     0.07773    0.057592
0.02706    0.010495    -0.23733    0.073832   -0.088572    0.076755    0.053044
0.021863   0.0078962    -0.24026    0.092021    0.042001    0.074157    0.042001
0.019914   0.0065969    -0.24286    0.098517     0.16673    0.066362    0.027385
0.015367   0.0039985    -0.24675    0.091372     0.28658    0.048822    0.011144
0.00075039   0.0033489    -0.25325    0.070909      0.3811    0.025111  -0.0041217
-0.024909   0.0052977    -0.26234    0.042651     0.42332  0.00010078    -0.01484
-0.054142   0.0056225    -0.27858     0.01017     0.39539   -0.019712   -0.024585
-0.075904   0.0023744    -0.29937   -0.020037     0.29535   -0.031406    -0.03173
-0.085973  -0.0041217    -0.31464   -0.041475     0.14464   -0.035303   -0.035303
-0.082725  -0.0057458    -0.31659    -0.04927   -0.021012   -0.030756   -0.032055
-0.065835  -0.0031473    -0.30457   -0.044073    -0.16782   -0.018738   -0.021012
-0.042124   0.0026992     -0.2867   -0.030756    -0.27014  0.00010078  -0.0028225
-0.017439    0.010495    -0.26332   -0.013866    -0.32795    0.019589    0.019589
0.0052977    0.019589    -0.22467   0.0017248    -0.35881    0.029333     0.03453
0.023812    0.028359    -0.16555    0.010495    -0.38512    0.022512    0.031282
0.033231    0.033231   -0.089221    0.010819     -0.4189   0.0017248    0.011144
0.036479    0.037129   0.0043233   0.0026992    -0.44716    -0.02361   -0.014516
0.038428     0.04395     0.10761  -0.0099683    -0.44618   -0.042449   -0.029132
0.038753    0.053694     0.20668   -0.019063    -0.40883   -0.050244   -0.029782
0.03518    0.064413     0.28528   -0.020687    -0.35459    -0.04992   -0.018738
0.029333    0.075456      0.3314   -0.011267    -0.32276   -0.047321  -0.0028225
0.023812    0.086824     0.33952   0.0072465    -0.31886   -0.042124    0.016341
0.021538    0.099167     0.31841    0.030957    -0.32081   -0.034329    0.033231
0.021863     0.11151     0.26904    0.052395    -0.30424    -0.02426    0.045899
0.020564     0.12418     0.19758    0.063763    -0.27436   -0.012567    0.053044
0.015367     0.13457     0.12483    0.063763    -0.25033  -0.0054209    0.053369
0.011144     0.14042    0.086175    0.048822    -0.24318  -0.0011985    0.046223
0.010819     0.13652     0.11118    0.028034    -0.23733  0.00042559    0.034855
0.014717     0.11995     0.18687   0.0059473    -0.20583   0.0017248     0.01894
0.021863    0.094945     0.26547   -0.013541    -0.13242   0.0065969   0.0049729
0.024137    0.065387      0.2986   -0.031081   -0.021337    0.012119  -0.0054209
0.017316    0.031282     0.24208   -0.047646     0.10404    0.012119  -0.0089938
0.00075039  -0.0080194    0.080978   -0.062262     0.21967   0.0056225  -0.0073698
-0.019388   -0.046022    -0.14996   -0.074605     0.31094   -0.007045  -0.0024977
-0.034978    -0.07493    -0.37213   -0.081751     0.38175    -0.02361   0.0046481
-0.041799   -0.087922    -0.52414   -0.086298     0.44671   -0.037577    0.010495
-0.041475   -0.087597    -0.61314   -0.090521     0.52174   -0.046671    0.014717
-0.041475   -0.084024    -0.68654   -0.099615     0.60229   -0.050894    0.015367
-0.044398   -0.080776    -0.74501    -0.11358     0.66563   -0.050894    0.009845
-0.044398   -0.079152    -0.74858    -0.12268     0.68317   -0.044073   0.0046481
-0.038876   -0.072981    -0.65374    -0.11845     0.64192   -0.027833   0.0023744
-0.030431   -0.064211    -0.45658    -0.10546     0.54188  -0.0037969   0.0059473
-0.020037   -0.067784    -0.23766   -0.092469     0.39052     0.02706     0.01764
-0.0047713    -0.10481    -0.15061   -0.082076     0.19726    0.059865    0.033881
0.017316     -0.1753    -0.32893    -0.07428   -0.031406    0.087474    0.049147
0.036804    -0.25747    -0.73461   -0.068434    -0.27956     0.10404    0.063438
0.049796    -0.31886     -1.1358   -0.059989    -0.51212     0.10501    0.072208
0.057267     -0.3364     -1.2926   -0.044723     -0.6742    0.092346     0.07708
0.059541    -0.30554     -1.1247   -0.022636    -0.73624    0.071558    0.078379
0.064413    -0.24156    -0.72714    0.003024    -0.70181    0.049472    0.076431
0.073182     -0.1623    -0.27111    0.029009    -0.58618    0.029658    0.072533
0.083901   -0.087597     0.10014    0.048172    -0.40526   0.0085458    0.066037
0.088124   -0.027508     0.32426     0.05272    -0.20778    -0.01614    0.056292
0.080978    0.015042     0.40351    0.041027   -0.079152    -0.04992    0.037778
0.066686    0.041351     0.37818    0.020239   -0.088572   -0.097341   0.0095202
0.050121    0.053694     0.30834  -0.0041217    -0.22726    -0.15646   -0.021012
0.03583    0.054668     0.24501    -0.02426    -0.39714     -0.2133   -0.046671
0.02706    0.050771      0.2148   -0.033354    -0.48289    -0.25325   -0.059339
0.026085    0.048497     0.21545   -0.026533    -0.42572    -0.26754   -0.062262
0.030957    0.053369     0.23006  -0.0093186    -0.24675    -0.26007   -0.062912
0.033881    0.062139     0.24176    0.009845    -0.02361    -0.24253    -0.06551
0.029009    0.070909     0.24403    0.018615     0.15763    -0.22239   -0.073955
0.015692    0.074482     0.23461    0.013418     0.24208    -0.20583   -0.085973
-0.0028225     0.06896     0.21447  -0.0076946     0.22649    -0.19738   -0.098316
-0.021337    0.057267     0.18979   -0.038227     0.15373    -0.19901    -0.11326
-0.037902    0.042001     0.16738   -0.067784    0.082927     -0.2094    -0.12755
-0.051868     0.02706     0.15211   -0.090845    0.057917    -0.21979    -0.13729
-0.064211    0.014392     0.15016    -0.10774    0.092021    -0.21785    -0.14346
-0.070707   0.0049729     0.15991    -0.12105     0.17225    -0.19998    -0.14866
-0.074605 -0.00054884     0.17225    -0.13112     0.26417     -0.1727    -0.15321
-0.073631  -0.0024977     0.18167    -0.13892     0.33465    -0.14704    -0.15386
-0.066485 -0.00087364     0.18459    -0.13924     0.37298    -0.12755    -0.14899
-0.054467   0.0023744     0.17972     -0.1269     0.38142    -0.11066    -0.13762
-0.039526    0.012119      0.1651    -0.10124     0.37038   -0.094743     -0.1243
-0.02426    0.027709     0.14042   -0.067459     0.35349   -0.076879    -0.11131
-0.0099683    0.047847     0.10826   -0.026533      0.3431   -0.056741    -0.10026
0.0036737    0.065062    0.075131    0.012768      0.3431   -0.030431   -0.089221
0.016016    0.076431     0.04395    0.048822     0.34862  0.00010078   -0.077853
0.023812    0.084551    0.013743    0.077405     0.34797    0.030957   -0.070382
0.023162    0.091372   -0.012242    0.098193     0.33303    0.050446   -0.070707
0.011794    0.099492   -0.021337     0.10599      0.3038    0.057917   -0.081426
-0.008669     0.10956   0.0072465    0.097868     0.26839    0.055318   -0.094093
-0.029132     0.11801    0.082277     0.07708     0.23624    0.049147   -0.098316
-0.040175     0.12125     0.18167    0.048822     0.20668    0.040377   -0.089871
-0.035953     0.11801     0.25897    0.019589     0.18459    0.033231   -0.071357
-0.019388     0.11216     0.27196  -0.0031473     0.17452    0.029009   -0.048296
-0.00087364     0.10436      0.2122   -0.018088      0.1729    0.030308   -0.026858
0.0091954    0.093645     0.10696   -0.022636     0.17192    0.032906   -0.011917
0.0059473     0.07708   0.0091954   -0.018413     0.16315    0.036479  -0.0037969
-0.0093186    0.053694   -0.013866  -0.0080194     0.14009    0.036479  -0.0044465
-0.026533    0.023487    0.097218   0.0052977     0.10989    0.032257  -0.0076946
-0.0405   -0.013216      0.3418     0.01829    0.083251    0.030308   -0.008669
-0.049595   -0.050244     0.66206    0.030633    0.071558     0.03453  -0.0028225
-0.052518   -0.080776     0.98752    0.042975    0.079679    0.040702   0.0059473
-0.04992    -0.10059      1.2607    0.053044     0.10014    0.042975    0.015367
-0.042449    -0.11228      1.4426    0.061489     0.12678    0.042975    0.020888
-0.03303    -0.11456      1.5166     0.06961     0.15438    0.041027    0.021213
-0.022636    -0.10936      1.4731    0.077405     0.18069    0.037778    0.016341
-0.015815   -0.095393      1.3159    0.080003     0.20083    0.038753    0.013743
-0.019388   -0.076554      1.0752    0.071883     0.20505    0.043625    0.017965
-0.027508   -0.061288     0.81179    0.050771     0.19141    0.049147    0.025111
-0.036278   -0.056741     0.58346    0.024461     0.17225    0.049796    0.029333
-0.042774   -0.071032      0.4282   0.0062721       0.169    0.046223    0.030308
-0.046996   -0.095068     0.34342   0.0052977     0.18979    0.042975    0.032906
-0.045697    -0.11618       0.296    0.014392     0.22129    0.041027    0.041351
-0.04115    -0.11683     0.24988    0.017316     0.23948    0.037454    0.050446
-0.036278   -0.094093     0.18264   0.0059473     0.22292    0.031607    0.056942
-0.034004   -0.054467     0.08585   -0.012892     0.16413    0.024461    0.058566
-0.034329   -0.012242   -0.025884   -0.021986    0.071234    0.015692     0.05272
-0.036602    0.021538    -0.12722   -0.014191   -0.032705     0.01017    0.041676
-0.037252    0.042326    -0.19024  -0.0011985    -0.12982   0.0088706    0.033556
-0.030431    0.054993    -0.20355      0.0014      -0.212    0.012119    0.032906
-0.01549    0.067661    -0.17822  -0.0011985     -0.2919    0.016666    0.042001
0.003024    0.080003    -0.13729    0.003024    -0.39584    0.020888    0.052395
0.017316    0.088448    -0.10156    0.027385    -0.52998    0.019589    0.056292
0.022512    0.088773   -0.081426    0.073832    -0.67842    0.011144     0.05272
0.014392    0.078704   -0.078178     0.13197    -0.81289  -0.0041217    0.047847
-0.0034721    0.060515   -0.081426     0.19011    -0.90027   -0.021986    0.046548
-0.020037    0.039727   -0.077203     0.23364    -0.91456   -0.036927    0.049796
-0.025234     0.02706   -0.054792     0.25507    -0.85544   -0.041799    0.059865
-0.021012     0.02641   -0.011917     0.25215    -0.75248   -0.036602    0.073182
-0.0096434     0.03518    0.048822     0.22909    -0.64009   -0.027183     0.08585
0.0014    0.048172     0.12613     0.19661    -0.53713   -0.017439    0.095269
0.0072465     0.06019     0.22682     0.16445     -0.4569  -0.0093186    0.097218
0.0091954    0.065712     0.35739     0.14399    -0.40493  -0.0050961    0.092346
0.0069217    0.063438     0.47464     0.13749     -0.3848  -0.0031473    0.083576
0.0039985    0.051745     0.42365     0.14042    -0.38674  -0.0034721    0.075781
0.0059473    0.030957     0.01017     0.13879    -0.38772  -0.0037969    0.071883
0.012443   0.0095202    -0.78106      0.1258    -0.36238  -0.0031473    0.066362
0.01829  -0.0080194     -1.7243     0.10047    -0.30262 -0.00054884    0.059216
0.019589   -0.014516     -2.5314    0.066362    -0.20908   0.0033489    0.050121
0.016341   -0.012242     -2.9839    0.031932     -0.0824   0.0091954    0.041027
0.0088706  -0.0037969     -3.0044   0.0056225    0.071883    0.013418    0.036804
0.0017248    0.003024     -2.6549   -0.007045     0.24728    0.016341    0.040052
-0.0044465   0.0059473     -2.0871  -0.0076946     0.43145    0.019589    0.047198
-0.010293   0.0078962     -1.4693  0.00075039     0.60879    0.021863    0.053044
-0.014516    0.010819    -0.94119    0.012443     0.76307    0.020564    0.051745
-0.019712    0.017316    -0.57513    0.023162     0.88098    0.014068    0.038428
-0.02426    0.027709     -0.3705     0.02706     0.95114   0.0036737     0.01764
-0.020037    0.041027    -0.27858    0.028359      0.9651   -0.010943  0.00010078
-0.0083442     0.05272    -0.24188    0.027385     0.93035   -0.025559  -0.0083442
0.0043233    0.059865    -0.21947    0.023162     0.86831   -0.036278   -0.010943
0.014392    0.058566    -0.19089    0.012119     0.80302    -0.04115    -0.01549
0.019264    0.047847    -0.13112  -0.0041217     0.74488   -0.041799   -0.022961
0.019589    0.029009   -0.017764   -0.022961     0.68544   -0.041475   -0.028482
0.012768   0.0033489     0.15601   -0.042774     0.60197   -0.044398   -0.030756
0.0010752   -0.029132     0.36648   -0.065835     0.48082   -0.056416   -0.032705
-0.016464   -0.063561     0.56429   -0.089221     0.31679   -0.079152   -0.038876
-0.035303   -0.092145     0.70363    -0.11098     0.11931    -0.10838   -0.048945
-0.048945    -0.10871     0.75593    -0.12625   -0.096042     -0.1295   -0.057715
-0.052843    -0.11131       0.715    -0.13599    -0.32763    -0.13664   -0.059664
-0.050569   -0.098641     0.60327    -0.14022    -0.57253    -0.13047   -0.054142
-0.042124   -0.077203     0.46003    -0.13827    -0.80932    -0.11878   -0.042124
-0.030756   -0.053817     0.32263    -0.13437    -0.99706    -0.10449   -0.027508
-0.015815   -0.035628     0.21025    -0.12917     -1.0961   -0.087922   -0.012567
-0.0018481   -0.025234      0.1362    -0.12105     -1.0874   -0.072656 -0.00054884
0.0069217   -0.022311     0.10209    -0.11261    -0.97822   -0.064211   0.0052977
0.011469    -0.02361    0.097218    -0.10741     -0.7921   -0.061937   0.0033489
0.012443   -0.027183     0.10729    -0.11131    -0.56961   -0.062262  -0.0047713
0.011144   -0.028482     0.11671    -0.11845    -0.35816   -0.057715   -0.010293
0.008221   -0.025884     0.11801    -0.11975    -0.19413   -0.043748  -0.0089938
0.0078962   -0.019388     0.11151    -0.11066   -0.087272   -0.019063  -0.0011985
0.015692  -0.0093186    0.097543   -0.091495   -0.029782    0.014392    0.009845
0.029009  0.00042559    0.078704   -0.065835  -0.0050961    0.046873    0.017316
0.044924   0.0052977    0.057917   -0.040825    0.012443    0.071558    0.020564
0.059216   0.0049729    0.034855   -0.020037    0.038428    0.086175    0.020888
0.068635    0.003024   0.0088706  -0.0073698    0.073182    0.092346    0.021863
0.066686   0.0010752    -0.01484  -0.0034721     0.11021    0.090722    0.022188
0.059216   0.0010752   -0.031406  -0.0044465     0.15179    0.082927    0.024786
0.053369   0.0026992   -0.041799  -0.0034721     0.21707    0.070259    0.026085
0.054019   0.0062721   -0.047971  -0.0034721     0.32231    0.056292    0.021863
0.054993    0.008221   -0.053492  -0.0021729     0.46685    0.046548    0.009845
0.05272   0.0091954   -0.061288   0.0026992     0.62763    0.045574  -0.0041217
0.045574   0.0059473   -0.070058    0.011794     0.76762    0.050446   -0.016464
0.036804  -0.0011985   -0.079152    0.020564     0.84622    0.052395   -0.025234
0.029333  -0.0096434   -0.097991    0.025111     0.83551    0.044924   -0.031406
0.023812   -0.017114    -0.13015    0.023487     0.72897    0.028684   -0.034978
0.020888   -0.021012    -0.16523    0.016016     0.53701   0.0062721    -0.03238
0.01764   -0.017114    -0.18699    0.003024     0.28106   -0.015815   -0.022961
0.016341  -0.0050961    -0.17919  -0.0096434   0.0026992   -0.034978   -0.011917
0.016016    0.011144    -0.12657   -0.019712    -0.24675   -0.048296  -0.0021729
0.016991    0.027709   -0.024909   -0.025559    -0.43677   -0.053168   0.0065969
0.021538    0.038428     0.11638   -0.034654    -0.55597   -0.050244    0.012768
0.028359    0.040377     0.29633   -0.052193    -0.60307   -0.042774    0.014068
0.031282     0.03583     0.49511   -0.077853    -0.58423   -0.036602   0.0078962
0.02641    0.026735     0.67213    -0.10514    -0.51829   -0.033354  -0.0047713
0.014392    0.015692     0.79036    -0.12398    -0.42735    -0.03173   -0.016464
-0.0031473   0.0059473     0.82641    -0.12917    -0.32633   -0.028807   -0.022636
-0.02426  -0.0050961     0.77379     -0.1295    -0.22694   -0.025559   -0.027183
-0.040175   -0.018088     0.64874    -0.13307    -0.13697   -0.023935   -0.033679
-0.052193    -0.03173     0.48504    -0.13827   -0.062587   -0.026209     -0.0405
-0.058689    -0.04115     0.32556    -0.12787  -0.0099683   -0.037902   -0.044398
-0.058689   -0.039526     0.20603   -0.085648    0.022188   -0.052518   -0.039851
-0.048945   -0.025234     0.15016   -0.010943      0.0433    -0.05804   -0.024585
-0.030756  -0.0034721     0.15276    0.080003    0.069934   -0.047971 -0.00087364
-0.0063954    0.012119     0.17322     0.16185     0.11443    -0.02426    0.022188
0.016666    0.014068     0.14334     0.20895     0.17322      0.0014    0.033231
0.031282   0.0010752    0.016016     0.21123     0.23559    0.020564    0.031282
0.032257   -0.018413    -0.18926     0.17907     0.28236    0.029333    0.022188
0.023487   -0.033354    -0.39584     0.13587     0.28788    0.025436    0.010495
0.012768   -0.034978    -0.51959     0.10014     0.22844    0.010495  -0.0041217
0.0078962   -0.019712    -0.51732    0.082602    0.099167   -0.010293   -0.017114
0.0095202    0.008221    -0.40234    0.083901   -0.074605   -0.030431   -0.023285
0.013418    0.034206    -0.23409    0.094295    -0.24513   -0.041475   -0.021661
0.015367     0.05272   -0.077528     0.10501    -0.36498   -0.038551   -0.013216
0.011469    0.059865    0.027385     0.10891    -0.41403   -0.026533  -0.0018481
0.00075039    0.055643    0.069285     0.10469    -0.39714   -0.012242   0.0072465
-0.012892    0.042326    0.061165    0.091696    -0.33997  -0.0076946   0.0091954
-0.025884    0.027385    0.025436     0.06831    -0.27501   -0.017439    0.003024
-0.03238    0.015042    -0.01484    0.040377    -0.21979   -0.034654  -0.0067202
-0.035953   0.0078962   -0.046347    0.013743    -0.17692   -0.050894    -0.01549
-0.038551   0.0046481   -0.064211   -0.010293    -0.14411   -0.062912   -0.020687
-0.042449    0.003024   -0.069733   -0.028807      -0.123   -0.069083   -0.023935
-0.046996      0.0014   -0.067784   -0.038551    -0.10968   -0.072656    -0.02426
-0.04927  -0.0011985   -0.066485   -0.041475    -0.10254   -0.075255   -0.019388
-0.04862  -0.0034721   -0.071682   -0.038551    -0.10709   -0.079152   -0.012242
-0.045697  -0.0031473   -0.084674   -0.034654    -0.13664   -0.087272  -0.0021729
-0.04115  -0.0011985    -0.10189   -0.030106     -0.2055   -0.097666   0.0039985
-0.036602   0.0039985    -0.11813   -0.026533    -0.30717    -0.10806   0.0036737
-0.034654    0.008221    -0.12008   -0.021012    -0.40981    -0.11521 -0.00022403
-0.03303     0.01017   -0.095068   -0.013216    -0.47509    -0.11618 -0.00054884
-0.028807    0.011794   -0.046671  -0.0047713    -0.48159    -0.10384   0.0091954
-0.018413    0.011469     0.01017   0.0033489    -0.43579   -0.082725    0.024461
-0.0057458    0.010819    0.063438   0.0049729    -0.35784   -0.059014    0.040377
0.0052977    0.012119     0.10436   0.0052977    -0.26039   -0.041799    0.050446
0.0091954     0.01764     0.13067   0.0059473    -0.13924   -0.030106    0.054019
0.0072465    0.027385     0.14561   0.0075714    0.024137   -0.020687    0.049472
0.00010078    0.036804     0.15601    0.012443     0.24501  -0.0099683    0.040702
-0.010293    0.042651     0.16575    0.019589     0.50095   0.0036737    0.031607
-0.021337    0.046223     0.17777    0.024786     0.73871    0.020239    0.022512
-0.031406    0.045249     0.19434    0.024786     0.89624    0.035505    0.014392
-0.036602    0.039727     0.21512    0.024786     0.93425     0.04395   0.0059473
-0.039851    0.034855     0.23818    0.030633     0.84947    0.043625 -0.00054884
-0.041475    0.032906     0.25183    0.042975     0.67603    0.040377  -0.0034721
-0.042124    0.030633     0.24176    0.053694     0.46263    0.039727  -0.0041217
-0.045697    0.022837     0.19466    0.053369     0.25897    0.040052  -0.0037969
-0.058689   0.0069217     0.10566    0.036479     0.09462    0.038103  -0.0034721
-0.072981   -0.018738   -0.021337    0.008221   -0.021337    0.032906  -0.0054209
-0.084674   -0.050244    -0.17627   -0.023285   -0.090521    0.025761   -0.013541
-0.090521   -0.082076    -0.35524   -0.049595     -0.1191    0.021863   -0.026209
-0.087272    -0.10644    -0.55272   -0.062912    -0.11456    0.026735   -0.039201
-0.074605    -0.12008    -0.74403   -0.063886   -0.082076    0.040052   -0.045047
-0.057065     -0.1204    -0.89279   -0.075904   -0.028807     0.06019   -0.040825
-0.038227    -0.10741    -0.96003    -0.12527    0.033231    0.083576   -0.027508
-0.021012   -0.079802     -0.9256    -0.22304    0.084551     0.10664   -0.010618
-0.0089938   -0.044073    -0.80022    -0.35232    0.099817      0.1232   0.0020496
-0.0080194  -0.0099683    -0.62223    -0.48061    0.058891     0.13132   0.0075714
-0.010618    0.015042    -0.44391    -0.57513   -0.038551       0.131   0.0072465
-0.0083442    0.028034    -0.30424    -0.62483    -0.17432      0.1206   0.0046481
-0.00054884    0.029983    -0.22337    -0.64659    -0.32438    0.097543      0.0014
0.0052977    0.024786    -0.19966    -0.65081    -0.45983    0.060515  -0.0041217
0.0046481    0.014392     -0.2107    -0.59787    -0.54525    0.020564   -0.013216
-0.0015233     0.01017    -0.21687    -0.39941    -0.56312   -0.011267   -0.021337
-0.0057458    0.020564    -0.18471   -0.014191    -0.51634   -0.024909   -0.017764
0.00042559    0.047847    -0.10091     0.48244     -0.4189   -0.021012 -0.00022403
0.019589    0.081627    0.031607      0.9349     -0.2867  -0.0028225    0.025436
0.046873     0.10761     0.19174      1.2139    -0.13437    0.024786    0.046223
0.070259     0.11866     0.35512      1.2678    0.029333    0.048822    0.057592
0.084551     0.11638      0.5107      1.1275     0.20635     0.06084    0.062139
0.089098     0.10501     0.66726     0.87806     0.40611    0.062139    0.055968
0.083576    0.089098     0.84752     0.61171     0.63023    0.054993    0.036479
0.070909     0.06896      1.0645     0.39507     0.84622    0.039402   0.0046481
0.049796    0.046548      1.3006     0.25572      1.0187    0.017316    -0.03173
0.023487    0.023812      1.4968     0.18719      1.1233  -0.0024977   -0.064211
-0.00022403   0.0023744      1.5887     0.16185      1.1493   -0.019388   -0.080776
-0.012242   -0.015815      1.5299     0.14724      1.0911   -0.033354   -0.081751
-0.013541   -0.034329      1.3221     0.12125     0.95796   -0.050569   -0.072656
-0.010943   -0.053817      1.0135    0.076431     0.76795   -0.073631   -0.062587
-0.0096434   -0.073955     0.67083    0.021538     0.54285   -0.097017   -0.054467
-0.010618   -0.089546     0.35836   -0.034654     0.30055    -0.11326    -0.04927
-0.0089938   -0.092794     0.11768   -0.084674    0.046873    -0.11293   -0.045697
-0.0044465   -0.081101   -0.046996    -0.12495    -0.20908   -0.096042   -0.045047
0.0017248   -0.059014    -0.15581    -0.15158    -0.45366   -0.070058   -0.046022
0.0072465   -0.029457    -0.24253    -0.16458    -0.67615   -0.044073   -0.043748
0.014392  0.00075039    -0.33445     -0.1688    -0.88045   -0.026209   -0.034004
0.020888    0.025111    -0.44099    -0.17205     -1.0909   -0.023285   -0.016464
0.023487    0.033881    -0.56961    -0.18082     -1.3371   -0.036278   0.0033489
0.022512    0.024786    -0.75703    -0.19998     -1.6181   -0.064211    0.014068
0.018615   0.0036737     -1.0552    -0.23019     -1.8848    -0.10449    0.011469
0.0088706   -0.022311     -1.4537    -0.26462     -2.0673    -0.15223  -0.0041217
-0.0031473   -0.042124     -1.8516     -0.2932      -2.104    -0.19706   -0.027508
-0.01614   -0.051219     -2.1173    -0.30327      -1.965    -0.22791   -0.048945
-0.02361   -0.047971     -2.1605     -0.2893     -1.6769    -0.23603   -0.059989
-0.018738   -0.035303     -1.9617    -0.25455     -1.3267    -0.21687   -0.058689
-0.0034721   -0.017439     -1.5661    -0.20485     -1.0065    -0.17919   -0.047646
0.013418  -0.0011985     -1.0429    -0.15516    -0.77034    -0.13242   -0.034004
0.02706    0.010819    -0.47217    -0.11586    -0.61736   -0.084349   -0.019063
0.031282    0.018615    0.067986   -0.093119    -0.50173   -0.040175  -0.0050961
0.025436    0.021863     0.52726   -0.084024    -0.36985  -0.0021729   0.0072465
0.011794    0.017316     0.87383     -0.0837    -0.19608    0.025436    0.017965
-0.0021729   0.0078962      1.0791   -0.086948    0.013093    0.041676    0.030957
-0.011267 -0.00054884       1.123   -0.086623     0.23331     0.05142    0.042001
-0.012892  -0.0018481      1.0161   -0.081426     0.43242    0.057267    0.048172
-0.0041217   0.0036737     0.81342   -0.072981     0.58443    0.061489    0.048822
0.01017    0.012443     0.59482   -0.061288     0.67375     0.06084      0.0433
0.025436    0.021863     0.41943   -0.051219     0.71045    0.054019    0.036479
0.039402    0.029333     0.30639   -0.040825     0.71273    0.044275    0.033231
0.05142    0.030957     0.24241   -0.031081     0.69909    0.037454     0.03453
0.055968    0.024786     0.20733   -0.022311     0.68252    0.031932    0.041351
0.051745    0.014717      0.2057   -0.013216     0.66628    0.026735    0.048822
0.039078    0.008221      0.2554  -0.0021729     0.65102    0.021863     0.05272
0.026735   0.0095202     0.36486    0.010495     0.63932    0.019264    0.051745
0.023162    0.016991     0.51914    0.020888     0.64419    0.019264    0.047847
0.028359    0.029009     0.67408    0.025761     0.67278    0.025436    0.042001
0.036154    0.038428     0.77607    0.024461     0.71663    0.039402    0.037129
0.038753    0.045899     0.79003    0.021538     0.76275    0.054993     0.03583
0.029009    0.047847     0.71273    0.018615     0.79393    0.066686    0.036804
0.012119     0.04395     0.56169    0.017316     0.79653    0.067986    0.038103
-0.0044465     0.03518     0.37071     0.01829       0.766    0.055318    0.036804
-0.012892    0.019914     0.16868    0.020564      0.7111    0.032582    0.029658
-0.013216  0.00042559   -0.018413    0.024786     0.64972    0.009845     0.01764
-0.012242    -0.01549    -0.16912    0.031282     0.58898  -0.0044465   0.0059473
-0.015165   -0.023935    -0.27014    0.037778     0.52596   -0.011267  -0.0031473
-0.024909   -0.022961    -0.32438    0.040377     0.44801  -0.0080194   -0.010618
-0.038551   -0.014516     -0.3377    0.037778     0.36226  -0.0031473   -0.020362
-0.051544  -0.0050961    -0.31951    0.028684     0.28821  -0.0034721   -0.035628
-0.060963  0.00010078    -0.28151    0.009845     0.23429   -0.011917   -0.052518
-0.06551  -0.0047713    -0.24188   -0.021012     0.19174   -0.027183   -0.067784
-0.06616   -0.022636    -0.22629   -0.058365     0.14691   -0.041799   -0.080776
-0.065835   -0.048945    -0.26722   -0.092145     0.09462   -0.054792   -0.087922
-0.064211   -0.075904    -0.36953    -0.11033    0.034206   -0.061288   -0.086948
-0.064211   -0.092469    -0.50075    -0.10644   -0.025234   -0.056091   -0.078178
-0.062262   -0.088896    -0.59657   -0.079802   -0.062587   -0.039851   -0.064536
-0.053492   -0.056741    -0.60242   -0.037252   -0.068758   -0.017114   -0.047646
-0.033354  0.00075039    -0.50595    0.011144   -0.050894   0.0023744   -0.032055
-0.0054209    0.068635    -0.34582    0.053694   -0.026858    0.013418   -0.020037
0.022188     0.12905    -0.17854    0.079679   -0.019712    0.015367   -0.013216
0.041676     0.16445   -0.050894    0.082927   -0.041799   0.0075714   -0.015815
0.049796     0.16933    0.020564    0.066362   -0.090521  -0.0037969   -0.023285
0.043625     0.14886    0.045249    0.039402    -0.14476   -0.011592   -0.030431
0.024461     0.11508    0.042651    0.015367    -0.17497   -0.017439   -0.033679
0.0020496    0.078379    0.031282   0.0023744     -0.1662   -0.023285    -0.03303
-0.013216    0.042326    0.025436   0.0052977    -0.12463   -0.025234   -0.030756
-0.017764   0.0036737    0.030633    0.020239   -0.062587   -0.020687   -0.027183
-0.011592   -0.047646    0.039402    0.043625   0.0088706   -0.011592   -0.020037
0.00075039      -0.123    0.031282    0.068635    0.083251  -0.0018481  -0.0099683
0.0085458    -0.21979   0.0010752    0.091696     0.14789    0.003024 -0.00087364
0.0056225    -0.31626   -0.042774     0.10761     0.19011    0.003024    0.003024
-0.008669    -0.38317   -0.079802     0.11346     0.20148  -0.0011985  -0.0018481
-0.026858    -0.39876   -0.091495     0.11118     0.18622  -0.0093186   -0.010943
-0.041475    -0.35979   -0.072656    0.099492     0.16056   -0.021986   -0.020037
-0.048296    -0.28118    -0.03238    0.084551     0.13652   -0.037577   -0.025884
-0.047646    -0.18504    0.014717    0.074157      0.1206   -0.050569   -0.025234
-0.041475   -0.096042    0.054344    0.071558     0.12028   -0.056416   -0.018088
-0.032055   -0.030431    0.076755     0.07773      0.1362   -0.057065  -0.0073698
-0.02361    0.010819    0.083901    0.088124     0.15309   -0.054467   0.0033489
-0.01484    0.031932     0.08585    0.098842     0.14789   -0.048945    0.011469
-0.0089938    0.042975    0.086824     0.10631     0.10989   -0.040175    0.016341
-0.008669    0.052395    0.083901     0.10859    0.046223   -0.031081     0.01894
-0.0076946    0.066686    0.075131     0.10306   -0.025884   -0.022311    0.021213
-0.0021729    0.082602    0.063763    0.089423   -0.096042    -0.01484    0.023812
0.0062721     0.09462    0.059865    0.070584    -0.16458   -0.013216     0.02706
0.009845    0.099492    0.069285    0.047198    -0.22564   -0.019388    0.026735
0.0072465     0.10274    0.090722    0.021863    -0.26851   -0.034978    0.020888
0.0026992     0.10631      0.1232 -0.00087364    -0.28086   -0.056091    0.010495
0.0017248     0.10859     0.16575   -0.020362    -0.26462    -0.07428 -0.00022403
0.0039985     0.10664     0.21382   -0.035953    -0.23538   -0.081101  -0.0067202
0.0062721     0.10306     0.26449   -0.045372    -0.21297   -0.074605  -0.0073698
0.0091954    0.099492     0.31614   -0.048296    -0.21655   -0.060963  0.00010078
0.012768    0.096569     0.36973   -0.044723    -0.25747   -0.044723    0.014068
0.01829    0.094295     0.42755   -0.035303    -0.33023    -0.02361    0.029009
0.02706    0.092021     0.48374   -0.019712    -0.42345  -0.0018481    0.041351
0.037454    0.090722     0.49413  0.00042559    -0.52186     0.01894     0.05142
0.045249    0.092671     0.38435    0.021213    -0.60144    0.033881    0.057267
0.051096    0.096569    0.060515    0.031932    -0.64789    0.039402    0.059865
0.049147     0.10177    -0.48873    0.029009    -0.66933    0.036804    0.061165
0.041027     0.10599     -1.0919    0.012119    -0.68492    0.028684    0.064737
0.031607     0.10371      -1.507   -0.010618    -0.70733    0.018615     0.06961
0.027385    0.097868     -1.5895   -0.030106    -0.73461    0.008221    0.071883
0.029009    0.093645     -1.3638   -0.039526    -0.75313  -0.0018481    0.067661
0.032582    0.089423    -0.97854   -0.037902    -0.73949   -0.010943    0.058566
0.030633      0.0865    -0.60502   -0.029132    -0.66056   -0.017439     0.04395
0.021863    0.083576    -0.33867   -0.023285    -0.48451   -0.022636    0.026085
0.0056225    0.075781    -0.17627   -0.027183    -0.20031   -0.027833   0.0065969
-0.012567    0.061814   -0.062912   -0.035628      0.1755   -0.031081   -0.012242
-0.027183    0.042326    0.037778   -0.040175      0.5919    -0.03173   -0.029782
-0.034978    0.021538     0.11671   -0.034329     0.97582   -0.029782   -0.043099
-0.03238   0.0052977     0.15601   -0.021012      1.2571   -0.022636   -0.048296
-0.021661  -0.0041217     0.14432  -0.0041217      1.3916  -0.0057458   -0.045372
-0.0047713  -0.0083442    0.092021    0.012768      1.3649    0.015042   -0.034329
0.011794   -0.010618    0.031282    0.027385      1.1928    0.026085   -0.022636
0.01894   -0.014191    0.003024    0.035505     0.91411    0.022188   -0.012242
0.013743   -0.021337    0.025436    0.031282      0.5906  -0.0011985   -0.007045
-0.00022403   -0.030756    0.089423    0.015042     0.29048   -0.034329  -0.0099683
-0.018413   -0.039851     0.17517  -0.0057458    0.067986   -0.064861   -0.020687
-0.036278   -0.047646     0.26222   -0.022961   -0.058365   -0.085973   -0.032705
-0.049595   -0.054792     0.34829   -0.033354    -0.10384   -0.093444     -0.0405
-0.053817    -0.06681     0.46263   -0.037902    -0.11651   -0.083375   -0.044073
-0.051868   -0.086948     0.65719   -0.041475    -0.15613   -0.063886   -0.044398
-0.050894    -0.11553     0.95374   -0.045372     -0.2565   -0.045372   -0.041799
-0.051219    -0.14379      1.3045   -0.046347    -0.40234    -0.03173   -0.039201
-0.051544    -0.15905      1.6219   -0.041799     -0.5407   -0.024909   -0.037252
-0.048296    -0.15353      1.8249   -0.030756    -0.61508   -0.020687   -0.038551
-0.039851    -0.13015      1.8583   -0.012242    -0.58813   -0.010618   -0.040825
-0.028482   -0.093444      1.7148   0.0085458     -0.4608   0.0059473   -0.037902
-0.017764   -0.055441       1.438    0.024137    -0.27631    0.027385   -0.030431
-0.011592   -0.025234      1.1207    0.033231   -0.088247    0.045899   -0.021337
-0.013216  -0.0093186     0.87838    0.036479    0.058566    0.058241   -0.010293
-0.019712  -0.0054209     0.80335    0.039078     0.13425    0.063763      0.0014
-0.029132   -0.010618     0.88553    0.044924     0.13035    0.064088    0.010819
-0.035303   -0.018738     0.94919    0.053694    0.064088     0.06019    0.019589
-0.0405   -0.026858     0.70656    0.053694   -0.036927    0.055318    0.029333
-0.046347   -0.034978  -0.0057458    0.041676    -0.15061    0.048497    0.042326
-0.051868   -0.042774     -1.0481    0.017965    -0.25877     0.03453    0.049147
-0.054467   -0.051544     -2.0754   -0.015165    -0.34679    0.015042     0.04395
-0.055116   -0.059014     -2.7738   -0.046996    -0.39551   -0.010293    0.028034
-0.049595   -0.064211     -2.9729    -0.06616    -0.39551    -0.04115   0.0088706
-0.042774   -0.064536     -2.6757   -0.070058    -0.36921   -0.071357   -0.011592
-0.0405   -0.060963      -2.029   -0.063886    -0.34582   -0.093769   -0.026858
-0.045047   -0.054142     -1.2491   -0.053492     -0.3286    -0.10676   -0.034329
-0.053168   -0.047321     -0.5407   -0.040825    -0.30619    -0.11521   -0.034654
-0.056741   -0.037902   -0.027183   -0.028157    -0.28248    -0.12203   -0.031081
-0.053817   -0.026858      0.2554   -0.016464    -0.27209    -0.12495   -0.025234
-0.042774   -0.012242     0.33563  -0.0050961    -0.29353     -0.1204   -0.020687
-0.027508   0.0062721     0.27261   0.0059473     -0.3338    -0.10936   -0.017439
-0.013216    0.025436     0.13717    0.020239    -0.36791   -0.096042   -0.013216
-0.0024977     0.04395   -0.008669    0.039078    -0.37635   -0.070707   -0.010293
0.0062721    0.048497    -0.12755    0.073507    -0.33997     0.10436   -0.039851
0.015042    0.030308     -0.2081      0.1297    -0.26202     0.55325      -0.123
0.024137   0.0052977    -0.24708     0.18687    -0.18471      1.1135    -0.21167
0.028684 -0.00054884     -0.2448     0.21382    -0.15288      1.4676    -0.23149
0.03583    0.018615    -0.21232     0.20246    -0.17594      1.4789     -0.1662
0.048172    0.054019    -0.16685     0.17095    -0.22499      1.2266   -0.051868
0.067661    0.092996     -0.1204     0.14139    -0.25325     0.88423    0.056292
0.087474     0.12288   -0.080776     0.12353    -0.22499      0.5984     0.12125
0.095594      0.1349   -0.053492     0.11378    -0.13599     0.43177     0.13555
0.089098     0.12483   -0.038551    0.098842   -0.017764      0.3759     0.11346
0.071558    0.095919   -0.025234    0.073832    0.088448     0.38272    0.078379
0.047847    0.056617  -0.0050961    0.042975     0.15211     0.40059    0.048172
0.028034    0.020888    0.023487    0.016016     0.14009     0.39702    0.030957
0.01764  -0.0015233    0.054993  -0.0028225    0.054993     0.36486    0.023812
0.019914  -0.0080194    0.077405   -0.012892   -0.057715     0.31841     0.02706
0.02706  0.00010078      0.0865   -0.012892    -0.13729     0.27489    0.038428
0.036479    0.019589    0.086175  -0.0054209    -0.13957      0.2502    0.053694
0.046873    0.041676    0.078704   0.0078962   -0.052193     0.24793    0.066362
0.057592    0.058891    0.055643    0.033556     0.10729     0.32036    0.048497
0.070909    0.059541   0.0091954    0.085525     0.31062     0.59807   -0.052193
0.087149    0.045249   -0.053492     0.15666      0.5159      1.0622    -0.21265
0.096893    0.029658    -0.10676      0.2135     0.67992      1.4556    -0.31626
0.095919    0.024137    -0.13047     0.22389      0.7686      1.5683     -0.2893
0.082277    0.029009    -0.12722     0.18881     0.77347      1.3919     -0.1597
0.06084    0.041027    -0.10871     0.12872       0.715      1.0599   0.0010752
0.034855    0.054019   -0.093119    0.069934     0.63413     0.73059     0.12872
0.010819    0.068635   -0.089871    0.026085     0.56851     0.50485     0.19628
-0.0031473    0.081627   -0.093769 -0.00054884     0.53116     0.40481     0.21025
0.00042559    0.092346   -0.092469    -0.01549     0.51817     0.39637     0.19499
0.014392    0.096244   -0.078827   -0.023285     0.51817     0.42495      0.1755
0.032582    0.094295   -0.052843   -0.024909     0.52499     0.45223     0.16835
0.044599    0.086175   -0.018738   -0.018413     0.53019     0.46035      0.1768
0.049472    0.071883     0.01829  -0.0067202     0.52726     0.44736     0.19076
0.047198    0.053369     0.06084   0.0056225     0.50875     0.41715     0.20376
0.0433     0.03583     0.11054    0.015367     0.47107     0.37395     0.20993
0.039727    0.020564     0.17062    0.024461     0.40871     0.32458     0.20538
0.032582    0.011469     0.23624    0.030633     0.32426     0.29015      0.1755
0.032906    0.012768     0.28983    0.049147     0.22909     0.37071    0.040702
0.054993    0.031607     0.30445     0.09397     0.14204     0.64192    -0.23376
0.09397    0.065062     0.27781     0.14561    0.075456     0.97842    -0.49523
0.13295    0.099492     0.23494      0.1677    0.038103      1.1684     -0.5498
0.15568     0.12548     0.19076     0.14626    0.027385      1.1282     -0.3718
0.16478     0.14107     0.14951    0.099167    0.035505     0.91443   -0.075255
0.16965     0.14919     0.11183    0.055318    0.054344     0.64809     0.19921
0.1755     0.15016    0.082277    0.033556    0.076431     0.43145     0.36486
0.18232     0.14496     0.06084    0.037129    0.091372     0.30867     0.41066
0.18816     0.13749    0.041351     0.06019    0.090072     0.26742     0.37883
0.19011     0.13002    0.015367    0.088448    0.069934     0.26612     0.32393
0.18654     0.12028   -0.020362     0.10859    0.032582     0.26449     0.28496
0.17874     0.10696   -0.059339     0.11183   -0.011267     0.24403     0.27716
0.16868    0.092346   -0.097666    0.096569   -0.044398     0.20181      0.2934
0.15698    0.073182    -0.12365    0.070584   -0.056741     0.14334     0.31516
0.14302     0.05272    -0.11813    0.042001   -0.050894    0.077405     0.32556
0.12613     0.03583   -0.052193     0.01764    -0.03303    0.014392     0.31776
0.10891     0.02706    0.097868   0.0017248  -0.0076946   -0.032055     0.29892
0.094945    0.021213     0.32166   0.0010752    0.025761     0.01764     0.25832
0.088773   0.0065969     0.55747    0.031607    0.062139     0.32198     0.16868
0.092996   -0.012892     0.74651    0.087474    0.087799     0.83486    0.052395
0.099817   -0.022636     0.87188     0.13457     0.10274      1.2483   -0.013541
0.10371   -0.013866     0.96218     0.14399     0.12483      1.3354   0.0088706
0.10047   0.0043233      1.0538     0.11638     0.17257      1.1022    0.096244
0.090397    0.020564      1.1567    0.075131     0.24695     0.71013     0.19499
0.076431    0.026735      1.2373    0.040052      0.3405     0.33693     0.26644
0.062139    0.022837      1.2461    0.026735      0.4282    0.092021      0.2973
0.05272    0.015367      1.1561     0.03453     0.48731  -0.0080194     0.29568
0.047847    0.008221      0.9703    0.055643     0.49771  -0.0083442     0.27684
0.045574   0.0046481      0.7137    0.074482     0.46133    0.027709     0.25313
0.047198   0.0046481     0.42852    0.080003     0.39539     0.05207     0.23786
0.048822    0.008221     0.15146    0.070909     0.32426    0.042001     0.23364
0.045574   0.0091954    -0.09182    0.054344     0.26547  -0.0021729     0.23331
0.036154  -0.0018481    -0.31009    0.036479     0.22519   -0.067134     0.22714
0.01894   -0.027183    -0.55857    0.020239     0.20148    -0.13892      0.2096
-0.0060706   -0.060313    -0.89442   0.0052977      0.1781    -0.20745     0.18427
-0.035303   -0.093119     -1.3014   -0.014516      0.1349    -0.27209     0.15568
-0.065835     -0.1204     -1.6873   -0.046671    0.076431    -0.33835     0.13002
-0.094093    -0.14379     -1.9608   -0.093444    0.033556    -0.40591     0.10696
-0.11618     -0.1649     -2.0744    -0.15483    0.033231    -0.46827    0.089748
-0.1282    -0.18309     -2.0254     -0.2172    0.084876    -0.51797     0.07708
-0.12755    -0.19381     -1.8299    -0.26722     0.16121      -0.555    0.065387
-0.11651    -0.19154     -1.5197    -0.29742     0.22032    -0.57936     0.05207
-0.10189    -0.17594     -1.1481    -0.30554     0.23266    -0.58975    0.042326
-0.086948    -0.15093    -0.77781    -0.29255     0.18394    -0.58748    0.034206
-0.073631     -0.1256    -0.46827    -0.26169      0.0852    -0.57221    0.032906
-0.059989    -0.10319    -0.24675    -0.22174   -0.035628    -0.54785    0.038428
-0.043748   -0.086948    -0.10968    -0.17659    -0.14899    -0.52544    0.046223
-0.029132   -0.075904    -0.03303    -0.12917    -0.23798    -0.51537    0.051745
-0.016464   -0.066485    0.011144   -0.086948    -0.29645    -0.51699     0.05207
-0.0067202   -0.055766      0.0433   -0.054142    -0.33218    -0.52446    0.045899
-0.0024977   -0.041799    0.076755   -0.038551    -0.35686    -0.53583    0.036154
-0.0034721   -0.026533     0.11216   -0.038551    -0.37213    -0.55305    0.025761
-0.0080194    -0.01484     0.14367   -0.047321    -0.36921    -0.57481    0.015692
-0.0096434  -0.0083442     0.16738   -0.058365    -0.33802     -0.5956   0.0059473
-0.007045  -0.0060706     0.18524   -0.063561    -0.28573    -0.60891  0.00010078
0.0010752  -0.0044465     0.20278   -0.057065    -0.23668    -0.61703      0.0014
0.0088706    0.003024     0.22877   -0.039526    -0.21135    -0.62288   0.0049729
0.0085458    0.015367     0.27586    -0.01614     -0.2172     -0.6323   0.0043233
-0.0028225    0.028359     0.35284   0.0026992    -0.24123    -0.64951  -0.0057458
-0.02426    0.035505     0.45646   0.0095202    -0.26527    -0.67615   -0.027508
-0.044723    0.031282     0.56494   0.0023744    -0.28053      -0.707    -0.05804
-0.058689     0.01764     0.64647   -0.013541    -0.28638    -0.73396   -0.083375
-0.06616  -0.0015233     0.67473   -0.027833    -0.29125     -0.7502   -0.098965
-0.072331   -0.019063     0.64419    -0.03173    -0.29937    -0.75508    -0.10546
-0.074605   -0.029457     0.56689   -0.024585    -0.32731    -0.75443    -0.11196
-0.077528   -0.034978      0.4688   -0.010943    -0.38999    -0.75638      -0.123
-0.084349   -0.034978     0.37883 -0.00087364    -0.49003     -0.7632    -0.13794
-0.095393    -0.03173     0.31744  -0.0018481    -0.61508    -0.77229    -0.15223
-0.10709   -0.027508     0.28528   -0.019712    -0.75053    -0.78269    -0.16425
-0.11358   -0.022636     0.27781   -0.053168    -0.87526    -0.79275    -0.17042
-0.11358   -0.017764     0.28463   -0.092145    -0.98082     -0.7986    -0.17335
-0.11066   -0.012242       0.296    -0.13177     -1.0568    -0.79925    -0.17822
-0.10579  -0.0076946     0.30899     -0.1662     -1.0874    -0.79308    -0.18536
-0.09994  -0.0047713      0.3314    -0.18244     -1.0529    -0.77976    -0.19154
-0.092145  -0.0050961     0.36064    -0.17627    -0.94834    -0.75962    -0.19251
-0.090196   -0.008669     0.38532    -0.14801    -0.78593    -0.73429    -0.18731
-0.093769    -0.01549     0.39052    -0.10806    -0.59072     -0.7083    -0.17887
-0.10449   -0.024585     0.36941   -0.065186    -0.39974    -0.68687    -0.17302
-0.11651   -0.035953     0.32978   -0.029782    -0.24383     -0.6755    -0.17367
-0.12527   -0.046022     0.28821   -0.011592    -0.14314    -0.67193    -0.18244
-0.13372   -0.052518     0.25053    -0.01549   -0.095393    -0.67193    -0.19251
-0.14184   -0.057065     0.21123   -0.038876   -0.079802    -0.66998    -0.19868
-0.14671   -0.054792     0.16348   -0.068434   -0.071357    -0.66283    -0.20096
-0.14119   -0.046347     0.10599   -0.086298   -0.053492    -0.65049    -0.19478
-0.12755   -0.035628    0.042975   -0.081751   -0.021661    -0.63262    -0.18374
-0.10741   -0.024909    -0.01484   -0.056416    0.016991    -0.60891     -0.1727
-0.083375   -0.018088   -0.064861   -0.021337    0.052395    -0.58001    -0.16523
-0.062587   -0.014516    -0.11261     0.01017    0.071883    -0.54915    -0.15905
-0.046347   -0.011267    -0.16328     0.03583    0.069285    -0.52219    -0.15191
-0.035303  -0.0083442     -0.2146    0.053369    0.044275    -0.50108    -0.14281
-0.026858  -0.0080194    -0.25747    0.062464  -0.0015233    -0.48484    -0.13534
-0.023935  -0.0083442    -0.28508    0.058566   -0.064536    -0.47184    -0.13015
-0.028157   -0.007045    -0.29807    0.045899    -0.13372    -0.46307    -0.13177
-0.034978 -0.00054884    -0.30035    0.028034    -0.18601     -0.4582    -0.14216
-0.038876    0.008221    -0.29905   0.0091954    -0.19738    -0.45138    -0.15905
-0.039201    0.015042    -0.29677  -0.0093186    -0.16393    -0.44099    -0.17757
-0.039201     0.01894    -0.29255    -0.03173    -0.10059    -0.42929    -0.18991
-0.040175    0.021538    -0.28151   -0.054467   -0.036602    -0.41988    -0.19154
-0.042449    0.023487    -0.26299   -0.069408   0.0039985    -0.40981    -0.18601
-0.045697    0.027709    -0.24578   -0.072331    0.019589    -0.39811    -0.17919
-0.050244    0.030633    -0.23766   -0.059989    0.020239    -0.38252    -0.17692
-0.05804    0.033556    -0.23928   -0.040825    0.024786    -0.36303    -0.17432
-0.070382     0.03453       -0.25   -0.019063    0.047198    -0.33802     -0.1701
-0.08305    0.032582    -0.25975 -0.00087364    0.087149    -0.31009    -0.16718
-0.093119    0.029009    -0.24545    0.010819     0.12483    -0.28248     -0.1688
-0.098316    0.023162    -0.17302     0.01764     0.13749    -0.25845    -0.17854
-0.098965    0.014068   -0.022636    0.020239     0.11833     -0.2461    -0.18959
-0.09929   0.0020496     0.19369    0.021213      0.0852     -0.2448    -0.19511
-0.10156   -0.012892     0.44736    0.020564    0.058241    -0.25227    -0.19154
-0.10416   -0.031406     0.68609     0.01894     0.05142    -0.25877    -0.18212
-0.10514    -0.04927     0.84525    0.017316    0.076431    -0.25487    -0.16945
-0.10416   -0.064861     0.86636    0.013743     0.13262    -0.23896    -0.15873
-0.10156    -0.07428     0.73254    0.010819     0.19628     -0.2172    -0.15093
-0.094743   -0.079802     0.48374    0.011469     0.23104    -0.19771    -0.14899
-0.084349     -0.0824     0.19628   0.0095202     0.22065    -0.18699    -0.15093
-0.072006   -0.084024   -0.055116   0.0036737     0.17062    -0.18439    -0.15256
-0.062262   -0.085973    -0.22369  -0.0021729     0.10242    -0.18309    -0.14899
-0.054467   -0.089221    -0.30229  -0.0018481    0.036804     -0.1727    -0.14249
-0.052518   -0.089871    -0.31236    0.008221   -0.019712    -0.14736     -0.1334
-0.054792   -0.088896    -0.28833    0.029009   -0.076229    -0.11001    -0.12463
-0.053168   -0.088896    -0.26039    0.056942    -0.14184   -0.072331    -0.11845
-0.045697   -0.090196    -0.23603    0.084226    -0.22142   -0.043423    -0.11196
-0.034654   -0.096367    -0.20778     0.10729    -0.30619   -0.021661    -0.10091
-0.029132    -0.10449    -0.17107     0.12255    -0.38155  -0.0057458   -0.079802
-0.033354    -0.11131    -0.13047     0.12905    -0.43644   0.0049729   -0.056091
-0.043423    -0.11358   -0.097341     0.12678    -0.46665   0.0085458   -0.038551
-0.052193    -0.10709   -0.081101     0.11606    -0.47867   0.0049729   -0.031406
-0.053168    -0.09182     -0.0824    0.093645    -0.48386  -0.0054209   -0.036278
-0.045047   -0.072331   -0.095393    0.058891    -0.48256   -0.019388   -0.045697
-0.032705   -0.050894    -0.11033    0.019264    -0.45658    -0.03238   -0.052193
-0.018413   -0.028482    -0.12463   -0.013541    -0.38155   -0.045047   -0.052843
-0.0063954  -0.0076946    -0.13859   -0.035628    -0.24123   -0.058365   -0.046347
0.0023744    0.010819    -0.15191    -0.04862   -0.033679   -0.070707   -0.039851
0.0069217    0.024786    -0.16847   -0.056416     0.21512   -0.078827   -0.041799
0.0072465    0.033231    -0.19186   -0.058365     0.46133   -0.076554   -0.050244
0.003024    0.031932     -0.2133   -0.054467     0.66076   -0.060313   -0.059339
-0.0063954    0.022188    -0.20615   -0.047321     0.78256   -0.034654   -0.064211
-0.01614    0.008221    -0.14541   -0.041475     0.81179   -0.008669   -0.065835
-0.022311  -0.0093186   -0.034654   -0.042449     0.76275    0.012119   -0.064861
-0.023935   -0.029457    0.078379   -0.052193     0.69032    0.024786   -0.065186
-0.021337   -0.051868      0.1336   -0.068758     0.65166    0.032257   -0.068434
-0.020362    -0.07428    0.082602   -0.084674      0.6731    0.040052    -0.07493
-0.021661   -0.092794   -0.085973   -0.094418     0.73709    0.050771   -0.082076
-0.019388    -0.10124     -0.3338   -0.097341     0.80497    0.063113   -0.087922
-0.012567   -0.094418    -0.58001   -0.096367      0.8407    0.076106   -0.084674
-0.0037969   -0.070382    -0.74761   -0.090521     0.82186    0.088448   -0.068109
0.0036737   -0.033679     -0.7973    -0.08305     0.74261    0.098842   -0.045372
0.008221   0.0088706    -0.73072   -0.069408     0.60522     0.10794   -0.029457
0.0078962    0.050771    -0.58553   -0.050894     0.41845     0.11541   -0.023935
0.0052977      0.0852    -0.41013    -0.03238     0.19434     0.11995   -0.026533
0.0017248     0.11118     -0.2539   -0.012892   -0.049595      0.1232   -0.029782
0.0010752      0.1297    -0.14509   0.0069217    -0.27404     0.12905   -0.028157
0.0052977     0.14042   -0.091495    0.021213      -0.428     0.13684   -0.020037
0.011469     0.14561   -0.084024    0.024137    -0.50075     0.14594   -0.011592
0.016666     0.14496   -0.094743    0.012443    -0.52284     0.15081  -0.0037969
0.022512     0.14334    -0.10319   -0.011917    -0.52576     0.14886   0.0056225
0.029983     0.14009    -0.10319   -0.038876    -0.52251     0.14302    0.015692
0.032906     0.13652    -0.10384   -0.057715    -0.52024     0.14139    0.022188
0.029009     0.12807    -0.12657   -0.064861    -0.53681     0.14432    0.029333
0.020564     0.11118    -0.19576   -0.058365     -0.5839     0.14789    0.037129
0.012768    0.090397    -0.31431   -0.041475    -0.63685     0.14951    0.044599
0.0085458    0.072208    -0.44326   -0.019063    -0.65861     0.15049    0.049796
0.0095202     0.06084    -0.53356 -0.00022403    -0.62256     0.15179    0.054993
0.015367    0.057917    -0.54395    0.011144    -0.53031     0.15568    0.059216
0.025111    0.063438    -0.46632    0.011794    -0.39584     0.16705    0.062139
0.038753    0.071234    -0.33088    0.011144     -0.2461     0.18427    0.062464
0.053369    0.071558    -0.18212    0.014392    -0.10384     0.20668    0.064413
0.064088    0.049472   -0.060313    0.026085    0.012768     0.22812    0.065062
0.067011  -0.0089938   0.0088706    0.040377    0.096569     0.24663    0.063763
0.062464    -0.10189    0.019914    0.044599     0.14951     0.25832    0.064088
0.053369    -0.20713  -0.0041217    0.036804      0.1729     0.25962    0.068635
0.04395    -0.29547   -0.037252    0.021538     0.16673     0.25443    0.076755
0.039727    -0.33932   -0.053817    0.012443     0.13522     0.24598    0.084226
0.040702    -0.32666   -0.035628    0.014717    0.091372     0.23429    0.089098
0.047523    -0.26884    0.012768    0.030633    0.049147     0.22162    0.088448
0.054344    -0.18569    0.074482    0.055643    0.023162     0.21155    0.080653
0.055643   -0.097991     0.13197    0.079679    0.027709       0.207    0.070584
0.053694   -0.018413     0.17322    0.095919    0.065387     0.20505    0.064737
0.050446    0.048822     0.19076     0.10306     0.12775     0.20278    0.066362
0.047523    0.096893     0.18654     0.10047     0.19304     0.19921    0.070909
0.048172     0.12515     0.16998    0.095269     0.24176     0.19336     0.07773
0.050446     0.13847     0.15016    0.092996     0.26352     0.18816    0.086824
0.052395     0.14107     0.12288    0.093321     0.25572     0.18492    0.097543
0.053369     0.13814    0.076106    0.096569     0.22714     0.18069     0.10729
0.053369      0.1336   0.0020496    0.098842     0.18849     0.17322     0.11411
0.053694     0.12645   -0.093444     0.10112     0.14756     0.16478     0.11736
0.055968     0.11833    -0.18049     0.10079     0.11216     0.15796     0.11736
0.057267     0.10989    -0.21785    0.097543    0.091372     0.15438     0.11346
0.056292     0.10306    -0.17432    0.093321    0.089748     0.15244     0.10729
0.05207    0.097543   -0.047971    0.088448     0.10826     0.14691    0.098193
0.045574    0.090722     0.15633    0.080978      0.1336     0.13327    0.087474
0.038428    0.082602     0.41001    0.067986     0.14854     0.11508    0.079354
0.031932    0.074157     0.65459    0.050121     0.13977     0.10177    0.074482
0.024786    0.069285      0.8394    0.031932     0.10371    0.094945     0.06896
0.016991    0.071883     0.94562    0.016341    0.049147     0.09397    0.063438
0.0072465    0.081303     0.98687   0.0059473   -0.015815    0.093321    0.062139
-0.0018481    0.092021     0.99596   0.0043233   -0.080127    0.093321    0.067011
-0.0047713     0.10306     0.99791    0.012768    -0.13372    0.095269    0.074482
-0.0021729     0.11183     0.98427    0.028684    -0.16912    0.099167    0.080978
0.0091954      0.1206     0.90144    0.042975    -0.19089     0.10339    0.084226
0.023162     0.12158     0.67083    0.045899    -0.21557     0.10501    0.083251
0.035505     0.10761     0.26872    0.034855    -0.26949     0.10339    0.078704
0.041027    0.079679    -0.18082    0.011144    -0.36433    0.096569     0.07708
0.031932    0.048172    -0.46048   -0.013541    -0.48646    0.082602    0.078704
0.014392    0.029658    -0.42475    -0.03238    -0.61443    0.062139    0.075131
-0.00022403    0.029983    -0.10091   -0.046671    -0.72844    0.036479    0.062139
-0.0063954    0.044275     0.33985    -0.05804    -0.80834   0.0091954    0.041676
-0.0073698    0.058891     0.69551    -0.06551    -0.82718   -0.021012    0.019589
-0.0089938    0.064088     0.85045   -0.069408    -0.75215   -0.052843   0.0036737
-0.014516    0.054344     0.79848   -0.070382    -0.56117   -0.086623  -0.0041217
-0.020362    0.029983     0.61756   -0.070382    -0.26592    -0.11586  -0.0057458
-0.025559  -0.0011985     0.41585   -0.070707    0.087149    -0.13599  -0.0037969
-0.030106   -0.029457     0.28333   -0.070058     0.43664    -0.14184  -0.0031473
-0.031081   -0.048296     0.25962   -0.065186     0.72345    -0.13242  -0.0044465
-0.026533   -0.055441     0.33303   -0.057065     0.91216    -0.11586   -0.008669
-0.017439   -0.056416     0.46133   -0.045697     0.99921    -0.10221   -0.013541
-0.008669   -0.056741     0.59417   -0.034978     0.99694   -0.093769    -0.01484
-0.010943   -0.062262     0.69876   -0.028482      0.9245   -0.089871   -0.012892
-0.025234   -0.073306     0.76112   -0.029132     0.78581    -0.09182   -0.011592
-0.046022   -0.084349     0.74066   -0.037577     0.58281    -0.10059   -0.013216
-0.063561   -0.093119     0.50518   -0.054142     0.33693    -0.11586   -0.016464
-0.069083    -0.10221   -0.087922   -0.073306    0.096569    -0.13599   -0.018088
-0.062587    -0.11488    -0.98536   -0.087922     -0.0837    -0.15678   -0.016464
-0.050894     -0.1269     -1.9383   -0.088247    -0.17237    -0.17302   -0.011267
-0.041475    -0.12982     -2.6799   -0.073955    -0.17465    -0.17854  -0.0067202
-0.036278     -0.1204     -3.0287   -0.047321    -0.12138    -0.16977  -0.0024977
-0.03238    -0.10059     -2.9485   -0.019388    -0.04927    -0.14704   0.0043233
-0.029132    -0.07493     -2.5347      0.0014   0.0078962    -0.11683    0.015042
-0.025559   -0.046347     -1.9601    0.014068    0.034855   -0.085973    0.022837
-0.022311   -0.018088     -1.3891    0.020239    0.030308    -0.05804    0.025111
-0.018088   0.0049729    -0.91001    0.023487    0.011469   -0.039851     0.02706
-0.017114    0.016991     -0.5079    0.025111  -0.0060706   -0.032705    0.031607
-0.020687    0.012443    -0.11001     0.02641   -0.010618   -0.032705    0.034855
-0.026209   -0.008669     0.31127    0.029009  -0.0015233    -0.03238     0.03453
-0.030431   -0.036278     0.72052    0.030308    0.016991   -0.027183    0.031282
-0.034654   -0.059014      1.0444    0.029658    0.041027   -0.018413    0.028034
-0.034329   -0.069083      1.2107    0.027709    0.072533  -0.0096434     0.02641
-0.029457   -0.067459      1.1915    0.025436     0.10859  -0.0018481    0.027385
-0.021661   -0.059014      1.0167    0.021213     0.15049   0.0033489    0.033556
-0.0096434    -0.04862     0.75983    0.016991     0.19628   0.0046481    0.044599
0.0026992   -0.038227     0.50063    0.015042     0.24403   0.0085458    0.056292
0.01764   -0.027833     0.30022    0.020564     0.28301    0.016341    0.068635
0.027709   -0.019712     0.18751    0.039727     0.29892     0.02641    0.075456
0.031282   -0.017439     0.15991    0.068635     0.27716     0.03453    0.073832
0.025436   -0.016789     0.18946    0.092996     0.20993    0.033556    0.061489
0.011794   -0.014516     0.23656     0.10014    0.097543     0.01894    0.045574
-0.0047713   -0.010943     0.26872    0.086175   -0.040825  -0.0073698    0.030308
-0.020037  -0.0054209     0.27391    0.057917    -0.17367   -0.040175    0.019914
-0.032055   0.0059473     0.24955    0.025436    -0.26754   -0.073306    0.015367
-0.041475    0.020239     0.19953   0.0017248    -0.30912    -0.09929    0.013743
-0.04927    0.033881      0.1349  -0.0093186    -0.30165    -0.11326    0.012443
-0.056091    0.044599    0.057267   -0.013866    -0.26559    -0.11748   0.0078962
-0.062912    0.046548   -0.029457   -0.017439    -0.23831    -0.12138  -0.0024977
-0.071032    0.042326    -0.11521   -0.025559     -0.2539    -0.12787   -0.020362
-0.078503     0.03583    -0.18926   -0.035628    -0.31983    -0.13242   -0.035628
-0.081101    0.030957    -0.24838   -0.041799    -0.40916     -0.1295   -0.044073
-0.077203    0.028684    -0.29093   -0.035953    -0.48679    -0.11683   -0.045372
-0.070707    0.026735    -0.31301   -0.018088    -0.52251   -0.097341     -0.0405
-0.061288    0.021863    -0.31106    0.003024    -0.50855   -0.077203   -0.030431
-0.046022    0.017316    -0.29353    0.016991    -0.46307   -0.063886   -0.017439
-0.028157    0.015042    -0.26884    0.020888    -0.41728   -0.059014  -0.0080194
-0.012892    0.017316    -0.23961    0.017316    -0.40039   -0.063886  -0.0041217
-0.0028225    0.021213    -0.20096    0.010819    -0.42085    -0.07428  -0.0021729
0.0017248    0.021863    -0.15223   0.0056225     -0.4582   -0.085973  0.00075039
0.0039985     0.01894    -0.10286   0.0052977     -0.4699   -0.090845   0.0059473
0.0072465    0.011794   -0.065186    0.011794    -0.41695   -0.089546   0.0062721
0.0075714   0.0046481   -0.037252    0.025436    -0.28411   -0.084024   0.0039985
0.0088706   0.0023744  -0.0031473    0.039402   -0.092469   -0.078178  -0.0011985
0.01017   0.0033489     0.06896    0.042651     0.11671   -0.072331  -0.0057458
0.01017   0.0072465     0.20668    0.033231     0.30347    -0.06616   -0.007045
0.013743    0.011469     0.41098    0.013093     0.44216   -0.058689  -0.0037969
0.023162    0.020564     0.64647  -0.0057458     0.52856   -0.050244   0.0046481
0.037454    0.037778      0.8459   -0.017764     0.57631   -0.042774    0.011469
0.055643    0.061489     0.94594   -0.017439      0.5997   -0.037252    0.014068
0.074157    0.087149     0.91638  -0.0044465     0.60489   -0.028157    0.014392
0.090722     0.10956     0.77249    0.019264      0.5841    -0.01549    0.015042
0.10144      0.1258     0.56462    0.041351     0.52142  0.00010078    0.018615
0.10729     0.13749     0.35024    0.056617     0.41715    0.013743    0.021863
0.10761     0.14269     0.17939    0.063763     0.28431     0.01829    0.024137
0.10404     0.14204    0.090722    0.062139     0.13977    0.014068    0.024137
0.094295     0.13197     0.10631     0.05272      0.0014   0.0039985    0.022188
0.082927     0.11086     0.21642    0.040702    -0.11098  -0.0060706     0.01764
0.076106    0.079679     0.36713    0.027385    -0.18082   -0.012242   0.0091954
0.072858    0.044924     0.48471    0.015042    -0.20908    -0.01549 -0.00087364
0.070259    0.013093     0.51784   0.0026992    -0.21655   -0.020362   -0.012892
0.067011   -0.010293     0.45061   -0.013866    -0.22629   -0.029132   -0.025884
0.060515   -0.023935     0.30769   -0.035953    -0.23311     -0.0405   -0.039201
0.047523   -0.030106     0.12872   -0.062262    -0.20908   -0.054142   -0.054792
0.028359   -0.030756   -0.046022   -0.081426    -0.13307   -0.070058   -0.075255
0.0069217   -0.026858    -0.19024   -0.085973   -0.019063   -0.081751   -0.097666
-0.012567   -0.022636     -0.2971   -0.073955    0.089423   -0.087922    -0.11845
-0.024909   -0.021012     -0.3718   -0.046996     0.14626   -0.089546    -0.13047
-0.030106    -0.02426    -0.42117   -0.012242     0.12288   -0.089546    -0.13242
-0.029132   -0.032705    -0.44846    0.021538    0.017316   -0.089221    -0.12365
-0.026858   -0.043423    -0.45788    0.046223    -0.14216   -0.085973    -0.11131
-0.025559   -0.051219    -0.45398    0.053044    -0.30132   -0.078178   -0.098965
-0.021012   -0.053168    -0.44489    0.036804    -0.41273   -0.072331   -0.085648
-0.012567   -0.051544    -0.42994  -0.0015233    -0.46762   -0.070058   -0.069408
-0.0047713   -0.048945    -0.39389   -0.049595    -0.49523   -0.073306   -0.052518
-0.0018481   -0.044398    -0.32146   -0.094743    -0.52804   -0.078178   -0.038227
-0.0057458   -0.039201     -0.2133    -0.12787    -0.59072     -0.0837   -0.031081
-0.011267   -0.035303   -0.085324    -0.14671    -0.68102   -0.094743   -0.028482
-0.012892   -0.032055    0.037454    -0.15678    -0.78593    -0.11651   -0.027183
-0.0096434   -0.030431     0.13814    -0.16295     -0.8772    -0.14736   -0.023285
-0.0083442   -0.028482      0.2096    -0.16782     -0.9308    -0.17107    -0.01549
-0.0093186   -0.025234     0.25832    -0.16847    -0.93405    -0.18049  -0.0083442
-0.010293   -0.018738     0.29503    -0.15841    -0.90156    -0.17659  -0.0057458
-0.0067202  -0.0099683     0.32004    -0.13924    -0.85837    -0.16263  -0.0089938
0.0033489  -0.0011985     0.32134    -0.12138    -0.82296    -0.14346    -0.01484
0.014392   0.0072465     0.29178    -0.10871    -0.79016    -0.12235   -0.017439
0.019589    0.014717     0.23039   -0.092145    -0.73299    -0.10481   -0.017764
0.014717    0.016341     0.14432   -0.066485      -0.631   -0.092794    -0.01549
0.00010078   0.0095202    0.045574   -0.030756    -0.48354    -0.08305   -0.010943
-0.022961   -0.008669   -0.058365   0.0072465    -0.31529   -0.068109  -0.0060706
-0.048296   -0.036278    -0.16458    0.042651    -0.15321   -0.046022  -0.0063954
-0.066485   -0.069083    -0.27696     0.06896  -0.0063954    -0.02361    -0.01484
-0.075579    -0.10221     -0.4137    0.082927     0.12645   -0.010293   -0.026209
-0.077853    -0.13015    -0.61768    0.077405     0.25443  -0.0093186    -0.03173
-0.075579    -0.14671    -0.93892     0.05142      0.3837   -0.016789   -0.033354
-0.067459    -0.14931     -1.3501   0.0049729     0.51167   -0.024585   -0.036927
-0.058689    -0.13664     -1.7396    -0.04992     0.62925   -0.022636   -0.042449
-0.051868    -0.11228     -1.9718    -0.10091      0.7215   -0.010943   -0.046347
-0.047646   -0.081101     -1.9601    -0.13177     0.78321   0.0046481   -0.046022
-0.045697    -0.04862     -1.7058    -0.13112     0.81504     0.01829   -0.039851
-0.041799   -0.021986     -1.2972   -0.097666     0.81699    0.029658   -0.031406
-0.034004  -0.0044465    -0.85642   -0.045047     0.79555    0.043625   -0.020687
-0.026209   0.0023744    -0.48126    0.009845     0.75333    0.061165  -0.0093186
-0.022311 -0.00054884    -0.21395    0.054668     0.69519    0.074157  -0.0015233
-0.021337   -0.007045   -0.051219    0.081952     0.63542    0.081303  0.00010078
-0.022311   -0.011592    0.037454    0.089098     0.57696    0.083901  -0.0037969
-0.02361  -0.0093186    0.080653    0.080653     0.51525    0.081952   -0.011592
-0.026533  0.00075039     0.10177    0.067661     0.44898    0.074806   -0.019388
-0.026533    0.019914     0.11476    0.058566      0.3798    0.064413   -0.025884
-0.022961    0.042001      0.1271    0.054344     0.32686    0.053694   -0.029132
-0.014191    0.059541     0.14367    0.053369     0.31127    0.045249   -0.027508
-0.0031473    0.066037      0.1625    0.057267     0.32458    0.038103   -0.021337
0.0072465    0.062789     0.17745    0.064413     0.34505    0.028359   -0.011267
0.011469    0.054993     0.19174    0.067011     0.37298    0.012443  -0.0018481
0.0072465    0.047523     0.22227    0.061165     0.40416  -0.0018481   0.0072465
-0.007045    0.043625     0.28301    0.046873     0.41813  -0.0067202    0.013093
-0.027508    0.044599      0.3824    0.032582     0.39214  0.00075039    0.017965
-0.047646    0.045574     0.52044    0.027709     0.31386    0.020888    0.021863
-0.060313      0.0433      0.6757     0.03583     0.18622    0.042001    0.025111
-0.066485    0.040702     0.81374    0.057917    0.026085    0.052395    0.025436
-0.069408    0.040702     0.90112    0.085525    -0.13794     0.05142    0.022512
-0.070707    0.044924     0.91021     0.11183    -0.26722    0.043625    0.015042
-0.068109    0.050771     0.83518      0.1271    -0.33445    0.037454   0.0091954
-0.058365    0.057917     0.69876      0.1258    -0.33283    0.031932   0.0069217
-0.044073    0.064737     0.53636     0.10924    -0.27209    0.024461   0.0062721
-0.028807    0.070584      0.3811     0.08585    -0.17562    0.016666   0.0095202
-0.015815    0.072858      0.2554    0.067336   -0.071032    0.016341    0.017965
-0.0067202    0.075781     0.16445    0.061489    0.014717     0.02641    0.028034
-0.00054884    0.075781    0.099817     0.06961    0.063113     0.04395     0.03453
0.0049729    0.071883    0.046223    0.088448    0.076106    0.060515    0.036154
0.01017    0.058566  -0.0050961     0.10339    0.063113     0.06896    0.035505
0.012443    0.036154   -0.055766    0.098193    0.032582    0.066037    0.036479
0.011469   0.0062721    -0.10709    0.070584  -0.0099683    0.056617    0.041676
0.0095202   -0.026533    -0.15581    0.029983   -0.047646    0.045249    0.044275
0.008221   -0.058365    -0.18179   -0.008669   -0.076879    0.036804    0.041676
0.0091954   -0.081426    -0.16588    -0.03173   -0.096692     0.03518    0.031282
0.014068    -0.09182   -0.093769   -0.033354    -0.11033    0.040702    0.019264
0.020564   -0.088247    0.023487   -0.016789    -0.12268    0.053694   0.0091954
0.025111   -0.077853     0.14724   0.0095202    -0.13599    0.070259   0.0017248
0.028034   -0.063237     0.23299    0.033231    -0.13892    0.081627  -0.0041217
0.024786   -0.047971     0.26027    0.045574    -0.11813    0.081303  -0.0041217
0.016016   -0.032705     0.23461    0.045899   -0.060313    0.070259  0.00075039
0.0039985   -0.020037     0.17874    0.040377    0.034206    0.056617   0.0069217
-0.0047713  -0.0093186      0.1206     0.03583     0.14789     0.05207    0.012443
-0.007045  0.00042559    0.080978    0.034855     0.24955    0.056942    0.016016
-0.0063954    0.010819     0.06831     0.03583     0.30899    0.068635    0.019589
-0.0073698    0.022188    0.076106    0.036804     0.31062    0.080328    0.021213
-0.013541    0.030957     0.09462    0.037454     0.25962      0.0852     0.01894
-0.023935    0.033556     0.10826    0.034855     0.17257    0.078379     0.01894
-0.032705    0.026735     0.11281    0.032257    0.079029    0.061165    0.023812
-0.034004    0.016666     0.10534    0.032582 -0.00022403    0.040702    0.031932
-0.027508    0.012443    0.093645    0.036804   -0.054467    0.025436    0.038428
-0.015815     0.01764    0.082277    0.042651   -0.089221    0.017316    0.037129
-0.0041217    0.028034    0.070259    0.042975    -0.10838    0.015692    0.031282
0.0039985    0.036804    0.058566     0.03453    -0.12138    0.014717    0.025111
0.0052977    0.039078    0.049796    0.015042    -0.14216    0.010819    0.017316
0.0039985    0.037778     0.04395  -0.0093186    -0.17594   0.0020496     0.01017
0.0017248    0.033231    0.039402   -0.030756    -0.21427  -0.0096434   0.0049729
0.00075039     0.02706    0.033231   -0.048296    -0.24091   -0.025234  0.00075039
0.00075039    0.019264    0.025111   -0.060638    -0.24091   -0.044723  -0.0028225
0.0010752    0.011144    0.018615   -0.063886    -0.21135   -0.059989  -0.0041217
0.0052977   0.0059473    0.019264   -0.059664    -0.15776    -0.06616  -0.0011985
0.014717   0.0059473    0.027385   -0.047971   -0.092145   -0.063561   0.0010752
0.025111    0.010819    0.038103   -0.030431   -0.024585   -0.055441   0.0036737
0.028684     0.01829    0.045249  -0.0089938    0.038428   -0.045047    0.009845
0.024461    0.022188    0.044924    0.013743    0.089423   -0.036602     0.01764
0.01764    0.022512    0.039727    0.033556     0.12255   -0.031081    0.027709
0.014717    0.021213     0.03453    0.049472       0.131   -0.029132    0.033556
0.021863    0.020564    0.033881     0.06084     0.11866   -0.025884    0.031607
0.036154    0.018615    0.035505    0.061814    0.093645   -0.020687    0.025436
0.048497    0.015367    0.032582     0.05272    0.061814   -0.010943     0.01829
0.050121    0.011469     0.01829     0.03583    0.025761  -0.0031473    0.012443
0.042001    0.009845  -0.0057458    0.018615    -0.01484  -0.0018481   0.0088706
0.030308    0.008221   -0.034329   0.0065969    -0.06551   -0.011267   0.0065969
0.019914   0.0049729   -0.059664 -0.00087364    -0.13567   -0.028157   0.0046481
0.012768   0.0020496   -0.073955  -0.0060706    -0.22564   -0.048296   0.0020496
0.0059473  0.00010078   -0.084024  -0.0067202    -0.32568   -0.063561   0.0010752
-0.0018481 -0.00054884   -0.097666  -0.0047713    -0.42085   -0.068109   0.0033489
-0.0067202   0.0010752    -0.12073   0.0023744    -0.50205   -0.062912   0.0085458
-0.0063954   0.0065969    -0.15646   0.0069217    -0.55305   -0.054792    0.012443
-0.0011985    0.015367    -0.19901   0.0023744    -0.56214   -0.052193    0.014717
0.0059473    0.025111    -0.23961   -0.018413    -0.52316   -0.058689    0.012443
0.011794    0.033231    -0.26462   -0.052843    -0.44066   -0.071032   0.0036737
0.016991    0.033231    -0.24643   -0.090845    -0.33413   -0.082076  -0.0076946
0.019589    0.028034    -0.16685      -0.123    -0.22889   -0.088247   -0.017764
0.016991    0.017965    -0.04992    -0.14444    -0.14639   -0.090845   -0.026533
0.0091954   0.0072465    0.047198    -0.15093   -0.093119   -0.093444    -0.03238
-0.0024977  -0.0015233    0.080328    -0.14249   -0.059989   -0.094093    -0.03173
-0.01484  -0.0067202    0.045249     -0.1256   -0.029457   -0.084999   -0.025884
-0.026209  -0.0093186   -0.032055    -0.10384    0.013743    -0.06616    -0.01614
-0.03173  -0.0089938    -0.11521   -0.079802    0.072208   -0.038227  -0.0044465
-0.028807  -0.0073698    -0.17335   -0.057715     0.14432  -0.0063954   0.0046481
-0.021337  -0.0041217    -0.18991   -0.038227     0.22552    0.023162   0.0069217
-0.014516  -0.0031473    -0.15905   -0.023285     0.30964    0.044275   0.0059473
-0.011267  -0.0060706   -0.083375   -0.012892      0.3889    0.050771   0.0036737
-0.010618   -0.012892    0.027709  -0.0050961     0.45483    0.042326  0.00042559
-0.014191   -0.027508      0.1729 -0.00087364     0.49381    0.022512  -0.0044465
-0.022636    -0.04992      0.3379  -0.0021729     0.49738  -0.0044465  -0.0076946
-0.033354   -0.075255     0.47789  -0.0080194     0.45613   -0.035303  -0.0093186
-0.042449   -0.098965     0.55032   -0.014516     0.35706   -0.063237  -0.0067202
-0.048296    -0.11748     0.53506   -0.019712     0.18946   -0.085324  -0.0028225
-0.047646    -0.12527     0.44574   -0.023935   -0.034978    -0.10059  -0.0031473
-0.039201     -0.1217     0.31614   -0.027183    -0.28411    -0.11358  -0.0047713
-0.027833    -0.10644     0.18459   -0.028157     -0.5105    -0.12495  -0.0041217
-0.01614   -0.082725    0.075456   -0.023285    -0.67323    -0.12917  -0.0015233
-0.010943    -0.05804  -0.0018481  -0.0099683    -0.74403    -0.12592    0.003024
-0.0080194   -0.036602    -0.04862   0.0085458    -0.71123    -0.11261   0.0085458
-0.0037969   -0.020687   -0.072656    0.024786     -0.5852   -0.090845    0.012119
0.0014   -0.008669   -0.075904    0.031607    -0.40299   -0.069083    0.015367
0.0056225    0.003024    -0.06551    0.028034    -0.20713   -0.053817    0.017965
0.0095202    0.012119   -0.047971    0.020239   -0.024909   -0.047971    0.019589
0.011469     0.01764   -0.027183    0.014068     0.14334   -0.048296    0.015692
0.011794    0.022512  -0.0067202    0.013743     0.31809   -0.052518   0.0046481
0.015042    0.029658    0.014717     0.01894     0.51654    -0.05739  -0.0096434
0.020239    0.037129    0.036804    0.024137     0.74488   -0.064536   -0.021337
0.019589    0.041027     0.05142    0.026085     0.97452   -0.072331   -0.025234
0.010495    0.042326    0.044924    0.021863      1.1502   -0.075579   -0.021986
-0.0024977    0.041351   0.0065969    0.015692      1.2201   -0.068434   -0.013866
-0.012892    0.036479   -0.054792    0.011144       1.161   -0.051868  -0.0037969
-0.01549    0.028359    -0.11651    0.008221     0.97615   -0.027508   0.0020496
-0.011267    0.019589     -0.1662    0.008221     0.70851 -0.00054884   0.0033489
-0.0028225    0.014392    -0.20615    0.016341     0.42105    0.022188 -0.00022403
0.0065969    0.014068     -0.2461    0.032257     0.17712    0.036804  -0.0060706
0.016016    0.021213    -0.28573    0.046873    0.014068    0.045249   -0.011592
0.020239    0.032906    -0.31074    0.056617   -0.060313    0.049472   -0.016464
0.018615    0.043625    -0.30002    0.064413   -0.059664    0.050121   -0.020362
0.012443    0.053044    -0.24221    0.074482  -0.0057458    0.044275   -0.025884
0.0039985    0.059865    -0.14411    0.079029    0.079679    0.028359   -0.033679
-0.0018481    0.061165    -0.03303    0.073832      0.1716   0.0033489   -0.043423
-0.0024977    0.057267    0.055968    0.059541     0.24598   -0.027183   -0.048296
-0.0018481    0.047198    0.099817    0.039402     0.28203   -0.058365   -0.047321
-0.00054884    0.033556    0.096893    0.019264     0.27586   -0.082076   -0.039526
-0.0028225    0.016666     0.06019   0.0072465     0.23754    -0.09117   -0.027833
-0.010293  -0.0015233   0.0091954   0.0017248     0.17225   -0.084024   -0.015165
-0.020362   -0.015815   -0.043423  -0.0011985    0.077405   -0.064211  -0.0047713
-0.029132   -0.021986   -0.091495  -0.0050961   -0.061613   -0.041475   0.0026992
-0.03173   -0.019712    -0.13599   -0.012242     -0.2591   -0.026209   0.0065969
-0.028807   -0.011917    -0.17854   -0.021661    -0.51082   -0.022311   0.0033489
-0.026858  -0.0024977     -0.2055   -0.032705    -0.77229   -0.033354  -0.0073698
-0.028482   0.0036737    -0.19608   -0.042449    -0.98894   -0.050244   -0.026209
-0.029457  -0.0018481    -0.15223    -0.04862     -1.1247   -0.067134   -0.043099
-0.026209   -0.027833    -0.10254   -0.053168     -1.1734   -0.077853   -0.054467
-0.022636   -0.088572    -0.10579   -0.059664     -1.1601   -0.081426   -0.057715
-0.021012    -0.18796    -0.20972   -0.070058     -1.1211   -0.079477   -0.054467
-0.019063    -0.30717    -0.40363   -0.081751     -1.0731   -0.076879   -0.044073
-0.018738    -0.40558    -0.61931   -0.085648     -1.0039   -0.075904   -0.030431
-0.018413    -0.44456    -0.77034   -0.076554    -0.89215   -0.077203   -0.017764
-0.01549    -0.41078    -0.79925   -0.051544    -0.72325   -0.075579  -0.0067202
-0.0054209    -0.31854    -0.70636   -0.019063    -0.49523   -0.071032   0.0020496
0.009845    -0.20031    -0.54395    0.010495    -0.23051   -0.062587    0.010819
0.025436   -0.090196    -0.37538    0.033556    0.027709   -0.052193     0.01829
0.033231  -0.0060706    -0.24286    0.049472     0.23331   -0.042449    0.022837
0.033231    0.049472    -0.16263    0.058241     0.36194   -0.028157    0.024461
0.029983    0.082927     -0.1243    0.063113     0.40936  -0.0044465    0.027709
0.02641     0.10014    -0.11618    0.068635     0.39247    0.023162    0.030957
0.023487     0.10761    -0.12657    0.079029     0.33595    0.042326    0.029333
0.023162     0.11248    -0.14769    0.094945     0.27846    0.047523     0.02706
0.028684     0.12028     -0.1727     0.11021     0.25767    0.043625    0.026085
0.039078     0.12937    -0.19348     0.12028     0.29113    0.041351    0.032257
0.050771     0.13749    -0.20193     0.12223     0.35641    0.044924    0.041027
0.055643     0.14074    -0.18959     0.11671     0.39896    0.050446    0.046548
0.049147     0.13977    -0.14606     0.10112     0.37493    0.047847    0.046548
0.034855     0.13652   -0.042124    0.075781     0.27391    0.033881    0.040052
0.019264      0.1336     0.14204    0.047198     0.11963    0.012443    0.029658
0.0062721     0.13327     0.39247    0.027709   -0.044723   -0.008669    0.019589
-0.00087364     0.13165      0.6705    0.023162    -0.17497   -0.022636    0.014717
-0.0034721     0.12678     0.93197    0.029983    -0.25747   -0.024909    0.015042
-0.0041217     0.11671      1.1207    0.038428    -0.31074   -0.017114     0.01764
-0.0083442     0.10371      1.1847    0.037129     -0.3705  -0.0076946     0.01829
-0.018088    0.090072      1.1041    0.018615    -0.45723  -0.0050961    0.014717
-0.030431    0.079679     0.89592   -0.012892    -0.57741   -0.010293   0.0056225
-0.039851    0.075781     0.62276   -0.046022    -0.72909   -0.018413  -0.0060706
-0.045047     0.07773     0.36031   -0.071357    -0.90968    -0.02361   -0.016464
-0.042449    0.083576     0.16673   -0.080127     -1.0939   -0.019063   -0.021012
-0.034329    0.089098     0.06019   -0.075579     -1.2465  -0.0067202   -0.023285
-0.02426    0.089423    0.026085    -0.06551      -1.331   0.0065969   -0.024585
-0.01484    0.084551    0.032257   -0.063237     -1.3196    0.015042    -0.02426
-0.0063954    0.077405    0.054993   -0.075255     -1.2069    0.016016   -0.023285
-0.0031473    0.067661    0.085525   -0.098965     -1.0104   0.0095202   -0.021986
-0.0028225    0.060515      0.1245    -0.12495    -0.75897   0.0020496   -0.017439
-0.0050961    0.058566     0.17647    -0.14087    -0.48938   0.0010752   -0.008669
-0.007045    0.058241     0.24403    -0.13892    -0.23474   0.0088706   0.0026992
-0.0044465    0.057917      0.3314      -0.123   -0.024585    0.024461    0.013418
0.0010752    0.058891     0.44541    -0.10156     0.12678    0.038753    0.021213
0.0072465    0.058891     0.58573   -0.079802     0.22227    0.046873    0.025436
0.01017    0.057267     0.74943   -0.062912     0.27814    0.051745    0.024461
0.0088706    0.053694     0.92873   -0.050569     0.31192    0.054993    0.019914
0.0043233    0.050446      1.1119   -0.039201     0.34212    0.055968    0.015367
0.0023744    0.046873      1.2912   -0.023935     0.37688    0.056617     0.01017
0.0052977      0.0433      1.4413  -0.0057458      0.4178    0.055318   0.0033489
0.0095202    0.037778      1.4588    0.010819     0.45581    0.050771  -0.0054209
0.013093     0.02641      1.1113    0.018615     0.48276    0.054019   -0.034004
0.025111   0.0091954     0.18134    0.036154     0.49933     0.15991    -0.16588
0.050121  -0.0063954     -1.1971    0.061814     0.50485     0.37071     -0.3731
0.076431   -0.020687     -2.5305    0.074482     0.49868     0.54155    -0.48679
0.092671   -0.031406     -3.4026    0.066037     0.48276     0.58021    -0.43612
0.09462   -0.038227      -3.617    0.046548      0.4597     0.49608    -0.26462
0.084876   -0.040175     -3.2298    0.032257     0.43762     0.35869   -0.069083
0.071883   -0.035303     -2.4697    0.036154     0.42365     0.24013    0.076106
0.062789   -0.021661     -1.6135    0.054668      0.4152     0.17062     0.14464
0.061489  -0.0015233    -0.87753     0.07773     0.40806     0.14821     0.14886
0.064737    0.019264    -0.36693    0.096244     0.40708     0.14951      0.1206
0.068635     0.03583   -0.082725     0.11118     0.42332     0.15828    0.091696
0.073182    0.046223    0.042975     0.12807     0.45678     0.16673    0.078704
0.077405     0.05142    0.089423     0.14626     0.49153     0.17257    0.080328
0.076106    0.050771     0.11411     0.16056     0.50453      0.1729    0.089748
0.064413    0.044924     0.14594     0.15991     0.47692      0.1651    0.095269
0.043625    0.033231     0.18751      0.1336     0.40903     0.14464    0.094945
0.014392     0.01894     0.22941    0.084876     0.31711     0.11443    0.088124
-0.013216   0.0085458     0.26125    0.021538     0.22324    0.080978    0.080653
-0.029457   0.0036737     0.27684   -0.041475     0.15698     0.05207    0.073182
-0.03173  0.00075039     0.28041   -0.090196     0.13814    0.030957     0.06896
-0.025559  0.00010078     0.28398    -0.11488     0.16835    0.021213    0.068635
-0.023935   0.0020496      0.2947    -0.11066     0.23591    0.021863    0.070259
-0.029457   0.0088706     0.30899   -0.086298     0.32556    0.032257    0.075456
-0.04115    0.017316     0.32198   -0.052518     0.41878    0.050121    0.087799
-0.051868    0.023487     0.32913   -0.022636     0.49706     0.06831     0.10339
-0.059989    0.026085     0.32881  -0.0054209     0.54415    0.076106     0.11703
-0.067784    0.018615     0.31419  -0.0024977     0.56104    0.070584     0.12223
-0.073306    0.003024     0.28171   -0.007045     0.55455    0.058566      0.1206
-0.077528   -0.017114     0.23591  -0.0089938     0.52824    0.046873     0.11313
-0.081101    -0.04115     0.18622  -0.0060706     0.48959      0.0433     0.10631
-0.08305   -0.062912     0.13425  0.00042559     0.43697    0.042001     0.10242
-0.080451   -0.078503    0.077405    0.015367     0.36518    0.040377     0.10047
-0.072981   -0.086948    0.025436    0.042326     0.27911    0.036154    0.098193
-0.059339   -0.085648  -0.0034721    0.072208     0.19239    0.028034    0.097218
-0.041799   -0.073306 -0.00054884    0.098842     0.11963     0.01894     0.10209
-0.026209   -0.048296    0.031282     0.11573    0.058566     0.01017     0.11183
-0.017439   -0.015815    0.079354     0.12158  -0.0067202   0.0046481      0.1219
-0.014191     0.01829      0.1297     0.11898   -0.077528   0.0020496      0.1297
-0.014191    0.047523     0.17257     0.11248    -0.13599      0.0014     0.13197
-0.014516     0.06019     0.20148     0.10371    -0.17367  -0.0024977      0.1297
-0.010618    0.049472      0.2187    0.096244    -0.18634   -0.012567     0.12288
-0.007045    0.016991     0.24143    0.084876    -0.16068   -0.027508     0.11216
-0.0076946   -0.026858     0.29113    0.067986   -0.087597   -0.045047    0.098842
-0.010943   -0.068434     0.38207    0.049147    0.022188   -0.056416    0.087474
-0.012567   -0.096042     0.51167    0.033231     0.13717   -0.059989    0.079679
-0.0047713    -0.10189     0.65491    0.022188     0.22617    -0.05804    0.077405
0.010495   -0.087922     0.77672    0.016991     0.27749   -0.053817     0.07708
0.02706   -0.058365     0.85402    0.021538     0.28853   -0.052843    0.075131
0.040377   -0.018413     0.87416    0.037129      0.2528   -0.056741    0.071883
0.046548    0.023162      0.8407    0.054019     0.16445   -0.064536    0.070584
0.048497    0.061814     0.77282    0.061165    0.017316   -0.075579    0.074482
0.05272     0.09397     0.69389    0.056292    -0.19511   -0.089221    0.079029
0.062464     0.11736     0.61496    0.044275    -0.45528    -0.10579    0.079029
0.078055     0.13327     0.53343    0.031932    -0.71448    -0.12203    0.076106
0.092671     0.14302     0.43989     0.02706    -0.91066    -0.13275    0.070909
0.10112     0.14821     0.34082     0.03583    -0.99511     -0.1321    0.060515
0.10599     0.15081     0.25605    0.060515    -0.96458    -0.12268    0.050771
0.10631     0.15114     0.21188    0.089098    -0.85057    -0.11001    0.047198
0.097868     0.14464     0.20408     0.10794    -0.70116    -0.10384    0.048822
0.075781     0.12613     0.18719     0.10534    -0.55207    -0.11131    0.051096
0.044275    0.090072     0.11216    0.073832     -0.4228     -0.1334    0.044275
0.009845    0.035505    -0.04992    0.013093    -0.32211     -0.1688    0.025111
-0.021337    -0.03303    -0.29223   -0.068109    -0.25585    -0.21655  -0.0041217
-0.046347    -0.10579    -0.55207    -0.15483    -0.21979    -0.27046   -0.037902
-0.068109     -0.1688    -0.74371    -0.23279    -0.19868    -0.32178   -0.069733
-0.086623      -0.212    -0.82101     -0.2867    -0.17205    -0.35751   -0.090196
-0.10091    -0.23344    -0.79958    -0.31301    -0.12463    -0.37148   -0.094093
-0.10838    -0.24156    -0.73786    -0.31171   -0.048296    -0.36076   -0.088247
-0.10449    -0.24091    -0.68752     -0.2919    0.058891    -0.33055   -0.079152
-0.088896    -0.23214    -0.66575     -0.2591     0.18199    -0.28735   -0.073306
-0.065835    -0.21167    -0.64627    -0.22077     0.28691    -0.23863   -0.070707
-0.039526    -0.17789    -0.57416    -0.17984     0.34927    -0.19089   -0.066485
-0.01484    -0.13469    -0.40006    -0.13892     0.36941    -0.14801   -0.057715
0.0059473   -0.088247    -0.12365   -0.096367     0.37623    -0.11488   -0.046022
0.017965   -0.044723     0.20408   -0.056091     0.39507   -0.090845   -0.037252
0.019589   -0.014516     0.50388   -0.021012     0.43047   -0.070707   -0.034329
0.01764 -0.00022403     0.70558   0.0085458     0.46523   -0.054467   -0.035628
0.013418  -0.0018481     0.76567    0.032257     0.46912   -0.046022   -0.037902
0.0065969   -0.012567      0.6796    0.046548     0.41293   -0.051544   -0.039526
-0.0047713   -0.027183     0.48764    0.049147     0.28106   -0.071682   -0.046022
-0.016789   -0.044398      0.2567    0.040702    0.066362    -0.10124   -0.059014
-0.030431   -0.061288    0.048822    0.023487    -0.20908    -0.13437   -0.076554
-0.046996   -0.073631   -0.095393   0.0033489    -0.48159    -0.16393   -0.096692
-0.062912   -0.072656     -0.1675   -0.012567    -0.67258    -0.18504    -0.11261
-0.072006   -0.055116    -0.18277    -0.01549    -0.74208    -0.19348      -0.123
-0.070058   -0.028807     -0.1675  -0.0054209     -0.7096    -0.18569    -0.12657
-0.060313  -0.0015233    -0.15093    0.010495    -0.62353    -0.16912    -0.12527
-0.045697    0.020239    -0.15613    0.024137    -0.52966    -0.15321     -0.1204
-0.030756    0.030633    -0.18731    0.031932    -0.45528    -0.14346    -0.11131
-0.018088    0.030308    -0.23311    0.029333    -0.41273    -0.13664    -0.10351
-0.012242    0.021863    -0.27664    0.020888    -0.41305    -0.13275   -0.097991
-0.012892    0.014392    -0.31301   0.0095202    -0.47152    -0.13599   -0.095068
-0.016789   0.0065969    -0.34744 -0.00087364    -0.57903    -0.14509   -0.097341
-0.022311      0.0014    -0.38382  -0.0024977    -0.68622    -0.15191   -0.095393
-0.025559  0.00010078     -0.4254   0.0075714    -0.73689    -0.15548   -0.086948
-0.025234   0.0036737    -0.47055    0.025436    -0.68102    -0.15418   -0.077203
-0.022636   0.0085458    -0.50855    0.046548    -0.49718    -0.14379   -0.071032
-0.018088    0.010495    -0.52122    0.062464     -0.2029    -0.12463   -0.067784
-0.015165   0.0065969    -0.49003    0.063113     0.15633    -0.10091   -0.069733
-0.015165  -0.0028225    -0.41793    0.047523     0.51492   -0.080451   -0.076229
-0.017114   -0.012892    -0.33607    0.020888     0.80952   -0.067784   -0.082725
-0.022311   -0.017439    -0.27436  -0.0050961     0.99369   -0.059339   -0.088247
-0.028482   -0.012242    -0.24578   -0.023285       1.046   -0.045697    -0.09182
-0.029782   0.0010752    -0.24318   -0.031406     0.97355    -0.02426   -0.094418
-0.021661    0.021863    -0.25033   -0.030756     0.81147  -0.0015233   -0.095393
-0.007045    0.045249     -0.2448   -0.025884     0.60717    0.016341   -0.093119
0.008221    0.066686    -0.21622   -0.019388     0.40741    0.025111   -0.087597
0.016991    0.075131    -0.16782   -0.011267     0.24923    0.024786   -0.080776
0.01829    0.068635    -0.11066 -0.00054884     0.14561    0.021538   -0.071682
0.014068    0.054668   -0.051544    0.011469    0.091047    0.021538   -0.061937
0.011794    0.037129   0.0062721    0.021863    0.069285    0.026735   -0.052843
0.014068    0.022837    0.078704    0.028034    0.061165    0.033881   -0.041475
0.017316    0.014717     0.17517    0.029983    0.053369    0.039078   -0.029132
0.015367     0.01017     0.27619    0.030308     0.04395    0.045249   -0.020037
0.0085458    0.011144     0.34472    0.031282     0.03518    0.053369   -0.015815
-0.0031473    0.014068     0.35414    0.032257    0.026085    0.064737   -0.016464
-0.015815    0.016991      0.3012    0.036154    0.013418    0.077405   -0.021337
-0.025559    0.015042     0.20668    0.042326  -0.0057458      0.0852   -0.025884
-0.034329   0.0072465     0.10436    0.050771   -0.029457    0.087799   -0.030106
-0.04115  -0.0031473    0.019914    0.062139   -0.054792    0.084226   -0.034329
-0.047971   -0.010293   -0.035303    0.077405   -0.076879     0.07773   -0.034004
-0.051868  -0.0096434   -0.069083    0.092346   -0.092469    0.074157   -0.027833
-0.049595  0.00010078   -0.093119     0.10501    -0.10514    0.073182   -0.019063
-0.039851    0.014717    -0.11456     0.10989    -0.12333    0.070909   -0.012567
-0.025234    0.030957    -0.12625     0.10631    -0.15321    0.063438   -0.011592
-0.013866    0.042326    -0.13047    0.096244    -0.19478    0.047847   -0.015815
-0.012567    0.047523    -0.12917    0.082602    -0.23474    0.029333   -0.020362
-0.020362    0.048172    -0.12625    0.064088    -0.26007    0.012443   -0.021012
-0.030431    0.046548    -0.12008    0.044599    -0.26787  0.00010078   -0.018738
-0.03238    0.045899    -0.11163    0.030957    -0.26169  -0.0089938   -0.012892
-0.024585    0.045249    -0.10156    0.019264    -0.24578   -0.015165  -0.0063954
-0.012892    0.041676   -0.092469   0.0049729    -0.22694   -0.017764  -0.0031473
-0.0063954     0.03583   -0.090196   -0.012567    -0.21005   -0.019063  -0.0067202
-0.0060706    0.027709   -0.097666   -0.027508    -0.20031   -0.022311   -0.012567
-0.008669    0.015692    -0.11033   -0.035953    -0.19901    -0.02426    -0.01549
-0.010618   0.0026992    -0.11748   -0.039526    -0.19966    -0.02426   -0.013866
-0.011917  -0.0063954    -0.10059     -0.0405    -0.20193   -0.020037   -0.011917
-0.013216  -0.0093186   -0.046347   -0.041475    -0.19966   -0.012567   -0.011917
-0.018738   -0.010618    0.042975   -0.039201    -0.19641  -0.0031473   -0.010943
-0.030106   -0.015815     0.14594   -0.030756    -0.19738   0.0052977  -0.0050961
-0.042124   -0.019712     0.22324   -0.017764    -0.19933    0.010495   0.0017248
-0.049595   -0.019063     0.24468  -0.0057458    -0.18959    0.011794   0.0062721
-0.047971   -0.017764     0.20668 -0.00054884     -0.1597    0.013418   0.0065969
-0.039851   -0.020037     0.12613  -0.0047713    -0.10903    0.017965   0.0059473
-0.031081   -0.025559    0.030308   -0.012892   -0.047646    0.021213   0.0062721
-0.02361   -0.029782   -0.055116    -0.02361    0.009845    0.020564    0.008221
-0.017439   -0.031406    -0.11326   -0.029457    0.050771    0.018615   0.0085458
-0.013866   -0.033679    -0.14216   -0.026209    0.071234    0.016991   0.0039985
-0.01549   -0.035953    -0.14639   -0.014516    0.070909    0.014392  -0.0018481
-0.021986   -0.039526    -0.13502  -0.0015233    0.057592    0.014717  -0.0080194
-0.025559   -0.042449    -0.11131   0.0039985    0.039078    0.016666   -0.010618
-0.02426   -0.042774     -0.0837  -0.0031473    0.019914    0.020888  -0.0073698
-0.019063   -0.039526   -0.061288   -0.018088   0.0036737    0.021863   0.0023744
-0.013866   -0.027833   -0.040825   -0.034329  -0.0089938    0.019264    0.011144
-0.0083442   -0.010943   -0.011267   -0.050894   -0.020362     0.01764    0.016341
-0.0034721   0.0085458    0.037129   -0.062587   -0.025884    0.017316    0.020239
-0.0015233    0.028359    0.098517    -0.06551   -0.022311    0.013093    0.024786
-0.0037969    0.044599     0.15828   -0.057065   -0.012242   0.0043233     0.02706
-0.0083442    0.053044     0.20408   -0.043423  -0.0024977  -0.0050961    0.028359
-0.010943    0.054019     0.22584   -0.029132  -0.0021729   -0.008669    0.024461
-0.0096434    0.049796     0.22487   -0.019712   -0.013216  -0.0054209    0.020239
-0.0057458    0.040052     0.20505   -0.015815   -0.028807   0.0056225    0.017965
0.0020496     0.02641      0.1768   -0.015165   -0.040175    0.017316    0.015692
0.0085458    0.012119     0.14724   -0.016464   -0.045372    0.020888    0.011144
0.0088706   0.0017248     0.11898   -0.018088   -0.052518    0.015367   0.0023744
0.0023744  -0.0067202      0.0865   -0.018088   -0.062912   0.0056225  -0.0099683
-0.0063954   -0.011917    0.046873    -0.01549   -0.068434  -0.0031473   -0.024585
-0.012567    -0.01484  -0.0021729   -0.013216   -0.066485  -0.0096434   -0.034978
-0.012567   -0.015815   -0.057065   -0.011592   -0.059664   -0.013541   -0.039526
-0.010943   -0.016789    -0.10774   -0.012242   -0.053817   -0.013866   -0.040175
-0.0099683   -0.021012    -0.13664   -0.014516   -0.046996   -0.014191   -0.035628
-0.0076946   -0.031406    -0.14444   -0.015815   -0.037902   -0.016464   -0.029782
-0.0018481   -0.051544    -0.16393   -0.017439   -0.022961   -0.018738   -0.029457
0.0052977   -0.077203    -0.24091   -0.024585 -0.00054884   -0.019063   -0.031406
0.010495   -0.098316    -0.37895   -0.032705    0.029333   -0.017439   -0.031081
0.012443    -0.10351    -0.52901   -0.036278    0.061814    -0.01614   -0.026858
0.011794   -0.092469    -0.62483   -0.032055    0.091696    -0.01549   -0.018413
0.010819   -0.072656    -0.62061    -0.02361     0.11898   -0.010293   -0.010293
0.013418   -0.050569    -0.51537   -0.011592     0.14399  -0.0041217  -0.0044465
0.017965   -0.032705    -0.34777  0.00042559      0.1625  -0.0018481   0.0033489
0.024461   -0.023935    -0.17075   0.0095202     0.17387  -0.0054209    0.013418
0.029983   -0.021337   -0.021661    0.015042     0.17777   -0.015815    0.024461
0.031282   -0.021012    0.088124    0.017965     0.17874   -0.029132    0.033231
0.028034   -0.018738      0.1677    0.018615     0.18297   -0.038551    0.039402
0.023162   -0.010293     0.22552    0.015367     0.19239   -0.041799    0.039727
0.016016   0.0033489     0.26287    0.013418     0.20376   -0.042774    0.034206
0.0069217    0.015367     0.27521    0.014392     0.21285   -0.044398    0.025436
-0.0031473     0.01894      0.2541     0.01829     0.21772    -0.04992     0.01829
-0.0099683    0.013418     0.19856    0.022188     0.20993   -0.057715    0.015042
-0.010293   0.0062721      0.1232    0.024137     0.18654   -0.065186    0.011794
-0.0031473  -0.0011985     0.05272    0.021863     0.15309   -0.066485    0.010819
0.0088706  -0.0041217    0.013093    0.019264     0.11931   -0.059664    0.012119
0.022188  -0.0057458    0.012443    0.015367      0.0865   -0.047646    0.013743
0.031282  -0.0063954    0.040052    0.010495    0.054668   -0.037577    0.012768
0.032582  -0.0047713    0.076106   0.0078962    0.028684   -0.030756    0.010495
0.027385 -0.00022403     0.10339    0.010819    0.012119   -0.026209   0.0075714
0.021213   0.0075714     0.11703    0.021538   0.0095202   -0.017439   0.0046481
0.018615    0.017965     0.11703    0.036479    0.021213  -0.0057458   0.0017248
0.01764    0.028359     0.11118    0.048822    0.046873   0.0043233 -0.00087364
0.015042    0.035505     0.10469    0.056942    0.084876    0.008221  -0.0015233
0.011469    0.040702    0.099817    0.061814     0.13067    0.009845   0.0046481
