0.012768 -0.00022403    0.013418    0.042975   -0.068758   -0.043423  -0.0060706
0.0026992  -0.0076946  -0.0011985    0.043625   -0.055766   -0.039201   -0.008669
-0.008669   -0.013216   -0.013216    0.047523   -0.045047   -0.034004   -0.011917
-0.015815   -0.013216   -0.018738    0.046548   -0.038876   -0.032055    -0.01484
-0.013541  -0.0096434   -0.021012    0.044275   -0.035953   -0.032055    -0.01484
-0.007045  -0.0037969   -0.019388    0.039402   -0.029782    -0.03173   -0.013866
0.0020496   0.0056225   -0.019063     0.03583   -0.016464    -0.03173   -0.013541
0.010495    0.017965   -0.018088    0.034855  0.00010078   -0.031406    -0.01614
0.01764    0.027709   -0.016789     0.03518    0.013743   -0.031081   -0.020687
0.024461    0.030957   -0.014191    0.033881    0.020888   -0.031406   -0.024909
0.028034    0.031282   -0.010293    0.027385    0.022188    -0.03173   -0.026209
0.028034    0.030957  -0.0080194    0.017316    0.022188   -0.027183   -0.024909
0.028034    0.029009  -0.0050961   0.0085458    0.025111   -0.013541   -0.025234
0.027709     0.02706  -0.0018481   0.0020496    0.031932   0.0033489   -0.028807
0.023487    0.026085   0.0026992  -0.0031473    0.037129    0.017316   -0.034654
0.015367    0.025761   0.0059473  -0.0076946    0.036479     0.02706   -0.036602
0.0088706    0.024786   0.0039985   -0.013541    0.027385    0.028684   -0.034978
0.008221    0.022188  0.00010078   -0.018738    0.015692    0.026735    -0.03173
0.0091954    0.021863  -0.0021729   -0.021986   0.0036737    0.025761   -0.026533
0.009845    0.027709  -0.0011985   -0.019712  -0.0057458    0.027709   -0.018088
0.0069217    0.037778  -0.0024977   -0.013866  -0.0093186    0.031282  -0.0063954
-0.00054884    0.045249   -0.007045  -0.0067202  -0.0089938    0.032582   0.0062721
-0.0076946    0.047198    -0.01484  0.00010078  -0.0096434     0.03453    0.013743
-0.0089938    0.042001   -0.019063   0.0062721   -0.013541    0.039078    0.014717
-0.0057458    0.032582   -0.021012    0.013093   -0.018738    0.046873    0.015692
-0.0028225    0.023162   -0.021661    0.020888   -0.018738    0.053369    0.019914
-0.00054884    0.020888   -0.018088    0.022837   -0.013541    0.051096    0.021863
0.0043233    0.021538   -0.011267    0.016991  -0.0028225    0.036154    0.019914
0.01017    0.020239 -0.00087364   0.0056225    0.019589    0.014717    0.016991
0.010819    0.015692    0.011144  -0.0037969    0.053694  -0.0063954    0.016341
0.0020496    0.008221    0.019589  -0.0093186    0.091696   -0.017764    0.018615
-0.013541   0.0052977    0.019914   -0.011267     0.12255   -0.020037    0.023812
-0.028482   0.0085458    0.013743   -0.010943     0.13652   -0.017439    0.030308
-0.035303    0.014717  0.00075039   -0.014191     0.12483   -0.013866    0.033881
-0.035303    0.019914   -0.012892   -0.018088     0.09397  -0.0093186    0.032582
-0.033354    0.020239   -0.022636   -0.020037    0.058891  -0.0034721    0.028034
-0.031081    0.015692   -0.029132   -0.019712    0.031932    0.003024    0.024786
-0.033354    0.008221   -0.029782   -0.018088    0.018615   0.0072465    0.023812
-0.038876  -0.0011985   -0.023285   -0.016464    0.013743   0.0078962    0.024786
-0.044723   -0.007045   -0.014516   -0.016464   0.0085458   0.0065969    0.020888
-0.047646  -0.0096434  -0.0093186   -0.016464  0.00042559   0.0059473    0.012768
-0.043423   -0.008669  -0.0063954   -0.012892  -0.0073698   0.0062721   0.0026992
-0.035303  -0.0089938  -0.0015233  -0.0073698  -0.0073698   0.0078962  -0.0021729
-0.029132  -0.0093186   0.0026992  -0.0015233   0.0036737    0.010819  0.00075039
-0.024909   -0.007045   0.0056225  0.00042559    0.015367    0.014717   0.0095202
-0.022311  -0.0031473   0.0088706 -0.00054884    0.015367    0.016991    0.018615
-0.017114   0.0026992     0.01017   0.0017248   0.0023744    0.014068    0.023812
-0.011267   0.0065969   0.0065969   0.0085458   -0.018738   0.0095202    0.023162
-0.0057458   0.0056225 -0.00087364    0.016991   -0.039201   0.0033489    0.019914
-0.0015233  0.00075039  -0.0063954    0.021538   -0.056091  -0.0024977    0.016666
-0.00054884  -0.0054209  -0.0054209    0.020564   -0.069083   -0.010618    0.015692
0.00075039  -0.0067202   0.0023744    0.017316   -0.075579   -0.020687    0.012443
0.0039985  -0.0054209   0.0088706    0.013093   -0.073306   -0.032705   0.0052977
0.0088706  -0.0031473   0.0095202   0.0085458    -0.06616   -0.045372  -0.0024977
0.013743  -0.0037969   0.0033489   0.0023744   -0.059014   -0.051868  -0.0083442
0.015692  -0.0060706  -0.0044465  -0.0037969   -0.053492   -0.051544  -0.0073698
0.012443  -0.0099683  -0.0099683  -0.0076946    -0.04862    -0.04862  -0.0031473
0.0052977   -0.012892   -0.011917   -0.008669   -0.042449   -0.046671   0.0052977
-0.0037969   -0.016789   -0.008669  -0.0063954   -0.030106   -0.042124    0.010819
-0.012242   -0.018088  -0.0011985  -0.0024977   -0.010293   -0.034329    0.010819
-0.017764   -0.017439   0.0039985   0.0026992    0.014717   -0.022636    0.003024
-0.020687   -0.017114   0.0078962    0.009845    0.041027   -0.013866  -0.0076946
-0.023285   -0.017764    0.010495    0.020564    0.065387   -0.012892   -0.021986
-0.024909   -0.016464    0.013418    0.029983    0.087474   -0.019063   -0.031406
-0.022311   -0.014191    0.016341    0.037129     0.11021   -0.027183    -0.03173
-0.01484   -0.011592    0.016666    0.038753     0.13652   -0.034329   -0.027183
-0.007045  -0.0080194    0.013093    0.032582      0.1677   -0.037902   -0.020687
-0.0031473  -0.0076946   0.0078962    0.017316     0.20083   -0.038227   -0.013866
-0.0044465  -0.0096434   0.0043233 -0.00022403     0.22357   -0.037902  -0.0063954
-0.0060706   -0.013216    0.003024   -0.017764     0.22292   -0.039526  0.00075039
-0.0041217   -0.012892  -0.0021729   -0.031081     0.18849   -0.043099   0.0049729
0.00010078  -0.0076946   -0.011917   -0.038551     0.11378   -0.046347   0.0085458
0.0026992   0.0017248   -0.022311   -0.035628   0.0085458   -0.047321    0.014717
0.0036737   0.0085458   -0.029457   -0.023285   -0.095068   -0.044723    0.022512
0.0036737     0.01017   -0.027833  -0.0031473    -0.16295   -0.037577    0.029333
0.0069217   0.0072465   -0.016789    0.014717    -0.17205   -0.028807    0.033881
0.012443   0.0046481  -0.0034721    0.025436    -0.12495   -0.017764    0.035505
0.017316   0.0026992   0.0052977    0.028359   -0.043099  -0.0099683     0.03518
0.014392   0.0017248   0.0026992    0.021863    0.041351  -0.0047713    0.029009
0.0014   0.0033489   -0.011592    0.011144     0.10209  -0.0011985    0.014392
-0.01484    0.008221   -0.027833  0.00010078     0.13132  -0.0024977  -0.0057458
-0.026209    0.015692   -0.033679   -0.007045     0.13262   -0.007045   -0.027508
-0.033354    0.019264   -0.027508   -0.013216     0.10761   -0.013541     -0.0405
-0.04115    0.017316   -0.020362   -0.023285    0.064737   -0.019063    -0.04115
-0.04927    0.011794   -0.016464   -0.035303    0.019264    -0.02426   -0.032705
-0.054467   0.0039985    -0.01484   -0.042449   -0.014516   -0.032055   -0.019063
-0.055441  -0.0041217   -0.012242     -0.0405   -0.026533   -0.043423  -0.0047713
-0.04862   -0.008669   -0.011267   -0.033679   -0.020687   -0.056416   0.0026992
-0.038227   -0.011267   -0.011917   -0.028807   -0.008669   -0.070058   0.0023744
-0.028807   -0.011267   -0.013866   -0.028482 -0.00054884   -0.085324  -0.0024977
-0.025234   -0.010293   -0.017439   -0.034004  -0.0047713   -0.094093  -0.0096434
-0.022636  -0.0067202   -0.017764   -0.037577   -0.020037   -0.088896   -0.016789
-0.019388 -0.00022403   -0.015165   -0.035953   -0.041475   -0.075255   -0.019063
-0.01614    0.008221   -0.012892   -0.027508   -0.069733   -0.059339    -0.01614
-0.011592     0.01764   -0.011917   -0.019063    -0.10903   -0.047646  -0.0099683
-0.0057458    0.024461   -0.010943   -0.014191     -0.1636   -0.041475  -0.0057458
-0.00022403    0.025761  -0.0099683   -0.011267    -0.23668   -0.038876  -0.0067202
0.0020496    0.019914   -0.010943  -0.0067202    -0.32503   -0.036927  -0.0076946
-0.00054884   0.0085458  -0.0099683  0.00010078    -0.41435   -0.038551  -0.0093186
-0.0089938  0.00010078  -0.0076946   0.0069217    -0.48873   -0.042774  -0.0099683
-0.021012  -0.0024977  -0.0050961    0.008221    -0.52836   -0.045047  -0.0089938
-0.035628  -0.0031473  -0.0034721   0.0033489    -0.52804   -0.047321  -0.0093186
-0.045372  -0.0015233  -0.0031473  -0.0041217    -0.49198    -0.04927  -0.0099683
-0.047971   0.0010752  -0.0015233  -0.0093186    -0.42767   -0.046671    -0.01484
-0.044073   0.0043233   0.0026992  -0.0076946    -0.34484   -0.038551   -0.022961
-0.035303    0.010495    0.010495   0.0017248    -0.25617   -0.025559   -0.032055
-0.027833    0.016991    0.017965    0.013418    -0.17465   -0.012567   -0.038551
-0.018088    0.021213    0.020564    0.023487    -0.10514  -0.0034721   -0.041475
-0.007045    0.020239    0.017316    0.028359   -0.047971      0.0014   -0.039526
0.0010752     0.01764    0.012443    0.027385 -0.00054884   0.0033489   -0.035953
0.0046481    0.015367   0.0078962    0.024786    0.038753   0.0043233   -0.031081
0.0059473    0.013743   0.0017248     0.02641    0.071558   0.0062721   -0.025559
0.0072465    0.009845  -0.0080194    0.032257    0.096893   0.0072465   -0.018088
0.0095202   0.0052977    -0.01484    0.037129     0.11508   0.0039985   -0.012242
0.0088706   0.0010752   -0.015815    0.036479     0.12548  -0.0011985  -0.0080194
0.0039985  -0.0050961   -0.010618    0.029009      0.1284  -0.0050961  -0.0073698
-0.0021729   -0.011917  -0.0031473    0.020888     0.13197  -0.0080194  -0.0060706
-0.0018481   -0.019063   0.0026992    0.013743     0.14691   -0.011592  -0.0018481
-0.00022403   -0.026858      0.0014   0.0095202      0.1742   -0.015165   0.0039985
0.0010752   -0.035953   -0.010293    0.008221     0.20798   -0.020687    0.010819
-0.0041217   -0.042774   -0.028157    0.011794     0.23624   -0.028482    0.014392
-0.013866   -0.043099   -0.041475    0.019914     0.25345   -0.035953    0.016016
-0.021986   -0.035953   -0.043423    0.029009     0.25507   -0.037902    0.016666
-0.022636   -0.025559    -0.03173    0.032906     0.24468   -0.035628    0.016666
-0.019063   -0.018088   -0.016789    0.033231     0.22422   -0.030756    0.013093
-0.015165   -0.015815  -0.0057458    0.032257     0.19596   -0.023935   0.0069217
-0.012242    -0.01614   0.0010752    0.030633     0.16185    -0.01549   0.0039985
-0.012242   -0.015165   0.0062721    0.030308     0.12093  -0.0060706   0.0052977
-0.010943   -0.014191    0.010495    0.029009    0.066362   0.0020496   0.0065969
-0.0047713   -0.011267    0.017316     0.02641  -0.0063954     0.01017   0.0039985
0.0052977  -0.0060706    0.025761    0.020888   -0.090845    0.020888  -0.0015233
0.015692 -0.00022403    0.031282    0.016341    -0.16523    0.029333  -0.0041217
0.022837   0.0036737    0.027385    0.016341    -0.21005    0.030957 -0.00022403
0.024137   0.0046481    0.013093     0.01764    -0.22532    0.026735   0.0078962
0.024461   0.0023744  -0.0067202    0.015042    -0.21817    0.023487    0.013743
0.026735  -0.0015233   -0.026209    0.008221    -0.20485    0.023162    0.013743
0.030633  -0.0054209   -0.041475  0.00042559    -0.19543    0.023487   0.0075714
0.033231  -0.0099683   -0.051219  -0.0031473    -0.19641    0.022837  -0.0028225
0.030308   -0.013541   -0.054467  0.00010078    -0.20745    0.021863   -0.012242
0.025111   -0.016464   -0.050569   0.0085458    -0.22726    0.021213   -0.018088
0.023812    -0.01614     -0.0405    0.016666    -0.24773    0.017965   -0.019712
0.02641   -0.013866   -0.030106    0.019589    -0.26202    0.011794   -0.019388
0.026735   -0.013541   -0.021337    0.020239    -0.26267   0.0056225   -0.016464
0.020239   -0.014516   -0.017114    0.018615    -0.25065  -0.0015233   -0.013866
0.012119   -0.017114   -0.017114    0.016016    -0.22304  -0.0073698   -0.014191
0.0052977   -0.018738   -0.015165    0.012768    -0.17335   -0.015165   -0.016464
0.003024   -0.019388   -0.010293   0.0056225    -0.10026   -0.021012   -0.019063
0.0056225   -0.019388  -0.0018481   -0.007045   -0.015815   -0.021986   -0.019063
0.011469   -0.020362   0.0033489   -0.022311    0.064737   -0.016789   -0.011592
0.019589   -0.023935   0.0069217   -0.033679     0.13165  -0.0067202   0.0033489
0.028034   -0.026533   0.0043233   -0.037252     0.17777    0.003024    0.022837
0.034206   -0.027183  -0.0037969   -0.032705     0.20246    0.012443    0.036804
0.041351   -0.025884   -0.015815   -0.023285     0.21058     0.01829    0.041027
0.046548   -0.024909   -0.026533   -0.013866     0.20863    0.021538    0.037778
0.045899   -0.022311   -0.034329  -0.0057458     0.20213    0.019589    0.033556
0.042001   -0.016464   -0.035628   0.0020496     0.19271    0.013418    0.032582
0.038103  -0.0067202   -0.028482    0.010495     0.18264   0.0065969    0.033881
0.033231   0.0023744   -0.015165    0.016016     0.17192 -0.00054884    0.033881
0.025761   0.0069217  -0.0041217    0.016666      0.1625  -0.0037969    0.032906
0.016991   0.0072465  0.00075039    0.015042     0.15633  -0.0024977    0.028359
0.010819   0.0043233 -0.00022403    0.013743     0.15146    0.003024    0.017965
0.0095202 -0.00087364  -0.0024977    0.016016     0.14269   0.0095202   0.0043233
0.016991  -0.0031473  -0.0024977     0.01894     0.13262    0.015042  -0.0067202
0.026735  -0.0031473  -0.0015233    0.021863     0.12093     0.01894   -0.008669
0.029983  -0.0028225  -0.0011985    0.024137     0.10761    0.019589  -0.0041217
0.025436  -0.0021729  -0.0028225     0.02641    0.092996    0.017965  0.00010078
0.017316   0.0010752  -0.0083442     0.02641    0.077405    0.016341   0.0033489
0.0091954   0.0069217   -0.014191    0.024137    0.066686    0.015692   0.0023744
0.0046481    0.010819   -0.016789    0.022188    0.062139    0.011794  -0.0021729
0.0062721    0.013093   -0.012242    0.018615    0.065387   0.0065969  -0.0047713
0.015367    0.015367  -0.0050961    0.013743    0.075781   0.0026992  -0.0050961
0.02641     0.01894      0.0014    0.011144    0.086824      0.0014   -0.007045
0.035505    0.022188    0.003024   0.0095202     0.09397  0.00010078    -0.01484
0.039727    0.025761   0.0020496   0.0056225    0.097543 -0.00087364   -0.027833
0.037454    0.028359 -0.00087364  -0.0024977    0.099492 -0.00087364   -0.040175
0.028359    0.028034  -0.0024977    -0.01484     0.10209 -0.00054884   -0.042449
0.01764    0.023162  -0.0044465   -0.027183     0.10306 -0.00087364   -0.036927
0.01017    0.016341  -0.0096434   -0.037902    0.099167  -0.0050961   -0.028807
0.0091954    0.012443   -0.018413   -0.043748    0.089423    -0.01484   -0.021661
0.012119    0.011469   -0.027833   -0.044073    0.073832   -0.029132   -0.016789
0.017965    0.009845   -0.036927   -0.044398     0.05272   -0.042124   -0.016789
0.021863   0.0078962     -0.0405   -0.047971    0.032257   -0.052843    -0.02426
0.019914   0.0062721   -0.036927    -0.04927    0.018615   -0.060638   -0.033354
0.012119   0.0059473   -0.029457   -0.046022    0.015692   -0.066485   -0.037252
0.0039985   0.0065969    -0.02426   -0.037577    0.023487   -0.068758   -0.033679
-0.0031473   0.0085458   -0.023935   -0.029457     0.03518   -0.067459   -0.027833
-0.0063954    0.014068   -0.024909   -0.023935    0.046548   -0.061613    -0.02361
-0.0067202    0.021213   -0.024585   -0.021012    0.047847   -0.054142   -0.022961
-0.0073698    0.029333   -0.018413   -0.017764    0.036154   -0.053492    -0.02361
-0.013541    0.035505  -0.0093186   -0.010293    0.017316   -0.062587   -0.021661
-0.025884    0.037778  -0.0018481      0.0014  -0.0028225   -0.076229   -0.018088
-0.039201    0.032906 -0.00054884    0.011144   -0.021337   -0.092469   -0.014191
-0.044398    0.022837  -0.0021729    0.016341   -0.034654    -0.10611  -0.0096434
-0.039526    0.013093  -0.0050961     0.01764   -0.043748    -0.11488  -0.0037969
-0.029457   0.0069217  -0.0050961    0.020564   -0.051544    -0.11293  0.00042559
-0.021337   0.0026992  -0.0011985    0.027709   -0.064861    -0.10156   0.0023744
-0.017114   0.0010752   0.0033489    0.031607    -0.08305   -0.084999  0.00010078
-0.018738  -0.0011985   0.0056225    0.026085    -0.10059   -0.072656  -0.0047713
-0.028157  -0.0037969   0.0056225   0.0088706    -0.11261   -0.068758   -0.013216
-0.039526  -0.0083442   0.0033489   -0.010943    -0.11326   -0.072006   -0.019712
-0.045372   -0.015165  -0.0037969   -0.022961    -0.10449   -0.075255   -0.023285
-0.044723   -0.021986    -0.01614   -0.023935   -0.095393   -0.071682   -0.020037
-0.044398   -0.026209    -0.03303   -0.019712   -0.091495   -0.060313   -0.013541
-0.047321   -0.025234   -0.045697   -0.018738    -0.10091   -0.041799  -0.0050961
-0.053817   -0.020037   -0.048296   -0.025559    -0.12203   -0.021012   0.0039985
-0.05804   -0.013866   -0.040825   -0.032705    -0.13957  -0.0031473    0.010819
-0.05804  -0.0096434   -0.027183    -0.03173    -0.14314    0.010819     0.01764
-0.053492  -0.0057458   -0.011917    -0.01549    -0.12917    0.022512    0.022188
-0.04862  -0.0031473   0.0026992    0.010495    -0.10189    0.039727    0.022837
-0.046996  0.00075039    0.014068    0.038103   -0.072331    0.059541    0.017316
-0.042774   0.0043233    0.019264    0.054993   -0.053817     0.07773   0.0085458
-0.037577   0.0046481    0.019264    0.053369    -0.04862    0.091696 -0.00022403
-0.028807   0.0033489    0.016016    0.033231   -0.055766     0.10274  -0.0063954
-0.018088   0.0026992    0.013743   0.0010752   -0.075579     0.11021  -0.0073698
-0.010943   0.0039985    0.014717   -0.024585    -0.11001     0.10989  -0.0041217
-0.010943   0.0065969    0.013093   -0.034329    -0.15386     0.10177   0.0010752
-0.016789   0.0065969    0.009845   -0.024909    -0.20096    0.086824   0.0069217
-0.023285   0.0072465   0.0072465  -0.0096434    -0.24091    0.070909    0.012119
-0.026858   0.0088706    0.008221      0.0014    -0.26559    0.053694    0.014717
-0.025884    0.010495    0.012443   0.0049729    -0.26592     0.03583    0.012119
-0.018088     0.01017    0.016016   0.0062721    -0.24058    0.020888   0.0049729
-0.0096434   0.0088706    0.014717   0.0065969    -0.19478    0.010495  -0.0024977
-0.007045   0.0078962   0.0072465   0.0049729    -0.14054   0.0091954  -0.0050961
-0.011592   0.0075714  -0.0057458  -0.0031473   -0.084999    0.015042  -0.0021729
-0.021337   0.0085458   -0.020037   -0.017439   -0.032705    0.021538    0.003024
-0.034654    0.008221   -0.030431   -0.036602    0.011469     0.01894   0.0075714
-0.044398   0.0043233   -0.036602   -0.058365    0.040377   0.0072465   0.0072465
-0.046022  -0.0044465   -0.035953   -0.072981    0.048822   -0.013866   0.0017248
-0.044073   -0.010293   -0.032705   -0.075579    0.033231   -0.038227  -0.0028225
-0.045047   -0.013541   -0.028157   -0.068109  -0.0057458   -0.058689  -0.0054209
-0.045697   -0.015165   -0.023285   -0.052193   -0.059664   -0.067784  -0.0047713
-0.045372   -0.016789   -0.019388   -0.031081    -0.11488   -0.064861  -0.0024977
-0.0405   -0.017439   -0.017114  -0.0057458    -0.15321   -0.055766   0.0020496
-0.034654   -0.016464   -0.013216     0.01764    -0.16523    -0.04927   0.0033489
-0.025884    -0.01614  -0.0028225    0.033881    -0.14931   -0.051219   0.0023744
-0.01549   -0.013866    0.010495     0.04395    -0.12008   -0.060638 -0.00054884
-0.007045   -0.011917    0.021863    0.051745    -0.09117   -0.070707  -0.0037969
-0.0024977   -0.011917    0.025761    0.055318   -0.065186   -0.076229  -0.0073698
-0.0024977   -0.012892    0.022512     0.05142   -0.045372   -0.075904   -0.010293
-0.0028225   -0.012242    0.013743    0.039727   -0.029782   -0.073631    -0.01484
-0.0028225  -0.0099683   0.0023744    0.022837    -0.01549    -0.07493   -0.015815
-0.0047713  -0.0089938  -0.0083442   0.0033489    0.003024   -0.075579   -0.010618
-0.0080194  -0.0099683    -0.01549   -0.010293    0.028684   -0.072981  -0.0047713
-0.011267   -0.011592   -0.019388   -0.013216    0.058241   -0.070707  -0.0034721
-0.014191   -0.011592   -0.016464  -0.0060706    0.093645   -0.070382  -0.0083442
-0.019712  -0.0076946  -0.0057458    0.008221     0.12678   -0.070058    -0.01549
-0.022636  -0.0021729   0.0072465    0.023162     0.14886   -0.065186   -0.022311
-0.018738   0.0046481    0.015042    0.030957     0.14756   -0.056741   -0.027183
-0.0057458    0.013418    0.017965    0.031282      0.1258   -0.048945   -0.022636
0.011144    0.021538    0.016016     0.02706    0.093321   -0.041799  -0.0099683
0.023812    0.028359   0.0072465    0.023487    0.062139   -0.038227   0.0052977
0.028684    0.032257  -0.0034721    0.022512    0.037129   -0.040175    0.013743
0.027385    0.034206  -0.0093186    0.020564    0.016341   -0.045047    0.011469
0.019264    0.031932  -0.0067202     0.01829  -0.0063954   -0.049595   0.0010752
0.0036737    0.025111   0.0020496     0.01764   -0.036278   -0.050894  -0.0099683
-0.016464    0.014068    0.013093     0.01894    -0.06681   -0.044723   -0.017764
-0.033354   0.0039985    0.022512    0.019589   -0.088572   -0.033679   -0.020037
-0.039526  -0.0011985    0.027385    0.016991   -0.096692   -0.022311   -0.017764
-0.037252  -0.0011985     0.02641    0.011144   -0.089546   -0.014516   -0.013541
-0.028482  0.00075039    0.020239   0.0069217   -0.068109   -0.010293  -0.0083442
-0.018413   0.0017248    0.012768   0.0072465   -0.041475  -0.0031473  -0.0044465
-0.0076946   0.0026992   0.0075714    0.010819   -0.019712   0.0056225  -0.0015233
0.0023744   0.0033489   0.0059473    0.015692  -0.0089938    0.011794  -0.0011985
0.012443   0.0069217    0.003024    0.022837  -0.0057458    0.014068  -0.0011985
0.019264    0.012119  -0.0024977    0.030957  -0.0067202    0.012443   0.0020496
0.020239     0.01764   -0.007045    0.037129  -0.0073698    0.008221   0.0085458
0.017965    0.021213  -0.0099683    0.041351  -0.0047713   0.0059473    0.014717
0.017316    0.022188  -0.0089938    0.041676   0.0026992   0.0062721     0.01829
0.022837    0.020888  -0.0044465    0.038753    0.011144   0.0088706    0.021538
0.030633     0.01829      0.0014    0.034206    0.016991    0.012119     0.02641
0.039402    0.016341   0.0049729    0.026085    0.020564    0.013743    0.030957
0.046548    0.014392   0.0020496     0.01829    0.024786    0.013418     0.03453
0.049147    0.012119  -0.0054209    0.014392     0.02706    0.015042    0.035505
0.048497   0.0075714   -0.012242    0.019264    0.024786    0.018615    0.033881
0.047198 -0.00087364   -0.015815    0.029009    0.019589    0.021863    0.030308
0.0433  -0.0093186   -0.014516    0.037778    0.013743    0.021863    0.024461
0.03583    -0.01614   -0.010293    0.042651   0.0078962     0.01764    0.020239
0.023812   -0.019063  -0.0083442    0.042001  0.00042559    0.012768    0.019914
0.012119   -0.019388  -0.0099683    0.032906  -0.0044465   0.0091954    0.024137
0.0046481   -0.022311   -0.014191     0.01829  -0.0067202   0.0046481    0.029983
0.0014   -0.025559   -0.017764   0.0020496  -0.0011985  -0.0018481    0.038428
0.0023744   -0.025559   -0.015165   -0.008669     0.01017  -0.0083442    0.047847
0.0062721   -0.022961  -0.0080194   -0.011917    0.026735   -0.014516    0.051745
0.0088706   -0.017439 -0.00054884  -0.0073698      0.0433   -0.020037    0.047847
0.0078962   -0.012892    0.003024  -0.0028225    0.055318   -0.022961    0.042001
0.0046481  -0.0083442   0.0052977 -0.00087364    0.070909    -0.02426    0.038103
-0.00054884  -0.0063954   0.0043233  -0.0024977    0.091047    -0.02361    0.036154
-0.0018481  -0.0041217  0.00075039  -0.0050961     0.10664   -0.021337     0.03453
-0.0024977  0.00042559  -0.0047713   -0.007045     0.11216   -0.019063    0.032906
-0.0041217   0.0072465   -0.012567  -0.0060706     0.10274    -0.01614    0.036154
-0.0076946    0.013418   -0.020037  -0.0054209    0.081303   -0.011917    0.042326
-0.012892    0.016341   -0.024585  -0.0047713    0.062789  -0.0080194    0.048822
-0.01614    0.015042   -0.026858  -0.0050961    0.057917  -0.0047713     0.05207
-0.011917   0.0095202   -0.028157  -0.0041217    0.071558  -0.0067202    0.049796
0.00042559      0.0014   -0.031406  -0.0021729     0.10047   -0.011917    0.042651
0.011794  -0.0047713   -0.034654  -0.0021729      0.1323    -0.01549    0.033231
0.01764  -0.0054209    -0.03303  -0.0021729     0.15731   -0.015815    0.021538
0.013743  -0.0028225   -0.022961  -0.0034721      0.1638   -0.011917    0.012768
0.0049729   0.0010752  -0.0067202  -0.0060706     0.14334  -0.0057458   0.0052977
-0.0037969   0.0026992   0.0078962  -0.0080194    0.087149 -0.00022403 -0.00022403
-0.0073698   0.0036737    0.014717  -0.0099683  0.00075039   0.0010752 -0.00087364
-0.0073698   0.0043233    0.012119  -0.0099683    -0.10124   0.0036737   0.0010752
-0.0083442   0.0020496   0.0033489   -0.010293    -0.20063   0.0085458   0.0036737
-0.0083442  -0.0021729  -0.0073698   -0.011917    -0.28183    0.013743   0.0020496
-0.0093186  -0.0073698   -0.013216   -0.013866    -0.33607    0.011794 -0.00087364
-0.0096434  -0.0099683   -0.010293   -0.019063    -0.35719   0.0026992  -0.0011985
-0.0063954   -0.008669  -0.0024977   -0.026533    -0.35037   -0.011267  -0.0011985
0.0020496  -0.0041217   0.0049729   -0.030431    -0.32471   -0.025884  -0.0041217
0.011794 -0.00087364   0.0091954   -0.030756    -0.29093   -0.034978  -0.0089938
0.01894 -0.00054884   0.0091954   -0.026858    -0.25682   -0.034978   -0.013216
0.020239  -0.0028225   0.0046481   -0.025559    -0.23149   -0.030431   -0.018413
0.016991  -0.0044465  -0.0011985   -0.024585    -0.21427    -0.02361   -0.022311
0.012119  -0.0057458   -0.007045   -0.023935    -0.20128   -0.015165   -0.027508
0.011794  -0.0060706   -0.012567   -0.020037    -0.18374   -0.010293   -0.030106
0.01894  -0.0037969   -0.012892   -0.011267    -0.15451  -0.0093186   -0.030431
0.028684  -0.0015233  -0.0096434  0.00042559    -0.11943   -0.013216   -0.031406
0.037454  -0.0011985   -0.008669    0.012443     -0.0837   -0.019712    -0.03238
0.038753  -0.0024977   -0.013541    0.022837   -0.053168   -0.024585   -0.036278
0.031932  -0.0080194   -0.021661    0.026085   -0.032705   -0.026209   -0.043099
0.017965   -0.017439   -0.028482    0.020564   -0.027508   -0.024585   -0.050569
0.0033489   -0.028807   -0.031081   0.0091954   -0.038876   -0.024909   -0.054467
-0.0089938   -0.035628   -0.028482  -0.0031473   -0.065835   -0.025234   -0.055766
-0.020037   -0.038876   -0.026209   -0.016464   -0.098316    -0.02426   -0.056091
-0.028482   -0.038227   -0.029782   -0.028807    -0.11878    -0.02361   -0.058689
-0.033354   -0.036602   -0.039201   -0.038551    -0.11228    -0.02426   -0.064536
-0.035628   -0.028482   -0.046347    -0.04115   -0.073306   -0.022636   -0.069733
-0.037902   -0.012242   -0.046347   -0.033679   -0.010943   -0.012242   -0.071032
-0.04115   0.0046481   -0.038876   -0.015165    0.059216   0.0020496    -0.06616
-0.043748    0.019589   -0.027183   0.0091954     0.11963     0.01764   -0.056416
-0.042449    0.029009   -0.020362    0.029983     0.16348    0.028359    -0.04862
-0.037252    0.031607   -0.019063    0.038428     0.19466    0.032257   -0.045047
-0.027183    0.025761   -0.019712    0.036479     0.21642    0.028359   -0.045697
-0.010943    0.015692   -0.016789    0.031282     0.22941     0.01764   -0.046996
0.0062721   0.0033489   -0.011592    0.026085     0.23461   0.0039985   -0.048296
0.01764  -0.0083442  -0.0050961    0.023162     0.23169  -0.0028225   -0.044073
0.016666   -0.013866  -0.0021729     0.01894     0.22194  -0.0018481   -0.034654
0.0017248   -0.014191  -0.0015233    0.012119     0.20505   0.0059473   -0.019712
-0.018088   -0.010293  0.00042559   0.0062721     0.18459    0.016991  -0.0057458
-0.032055  -0.0041217   0.0043233   0.0017248     0.16673    0.026085 -0.00087364
-0.039851   0.0017248   0.0078962  -0.0044465     0.15536    0.029658  -0.0050961
-0.041475   0.0010752   0.0075714   -0.011267     0.14886    0.028034   -0.010943
-0.040175   -0.007045   0.0049729   -0.017439     0.14594    0.022512   -0.019388
-0.035628   -0.019712   0.0026992   -0.019063     0.14237    0.015367   -0.028157
-0.030431   -0.034004 -0.00022403   -0.019063     0.13132   0.0039985   -0.034004
-0.024585   -0.043423 -0.00054884   -0.017439     0.11183  -0.0063954   -0.033679
-0.017114   -0.045047 -0.00087364   -0.016464    0.086824   -0.012892   -0.028482
-0.013216   -0.037577 -0.00087364    -0.01549    0.057917    -0.01614   -0.021661
-0.012567   -0.026533 -0.00054884   -0.015165    0.027709   -0.016789   -0.015165
-0.01614   -0.016789  -0.0028225   -0.017439  -0.0060706   -0.016464   -0.010618
-0.021986  -0.0096434   -0.010943   -0.022961   -0.044073   -0.014191   -0.007045
-0.029782  -0.0044465   -0.025234   -0.029782   -0.084999   -0.011917  -0.0083442
-0.037252  -0.0018481    -0.04115   -0.037252    -0.11001   -0.011917   -0.014516
-0.04115  0.00010078   -0.052518   -0.043099    -0.10221   -0.020362   -0.023935
-0.042449   0.0026992   -0.052518   -0.045697   -0.053817   -0.034654    -0.03173
-0.039851   0.0078962     -0.0405   -0.045372    0.023162    -0.04992   -0.039851
-0.035628    0.011144   -0.025884   -0.041475     0.10794   -0.059014   -0.042774
-0.032705    0.013743   -0.018413    -0.03238      0.1742   -0.061937   -0.038876
-0.031406    0.014068   -0.020037   -0.023935     0.21025   -0.060313   -0.035303
-0.030106    0.015042   -0.026533   -0.018413      0.2148   -0.058365    -0.03303
-0.026533    0.014717   -0.036278   -0.020362     0.19271   -0.057715   -0.031406
-0.020687    0.014717   -0.046022   -0.027833     0.14529   -0.057065   -0.029782
-0.011592    0.012119   -0.052193   -0.036602    0.082927   -0.056741   -0.025234
-0.00087364   0.0088706   -0.052843   -0.039201    0.021538   -0.052518   -0.020362
0.0075714   0.0059473   -0.046671   -0.034329   -0.027508   -0.045697   -0.017114
0.014392   0.0043233   -0.036278   -0.024585   -0.061288   -0.038551   -0.012242
0.021538   0.0043233   -0.027183  -0.0099683   -0.079802   -0.033679  -0.0057458
0.028684   0.0075714   -0.020687   0.0075714   -0.087597   -0.027833 -0.00022403
0.037778    0.014068   -0.020037    0.026085   -0.088896   -0.017439   0.0020496
0.042975    0.021863   -0.017439    0.039078   -0.089546  -0.0047713   0.0039985
0.041351    0.028034  -0.0083442    0.040702   -0.096692   0.0088706   0.0062721
0.03453    0.030308   0.0049729     0.03518    -0.11066    0.022512    0.011144
0.029009    0.028684    0.016016    0.029009    -0.12495    0.031607    0.018615
0.02641    0.023487    0.020564    0.022512    -0.13242    0.032906    0.028034
0.025436    0.017316     0.01764    0.015367     -0.1295    0.023162    0.037778
0.026085    0.010495   0.0095202   0.0095202    -0.11618   0.0036737    0.042651
0.028034   0.0059473 -0.00022403   0.0059473   -0.096367   -0.020362    0.042975
0.031282   0.0026992  -0.0093186   0.0020496   -0.077853   -0.043748    0.037129
0.033556  0.00075039   -0.016789 -0.00087364    -0.06681   -0.060963    0.030957
0.03453   0.0026992   -0.018738  -0.0028225   -0.072981   -0.071032    0.028359
0.031932   0.0075714   -0.015165 -0.00022403    -0.10806    -0.07493     0.03583
0.024137    0.014068   -0.008669   0.0052977    -0.16945   -0.072331    0.049796
0.012768    0.018615  -0.0015233    0.011144    -0.23961   -0.064211    0.061489
0.00010078    0.023487   0.0062721    0.015042    -0.29937   -0.052518    0.063113
-0.010943    0.026085    0.014068    0.016016    -0.33802   -0.039201    0.057592
-0.016789    0.027709    0.017316    0.017316    -0.35329   -0.027508    0.048172
-0.019063    0.027709    0.015692     0.01764    -0.35037   -0.020687    0.034855
-0.019388    0.025761    0.013418    0.017316    -0.33413   -0.017439    0.022188
-0.019388    0.021863    0.014392    0.017965    -0.31042    -0.01549    0.015692
-0.016464    0.016666     0.01764    0.021863    -0.28768   -0.013216    0.019589
-0.011267    0.014392    0.020564     0.02706    -0.26657  -0.0067202    0.031607
-0.0063954    0.012119    0.021538    0.032582    -0.25065  0.00042559    0.042001
-0.0057458    0.011469    0.018615    0.034855    -0.23506   0.0039985    0.041676
-0.007045    0.009845    0.013418    0.031932    -0.21395   0.0026992    0.031607
-0.0099683   0.0091954    0.011144    0.026085    -0.18244  0.00010078    0.016991
-0.010293   0.0095202    0.013743    0.024137    -0.14346  -0.0031473   0.0043233
-0.0024977    0.010819    0.017965    0.026735    -0.10319  -0.0050961  -0.0050961
0.0072465     0.01017    0.021538    0.031282   -0.066485  -0.0047713   -0.010293
0.011469   0.0056225    0.021863    0.030633   -0.037902  0.00042559   -0.010618
0.0075714  -0.0024977    0.016991    0.025436    -0.01484   0.0046481   -0.012242
0.0010752  -0.0099683   0.0095202    0.021538   0.0085458   0.0069217   -0.015815
-0.0057458   -0.013866   0.0059473    0.022512    0.038103   0.0046481   -0.018088
-0.0099683    -0.01614   0.0072465    0.027385    0.073832  -0.0037969   -0.016789
-0.010618   -0.015815   0.0095202    0.031607     0.11541   -0.017114   -0.012892
-0.010618   -0.012242    0.010819    0.030633     0.15568    -0.03303  -0.0067202
-0.010618  -0.0034721   0.0095202    0.023812     0.18264   -0.045372      0.0014
-0.010943   0.0078962   0.0059473    0.016016     0.19336   -0.047971   0.0088706
-0.0083442    0.020239   0.0017248    0.012119     0.18784   -0.037577    0.012768
-0.0057458    0.030633  0.00042559    0.013743     0.17355   -0.015815    0.010819
-0.0034721    0.037129    0.003024    0.019264     0.15633   0.0088706   0.0033489
-0.0034721    0.036479   0.0085458     0.02706     0.14074    0.025436  -0.0054209
-0.0063954    0.030633    0.013093    0.034206     0.12872    0.033881   -0.012242
-0.010293    0.021538    0.016666    0.036804     0.12028    0.036154   -0.014191
-0.01549    0.010819    0.016991    0.033231     0.11671    0.037454   -0.011592
-0.016789   0.0043233    0.013093    0.028359     0.11801    0.037778  -0.0050961
-0.01614   0.0026992   0.0078962    0.025111     0.11866    0.033881    0.003024
-0.012567   0.0023744   0.0052977    0.023162     0.11606    0.024461   0.0078962
-0.0031473    0.003024   0.0049729    0.022188     0.10534   0.0085458   0.0091954
0.009845   0.0069217   0.0036737     0.01829    0.081627  -0.0076946   0.0091954
0.01894    0.013093  0.00010078    0.016666    0.040052   -0.022311   0.0069217
0.020888     0.01829  -0.0047713    0.019264   -0.019388   -0.034004   0.0039985
0.014392     0.01829  -0.0073698    0.025436   -0.077203   -0.044073  0.00075039
0.0033489    0.011144   -0.007045    0.029333    -0.11131   -0.053492  -0.0028225
-0.0096434  -0.0018481  -0.0044465    0.030633    -0.11001   -0.062262  -0.0073698
-0.019712   -0.019388  -0.0011985    0.028034   -0.077853   -0.069733   -0.011267
-0.021986   -0.037902 -0.00022403    0.023162   -0.029132   -0.072006   -0.012892
-0.022311    -0.04927  -0.0034721    0.016991    0.025436    -0.06616   -0.013541
-0.027183   -0.051544  -0.0093186    0.010495    0.078055   -0.053492   -0.015165
-0.037577   -0.042774   -0.013216   0.0072465     0.12158   -0.038227   -0.015165
-0.049595   -0.031081   -0.012892   0.0085458     0.15276   -0.024909   -0.013541
-0.053817   -0.019063  -0.0093186    0.013743     0.16803   -0.016464  -0.0067202
-0.046996   -0.010618  -0.0063954    0.017965     0.16608   -0.011592 -0.00054884
-0.034329  -0.0060706  -0.0050961    0.016991     0.15536  -0.0099683 -0.00022403
-0.021337  -0.0044465  -0.0018481    0.011144     0.13977  -0.0096434  -0.0047713
-0.0099683  -0.0047713  0.00010078   0.0043233     0.11963   -0.008669  -0.0089938
0.0017248  -0.0083442  0.00042559  0.00010078    0.096569  -0.0083442   -0.013541
0.013093   -0.014191  -0.0011985 -0.00087364    0.070259  -0.0089938   -0.020362
0.020888   -0.018088  -0.0024977 -0.00022403    0.042651   -0.011267   -0.029132
0.021213   -0.022961  -0.0063954  -0.0015233    0.012768    -0.01484   -0.038551
0.017316   -0.029782   -0.013866  -0.0093186   -0.017114   -0.018413   -0.044073
0.012443   -0.039526   -0.023935   -0.017439   -0.045047    -0.02361   -0.043748
0.0091954   -0.050569   -0.034004   -0.018738   -0.069408   -0.030756   -0.035953
0.0075714   -0.059339   -0.038876   -0.013541   -0.090196    -0.04115   -0.026533
0.0043233   -0.064211   -0.038227  -0.0076946    -0.11261   -0.054142   -0.019063
-0.0018481   -0.065186   -0.035303  -0.0063954    -0.13242   -0.068434   -0.013866
-0.013866   -0.061288   -0.034004   -0.011592    -0.14509   -0.078178   -0.008669
-0.02426   -0.052193   -0.034004   -0.019388    -0.14834   -0.076229  -0.0063954
-0.026858   -0.039201    -0.03238   -0.024909    -0.13957   -0.065835  -0.0067202
-0.020362   -0.024585   -0.025884   -0.026858    -0.11813   -0.048945   -0.010293
-0.010618   -0.014191   -0.017764   -0.029132   -0.080451   -0.028482   -0.011592
-0.0047713   -0.012567   -0.012892   -0.030431   -0.035303  -0.0080194  -0.0083442
-0.0037969   -0.016789   -0.012567   -0.030106  -0.0018481   0.0059473  -0.0015233
-0.0024977   -0.021986   -0.011917   -0.026209   0.0095202    0.008221   0.0033489
0.0017248   -0.022311   -0.010293   -0.019712  -0.0031473   0.0033489   0.0069217
0.0049729   -0.018738  -0.0041217   -0.017764   -0.029782  -0.0034721    0.011469
0.0023744    -0.01549   0.0039985   -0.017114   -0.056416  -0.0083442    0.013418
-0.0044465   -0.015815    0.010819    -0.01614   -0.073631  -0.0080194    0.015692
-0.010293   -0.022311    0.015692    -0.01484   -0.079152  -0.0047713    0.019264
-0.011267   -0.028482    0.019914   -0.014191   -0.077203  0.00042559    0.024786
-0.013866   -0.028157    0.023812   -0.014516    -0.07493   0.0078962    0.029658
-0.021012   -0.021012    0.029009    -0.01549   -0.075579    0.013093    0.034855
-0.03173   -0.012567    0.033881   -0.014516   -0.080127    0.016341    0.037454
-0.041799   -0.007045     0.03453   -0.015165   -0.085973    0.011794    0.033556
-0.045047  -0.0041217    0.030308   -0.015165   -0.090521   0.0020496    0.023162
-0.039201  -0.0028225    0.017965    -0.01549   -0.086623  -0.0096434    0.013093
-0.025559  -0.0028225   0.0049729   -0.016789   -0.072656   -0.019712   0.0085458
-0.010293  -0.0034721  -0.0057458   -0.018738   -0.047646    -0.02426   0.0085458
0.0046481  -0.0031473   -0.011267   -0.021337   -0.020037   -0.021661   0.0078962
0.015692  -0.0018481   -0.013541   -0.021661  -0.0018481    -0.01614   0.0059473
0.020564   0.0020496   -0.013866   -0.021986   0.0052977   -0.010943   0.0017248
0.020888   0.0065969    -0.01614    -0.02426   0.0078962  -0.0063954  -0.0021729
0.01829    0.012768   -0.019712   -0.029457    0.018615  -0.0028225  -0.0044465
0.013743    0.016016   -0.024585    -0.03238    0.042975   0.0017248  -0.0034721
0.0085458    0.016991   -0.029457   -0.033354    0.080978   0.0065969  -0.0028225
0.0020496    0.016991   -0.030106    -0.03238     0.12418    0.009845  -0.0054209
-0.0024977    0.016991   -0.025234   -0.028482     0.16315    0.009845  -0.0096434
-0.00054884    0.015042   -0.014191   -0.022311     0.19304    0.010495   -0.014191
0.0088706   0.0095202  -0.0037969   -0.016789     0.20603    0.014068   -0.012242
0.019264   0.0046481   0.0026992    -0.01549     0.19044    0.018615  -0.0044465
0.021863   0.0020496   0.0020496   -0.019388     0.14237    0.019589   0.0010752
0.017316   0.0020496  -0.0067202   -0.021012    0.064737    0.013418  0.00075039
0.0049729   0.0026992   -0.016789   -0.021012   -0.025559  -0.0011985  -0.0054209
-0.0096434   0.0043233   -0.022636   -0.022961    -0.10546   -0.021337  -0.0089938
-0.022636   0.0069217   -0.022961   -0.025559    -0.15873   -0.045047   -0.008669
-0.03238   0.0072465   -0.019063   -0.028157    -0.17984   -0.067459  -0.0080194
-0.036278   0.0062721   -0.015815   -0.025559    -0.17789   -0.084674  -0.0093186
-0.034329   0.0046481  -0.0096434   -0.015165     -0.1623   -0.093119   -0.012242
-0.029132   0.0043233  -0.0041217   0.0023744    -0.13989   -0.094418   -0.014191
-0.021661   0.0088706 -0.00022403    0.020888    -0.11683   -0.087597   -0.013541
-0.014516    0.016341      0.0014    0.033881    -0.09182   -0.079477  -0.0076946
-0.0093186    0.021213 -0.00054884    0.040052   -0.069733    -0.07493  0.00042559
-0.0031473    0.022837  -0.0076946    0.042651   -0.050569   -0.071032   0.0062721
0.0017248    0.023487    -0.01484    0.046548   -0.036602   -0.062262   0.0088706
0.0046481    0.021863   -0.018088    0.047523    -0.03303   -0.048296    0.009845
0.0052977    0.021213    -0.01549    0.042975   -0.042124   -0.029132    0.012768
0.0017248    0.020564  -0.0089938    0.032906   -0.056741  -0.0089938    0.017316
-0.0037969    0.020564  -0.0034721    0.020888    -0.06681    0.012443    0.021213
-0.0093186    0.021863  -0.0024977    0.010819   -0.067134    0.028359    0.023487
-0.0099683    0.026085  -0.0067202   0.0043233   -0.055766    0.039402    0.026085
-0.0031473    0.030308   -0.012567   0.0049729   -0.033354    0.050771    0.027385
0.0049729    0.036154   -0.017439    0.008221  -0.0037969    0.058891     0.02641
0.0072465    0.042975   -0.018413    0.012119    0.026085    0.062464    0.023162
0.003024    0.047523   -0.018088    0.013418    0.053369    0.061814    0.018615
-0.0034721    0.048497   -0.015165    0.015367     0.07708    0.058891    0.014392
-0.011917    0.045249   -0.011267    0.017965    0.092996    0.058566    0.011469
-0.017764    0.038428  -0.0067202    0.021213     0.10014    0.063763   0.0088706
-0.017439    0.031607  -0.0050961    0.023162     0.10306    0.072208   0.0091954
-0.010618    0.028684   -0.007045    0.022837     0.10761    0.080328    0.010819
0.0010752    0.028684   -0.012567    0.015042     0.11963    0.083251    0.013093
0.011794    0.029983   -0.018738  0.00010078     0.13197    0.076106    0.013093
0.017316    0.031932   -0.023285    -0.01549     0.13814    0.057592    0.010495
0.01764    0.031607   -0.022961   -0.022636     0.13457    0.036154   0.0033489
0.016016    0.026085   -0.020037   -0.020362     0.12353    0.025111  -0.0067202
0.016016    0.019589   -0.018413   -0.011917     0.10534    0.029983    -0.01614
0.015367    0.015692   -0.016464 -0.00022403    0.076106    0.049472   -0.020362
0.013093    0.014392    -0.01484    0.009845     0.03583    0.075131   -0.019712
0.0085458    0.011794   -0.013216    0.010819    -0.01484    0.095919   -0.011267
0.0078962    0.008221   -0.012567   0.0049729   -0.079477     0.10047   0.0020496
0.011144   0.0052977   -0.011592 -0.00022403    -0.16133    0.080003    0.014717
0.010819  0.00075039   -0.012242  -0.0041217     -0.2513    0.042326    0.023162
0.0056225  -0.0041217   -0.014191   -0.007045     -0.3377      0.0014     0.02641
-0.0034721  -0.0076946   -0.021661   -0.010293    -0.40591   -0.028482    0.025436
-0.010618  -0.0093186   -0.034004   -0.011917    -0.44326   -0.043423    0.022512
-0.014191  -0.0093186   -0.046671   -0.012567    -0.44554   -0.045047    0.015692
-0.01614   -0.008669   -0.056416  -0.0096434    -0.41533   -0.042774   0.0036737
-0.015815  -0.0089938   -0.056091  -0.0050961    -0.35881   -0.044398  -0.0096434
-0.013541   -0.010618   -0.046022   0.0026992    -0.28768   -0.051544   -0.019063
-0.010943   -0.012242   -0.029132    0.012443     -0.2094   -0.060638   -0.022311
-0.011267   -0.011267   -0.016464    0.023487     -0.1334   -0.067784   -0.023935
-0.012892  -0.0093186   -0.010618    0.033231    -0.06616    -0.07493    -0.02426
-0.011592  -0.0063954   -0.010293    0.037778  -0.0093186   -0.084999   -0.023285
-0.0076946  -0.0031473   -0.008669    0.040052    0.033556   -0.093444   -0.021986
-0.0028225 -0.00054884  -0.0028225    0.040052    0.059865    -0.09994   -0.019063
0.0020496   0.0023744   0.0020496    0.037454    0.072208    -0.10319   -0.017764
0.0023744   0.0069217   0.0023744    0.031932    0.078055    -0.10286   -0.018738
0.0023744    0.010495  -0.0028225    0.028034    0.084551   -0.093769   -0.018738
0.0043233    0.011144   -0.010293     0.02706    0.093645   -0.079477   -0.014516
0.009845   0.0088706    -0.01549    0.027385     0.10371   -0.063561   -0.008669
0.017965   0.0049729   -0.013866    0.027385     0.10891   -0.046022  -0.0037969
0.026085   0.0017248  -0.0073698    0.027385     0.10534   -0.033679  -0.0011985
0.029333  -0.0018481   0.0020496     0.02706    0.093321   -0.029782  -0.0021729
0.026085   -0.007045     0.01017    0.027385     0.07773   -0.033679  -0.0067202
0.016666   -0.011267    0.011469    0.027385    0.064088   -0.040825   -0.010943
0.0072465   -0.014191   0.0026992    0.024137     0.06084   -0.047646   -0.012567
0.0017248   -0.013541  -0.0096434    0.018615    0.065387   -0.051544   -0.010943
0.00075039  -0.0096434   -0.017764    0.014392    0.070584   -0.053817  -0.0076946
0.00010078  -0.0031473   -0.019712    0.014068    0.072858   -0.054142  -0.0024977
-0.0021729   0.0062721    -0.01549    0.015042    0.070259   -0.053168   0.0017248
-0.0096434    0.014717   -0.007045    0.015042    0.064737   -0.050244  0.00010078
-0.023935     0.01894  0.00042559    0.012443    0.060515   -0.046996   -0.008669
-0.038227     0.01894    0.003024   0.0078962    0.063113   -0.044723   -0.024909
-0.046996    0.015367 -0.00087364   0.0020496    0.069934   -0.047321     -0.0405
-0.046671    0.013743  -0.0073698  -0.0031473    0.078055   -0.053817    -0.04927
-0.035628    0.015367   -0.014516  -0.0054209    0.079029   -0.056741   -0.050244
-0.019388     0.01894   -0.018088  -0.0080194    0.072208   -0.047971   -0.045372
-0.0076946    0.020564   -0.018738   -0.011592    0.058891   -0.030756   -0.037902
-0.0047713    0.016666    -0.01484   -0.020037    0.045574    -0.01484   -0.030431
-0.010293   0.0078962   -0.010943   -0.033679    0.036154  -0.0073698   -0.023935
-0.018413  -0.0015233  -0.0093186   -0.047646    0.029658   -0.010943   -0.021337
-0.024585  -0.0099683   -0.013541   -0.055766    0.029983   -0.021661   -0.025884
-0.02426   -0.017114   -0.023935   -0.053168    0.040377   -0.029132   -0.033354
-0.021986   -0.023285   -0.037252   -0.042449    0.056292   -0.031406   -0.036927
-0.017764   -0.027508   -0.043748   -0.026533    0.067011   -0.027183   -0.030756
-0.011592   -0.028482     -0.0405   -0.012242    0.062139   -0.017439   -0.017439
-0.0089938   -0.025234   -0.032705  -0.0037969    0.039402  -0.0076946  -0.0060706
-0.0060706   -0.018413   -0.025884  -0.0015233    0.011469  -0.0031473  -0.0044465
0.00010078  -0.0093186   -0.017439   0.0023744  -0.0073698  -0.0060706   -0.013541
0.0049729  -0.0024977  -0.0093186    0.012119   -0.010618  -0.0099683   -0.026533
0.010495  0.00075039  -0.0057458    0.024137  -0.0037969  -0.0076946   -0.037252
0.01764   0.0017248   -0.007045    0.030308   0.0033489  -0.0011985   -0.040825
0.023162    0.003024  -0.0093186    0.030957   0.0052977   0.0088706   -0.039201
0.029658   0.0056225    -0.01484    0.028034  -0.0011985    0.014717   -0.035628
0.035505   0.0069217   -0.021661    0.022837   -0.010293    0.015367   -0.034654
0.039727    0.003024   -0.024909    0.017965   -0.015815    0.011794   -0.035303
0.034206  -0.0044465   -0.020687    0.014392   -0.017764   0.0052977   -0.036278
0.021863   -0.011267   -0.008669    0.013093   -0.014516  -0.0034721   -0.034329
0.0078962    -0.01484   0.0078962    0.015367  -0.0050961   -0.012892   -0.031406
-0.0037969   -0.013866    0.022837    0.019589    0.012443   -0.018088   -0.027833
-0.0076946  -0.0076946    0.029009    0.023162     0.03518   -0.016789    -0.02426
-0.0060706 -0.00054884    0.024137    0.025436     0.06019   -0.010293   -0.022961
-0.0034721   0.0049729    0.012768    0.028359    0.084551    0.003024    -0.02426
-0.00054884   0.0059473      0.0014    0.029983    0.099817    0.016016   -0.024909
0.0014   0.0026992 -0.00087364    0.029983    0.095919    0.023487   -0.020687
0.0023744      0.0014   0.0078962    0.025111    0.072208    0.024137   -0.013216
0.0052977   0.0036737     0.01764    0.021538    0.037129    0.021213  -0.0031473
0.0075714   0.0072465    0.020888    0.021213  -0.0015233    0.016341    0.003024
0.0075714   0.0072465    0.020888    0.022837   -0.037902   0.0069217   0.0033489
0.0033489   0.0026992    0.020564    0.024461   -0.067459  -0.0073698  -0.0018481
0.0026992  -0.0018481    0.020239    0.022512   -0.092145   -0.020687  -0.0054209
0.0072465  -0.0060706    0.019914    0.011144    -0.11521   -0.026209  -0.0073698
0.014392  -0.0083442    0.016991  -0.0050961    -0.13827   -0.020687  -0.0099683
0.016666  -0.0080194    0.011469   -0.021986    -0.16133  -0.0096434  -0.0099683
0.013093  -0.0073698   0.0049729   -0.035953    -0.17887 -0.00087364  -0.0054209
0.0065969  -0.0047713   0.0020496   -0.045697    -0.19089   0.0062721    0.009845
0.00042559 -0.00022403   0.0023744   -0.050244    -0.20096    0.013093    0.029009
-0.0044465   0.0036737   0.0059473   -0.052518    -0.20745    0.017316    0.039727
-0.0089938   0.0046481    0.011794   -0.052843     -0.2081    0.012768    0.040052
-0.012242   0.0049729    0.013093   -0.053817    -0.20096  -0.0015233     0.03583
-0.017764   0.0026992   0.0046481   -0.056416    -0.18764   -0.021661    0.033231
-0.027508  -0.0024977  -0.0096434   -0.061613     -0.1727   -0.041475    0.033556
-0.038227  -0.0076946   -0.022961   -0.069733    -0.16295   -0.056416    0.033556
-0.04927   -0.012242    -0.03173   -0.079152    -0.15581   -0.065835    0.032257
-0.055441   -0.018738   -0.039201   -0.086298    -0.15029   -0.070707    0.024137
-0.053817   -0.028482   -0.046347   -0.089221    -0.14411   -0.073955    0.012443
-0.046347   -0.039526   -0.050569   -0.087597    -0.13502   -0.073631   0.0033489
-0.039526    -0.04992   -0.050894   -0.082076     -0.1178   -0.070707  -0.0021729
-0.03303   -0.055441   -0.048945   -0.073631   -0.090521   -0.068434  -0.0024977
-0.026209   -0.052518   -0.043423   -0.062587   -0.051868   -0.066485 -0.00054884
-0.01549     -0.0405   -0.034004   -0.049595   -0.012242   -0.057065   0.0026992
-0.0024977   -0.023285   -0.022961   -0.035303    0.024137   -0.042774   0.0072465
0.0052977  -0.0054209   -0.008669   -0.019388    0.053369   -0.027833    0.012768
0.0078962    0.010495   0.0059473  -0.0041217    0.080003   -0.014191    0.016016
0.0052977    0.021863    0.015367     0.01017     0.10404  -0.0018481    0.016666
-0.0015233    0.027385    0.016991     0.01829     0.11671   0.0062721     0.01764
-0.0063954     0.02641    0.014392    0.018615     0.11573    0.011794    0.019589
-0.0076946    0.018615    0.011469    0.016341     0.10047    0.016666    0.021213
-0.0083442   0.0091954    0.011144    0.016666    0.075781    0.020564    0.020564
-0.013216   0.0023744    0.013418    0.022512    0.050446    0.022512    0.014068
-0.020037   0.0020496     0.01894    0.030633    0.031607    0.021538   0.0059473
-0.023285   0.0059473    0.022837     0.03518    0.021213    0.017316 -0.00054884
-0.020362    0.011144    0.025111    0.034855    0.011469    0.012119 -0.00087364
-0.01484    0.013418    0.020888    0.029658  -0.0054209   0.0062721   0.0036737
-0.0099683    0.011794    0.013743    0.022512   -0.034329   0.0017248    0.012768
-0.008669   0.0052977   0.0065969     0.01764   -0.071357   0.0010752    0.020564
-0.0096434  -0.0034721   0.0020496    0.017316    -0.10644   0.0052977    0.026085
-0.0093186   -0.011917  -0.0018481    0.019589    -0.13112    0.012768    0.024786
-0.007045   -0.018738   -0.007045    0.021863    -0.14444    0.021538    0.016991
-0.0044465   -0.020362   -0.015815    0.026085    -0.14671    0.027709   0.0072465
-0.0034721   -0.019063   -0.026209    0.030308    -0.13632    0.028034  -0.0011985
-0.0021729   -0.015815   -0.035303    0.032906    -0.11423    0.021213  -0.0057458
-0.0011985   -0.014191   -0.038876    0.032906   -0.085648    0.008221  -0.0060706
0.0014    -0.01549   -0.038876    0.030957   -0.061937  -0.0076946  -0.0034721
0.0036737   -0.019388   -0.034978    0.024786   -0.051868   -0.020687  -0.0047713
0.0033489   -0.021337   -0.027833    0.013093   -0.046996   -0.028807   -0.012242
0.0033489   -0.021012   -0.018088  0.00010078    -0.04115    -0.03173   -0.019388
0.0033489   -0.018088  -0.0060706  -0.0089938   -0.029132    -0.03303   -0.019063
0.003024    -0.01484    0.011144   -0.013866   -0.012567   -0.037902   -0.016789
0.00075039   -0.010618    0.024461   -0.020037   0.0049729    -0.04115   -0.017114
-0.0028225  -0.0080194    0.027385   -0.026858    0.020239   -0.041475   -0.020687
-0.0099683  -0.0083442    0.015692    -0.03173    0.034206   -0.043423   -0.022961
-0.019712   -0.010943  -0.0041217   -0.029782    0.048822   -0.047321   -0.022636
-0.029782   -0.011592   -0.025884   -0.022311    0.066037   -0.054467   -0.015815
-0.03303   -0.010618   -0.041475  -0.0096434    0.088773   -0.061937  -0.0060706
-0.027833   -0.010943   -0.046671   0.0065969     0.11736   -0.068758   0.0023744
-0.017439   -0.011592   -0.044398    0.023162     0.14789   -0.073306   0.0062721
-0.0076946   -0.012242   -0.038227    0.037454     0.17972   -0.077528   0.0059473
0.00010078   -0.013541   -0.025884    0.047523     0.21025   -0.076554   0.0062721
0.0049729   -0.013866  -0.0073698    0.053044     0.23364   -0.068758   0.0085458
0.0017248    -0.01614    0.011469    0.054993     0.24143   -0.055441    0.013418
-0.0080194   -0.018738    0.024461    0.054019     0.22422   -0.042124    0.016991
-0.018088   -0.020037    0.029983    0.052395     0.17939   -0.032055    0.014392
-0.021661   -0.017114    0.027709    0.050771     0.11378   -0.026533   0.0062721
-0.017764   -0.010943    0.020564    0.049472    0.037778   -0.020687  -0.0034721
-0.0096434  -0.0028225    0.014068    0.044599   -0.030431   -0.011917   -0.010943
0.00075039   0.0052977    0.010819    0.036154   -0.078178  -0.0028225   -0.013216
0.0078962    0.010495    0.010495    0.023812    -0.10156   0.0062721   -0.011592
0.010495    0.013093   0.0095202    0.012768    -0.10546    0.013418  -0.0060706
0.0065969    0.011794    0.011144   0.0052977   -0.095393    0.014717    0.003024
0.0014   0.0085458     0.01894   0.0020496   -0.077528    0.008221    0.012768
0.0010752   0.0078962    0.031607   0.0046481   -0.063886  0.00075039    0.019264
0.008221    0.013093    0.038753    0.012443   -0.057065  -0.0011985    0.022188
0.016991    0.019589    0.039402    0.022512   -0.056091   0.0036737    0.021538
0.025111    0.021538    0.037778    0.033556   -0.058365    0.013093    0.017965
0.030308     0.01829    0.035505    0.043625   -0.064211    0.022512    0.014068
0.030633    0.012119     0.03583    0.046873   -0.073306    0.029333     0.01017
0.023487   0.0046481    0.036804    0.042975   -0.078178    0.031932    0.009845
0.014068 -0.00022403    0.038753     0.03518   -0.069083    0.029009    0.010495
0.0056225  -0.0021729    0.039402    0.030633   -0.047321    0.021863   0.0085458
0.00010078  -0.0021729    0.037454    0.029658   -0.021986    0.014392   0.0026992
-0.00087364 -0.00054884     0.03583    0.030308  -0.0031473   0.0085458  -0.0018481
0.00010078  0.00010078    0.033231    0.027385   0.0026992   0.0078962  -0.0034721
0.00075039   0.0039985    0.028034    0.016991  -0.0041217    0.011794   0.0026992
-0.0018481    0.010495     0.01764      0.0014   -0.014516    0.017965    0.016016
-0.0063954     0.01894      0.0014   -0.010943   -0.022636    0.024786    0.029333
-0.010293    0.024786   -0.015815   -0.012242   -0.021661    0.030308     0.03518
-0.008669    0.026085   -0.027508  -0.0044465  -0.0099683    0.032257     0.03453
-0.0024977    0.025761    -0.03303   0.0052977   0.0059473    0.029658    0.028034
0.0033489    0.025436   -0.033354    0.011794    0.018615    0.027709    0.021538
0.0039985    0.023812   -0.034654    0.013418    0.026735    0.030633    0.021213
-0.0024977    0.016991   -0.036278    0.010819    0.032582    0.032906    0.022837
-0.012567   0.0056225   -0.037252   0.0059473    0.037454    0.030957    0.024461
-0.017114  -0.0047713   -0.036278  0.00075039    0.047847    0.025761    0.022512
-0.015165  -0.0076946   -0.033354  -0.0024977    0.062789     0.01894     0.01829
-0.010943  -0.0041217   -0.029132  -0.0037969    0.075131    0.011469    0.011794
-0.0080194    0.003024   -0.024585  -0.0015233    0.076755   0.0026992 -0.00087364
-0.0099683   0.0085458   -0.022311   0.0020496    0.055318  -0.0047713   -0.015165
-0.017114    0.012119   -0.028807   0.0043233   0.0069217  -0.0080194    -0.02361
-0.026533    0.012768   -0.043748  0.00075039   -0.067784  -0.0073698   -0.024585
-0.033679    0.013093   -0.055441   -0.010293    -0.16328  -0.0093186   -0.022961
-0.035303    0.014068   -0.057065   -0.025559    -0.26429   -0.019063   -0.019388
-0.030106    0.018615    -0.04862   -0.039851    -0.34647   -0.030106   -0.010943
-0.02426    0.025761   -0.035628   -0.046671    -0.38447   -0.037577  -0.0015233
-0.023285     0.03453   -0.027183   -0.042774    -0.36628   -0.038551   0.0062721
-0.025884    0.039727   -0.021661   -0.031406    -0.29937   -0.030431    0.011144
-0.027183    0.039402   -0.020037   -0.017439    -0.20453   -0.017764    0.010495
-0.025234    0.037129    -0.02361  -0.0024977    -0.11066   -0.008669   0.0020496
-0.01614    0.033556   -0.027833    0.010819   -0.037577  -0.0067202   -0.011592
-0.0031473    0.031607   -0.030106     0.01764    0.008221   -0.010618   -0.024585
0.0088706    0.029009   -0.029782     0.01764    0.036804   -0.014191   -0.035953
0.016341     0.02641   -0.029457    0.013743    0.058241   -0.014516   -0.043423
0.016991    0.024137   -0.030431   0.0091954    0.074806   -0.011267   -0.044073
0.014717    0.021538    -0.03173   0.0069217    0.080978  -0.0083442   -0.038227
0.012443     0.01764   -0.031406   0.0069217    0.078379  -0.0083442    -0.02426
0.0085458    0.012443   -0.025559   0.0085458    0.067661  -0.0093186  -0.0067202
0.0036737   0.0065969   -0.012242    0.008221    0.051096   -0.008669   0.0069217
-0.00022403   0.0020496      0.0014    0.008221    0.032257  -0.0096434    0.013418
-0.00054884  -0.0037969   0.0065969    0.013743   0.0075714   -0.012892    0.013743
0.0026992  -0.0089938    0.003024    0.022512   -0.028807   -0.019712    0.011144
0.0065969   -0.012892  -0.0054209    0.029009   -0.074605   -0.027508   0.0033489
0.012119   -0.013866   -0.013216    0.028684    -0.12008   -0.030431  -0.0050961
0.016991   -0.012567   -0.015815     0.01829    -0.15321   -0.026858   -0.012567
0.021863   -0.011592   -0.011267   0.0036737     -0.1649   -0.019063    -0.01614
0.024137  -0.0093186  -0.0063954   -0.011267    -0.15548   -0.015815    -0.01549
0.023162  -0.0080194  -0.0041217   -0.023285     -0.1269   -0.018413   -0.013541
0.017316  -0.0080194  -0.0076946   -0.028807   -0.087597   -0.022311   -0.011592
0.010495  -0.0073698   -0.019063   -0.030106   -0.045047   -0.023935  -0.0093186
0.0088706  -0.0073698   -0.033679   -0.028157   -0.010293   -0.021337  -0.0063954
0.01017  -0.0083442   -0.042449    -0.02426   0.0075714   -0.019712  -0.0054209
0.01017   -0.010943     -0.0405   -0.022636   0.0049729    -0.02426   -0.008669
0.0017248    -0.01614   -0.032055   -0.025559   -0.010943   -0.034329   -0.016464
-0.010293   -0.023285   -0.020037   -0.031081   -0.026209   -0.043099   -0.026209
-0.018413   -0.027508  -0.0076946   -0.036927   -0.031406   -0.046996   -0.031406
-0.020362   -0.032055 -0.00022403   -0.043099   -0.027183   -0.047321   -0.032055
-0.019712   -0.034978 -0.00054884   -0.050894   -0.019388   -0.047971   -0.025234
-0.019388   -0.034978  -0.0067202   -0.060638   -0.014191    -0.04992   -0.018088
-0.022636   -0.034004   -0.013541   -0.068434   -0.008669   -0.051219   -0.014191
-0.026533   -0.031406   -0.016464   -0.069083  -0.0037969   -0.050569   -0.013541
-0.029782   -0.023935   -0.017114   -0.061613      0.0014   -0.046347   -0.013866
-0.026858   -0.012242   -0.019712   -0.047321   0.0065969   -0.040825   -0.013541
-0.015165 -0.00087364   -0.024585   -0.031081   0.0085458   -0.037902   -0.012892
0.0010752   0.0036737   -0.030756   -0.016789   0.0085458   -0.038227   -0.012567
0.011794 -0.00022403   -0.037252  -0.0063954    0.010819   -0.037902  -0.0093186
0.011794  -0.0093186     -0.0405  -0.0018481    0.019264   -0.038551  -0.0044465
0.00042559   -0.016464   -0.036927  -0.0015233    0.037454   -0.039851  -0.0057458
-0.015815   -0.017439   -0.028482  -0.0037969    0.059541   -0.042124   -0.014516
-0.027833   -0.012567   -0.019388  -0.0034721    0.082602   -0.043423   -0.024585
-0.029132  -0.0083442   -0.011917 -0.00054884     0.10306   -0.042449   -0.031406
-0.020362  -0.0083442  -0.0080194   0.0033489     0.11606   -0.037252   -0.029782
-0.0089938   -0.012892  -0.0067202    0.003024      0.1258   -0.028157   -0.019388
-0.0044465   -0.019063  -0.0050961   0.0017248      0.1362   -0.020687  -0.0083442
-0.0093186   -0.023935  0.00042559      0.0014     0.15081    -0.01549  -0.0024977
-0.017764   -0.025234    0.008221   0.0043233     0.16998  -0.0099683  -0.0054209
-0.021661   -0.021986    0.016666    0.011794     0.19239  -0.0057458   -0.015815
-0.020687   -0.016789    0.019264    0.025436     0.21447  -0.0057458   -0.030756
-0.018413   -0.010943    0.010819    0.040702     0.22682  -0.0083442   -0.038876
-0.019063  -0.0044465  -0.0050961    0.050446     0.22259   -0.014191   -0.033679
-0.021012 -0.00087364   -0.021012    0.051096       0.207   -0.020037   -0.015815
-0.021986   0.0017248   -0.028482    0.042326     0.18557    -0.02426   0.0039985
-0.018088 -0.00054884    -0.02361    0.031932     0.16803   -0.029457    0.017316
-0.008669  -0.0041217  -0.0099683     0.02706     0.16315   -0.035953    0.019914
-0.0015233  -0.0060706   0.0043233    0.028034     0.17127     -0.0405    0.014392
-0.0031473  -0.0037969    0.013093    0.033231     0.18881   -0.041475   0.0033489
-0.012242      0.0014    0.015367     0.03583     0.20538   -0.038227   -0.010293
-0.02361   0.0033489    0.012443     0.03453      0.2135   -0.034004   -0.021986
-0.028157  -0.0015233   0.0065969    0.033231     0.20278    -0.03303   -0.028157
-0.023935  -0.0096434    0.003024    0.031282      0.1664   -0.034978   -0.023935
-0.015815   -0.017764  0.00042559    0.028684     0.10436   -0.038876   -0.011917
-0.010943   -0.022311  -0.0011985    0.022512    0.023812   -0.042449   0.0023744
-0.014516   -0.022636  -0.0011985    0.013093   -0.067134   -0.047321    0.013743
-0.021661   -0.022961   0.0023744  0.00075039    -0.15905   -0.056416    0.020239
-0.028482    -0.02361   0.0043233   -0.014191    -0.23863   -0.064211    0.022188
-0.034004   -0.020037 -0.00022403   -0.028157    -0.29775    -0.06551    0.022512
-0.037577   -0.011917   -0.008669   -0.036278    -0.33543   -0.056741    0.021863
-0.036602  -0.0031473   -0.015815   -0.037902    -0.35621   -0.043099    0.020888
-0.029457   0.0039985   -0.017764   -0.035303    -0.36758   -0.030431    0.024137
-0.017114   0.0049729   -0.013866   -0.031406    -0.37927   -0.021986    0.025436
-0.0015233   0.0020496  -0.0067202   -0.028157    -0.39097    -0.01484    0.020888
0.0095202 -0.00054884  -0.0037969   -0.029132    -0.39649  -0.0034721    0.013418
0.015692   0.0020496  -0.0047713   -0.032705    -0.39389   0.0091954    0.008221
0.016991   0.0091954  -0.0057458   -0.033354    -0.37635    0.016016   0.0069217
0.01894    0.015692  -0.0024977   -0.030756     -0.3377    0.016341   0.0088706
0.021863    0.016016   0.0069217   -0.024909    -0.28086    0.011469     0.01017
0.025761    0.010819    0.019264    -0.01549    -0.21947   0.0046481   0.0088706
0.025436   0.0069217    0.028034  -0.0047713    -0.15938 -0.00022403   0.0056225
0.021213   0.0088706    0.029333   0.0043233    -0.10319      0.0014   0.0043233
0.016666    0.014392    0.024786    0.009845   -0.048296   0.0049729   0.0069217
0.017316    0.019914     0.01764    0.012443   0.0033489   0.0062721   0.0085458
0.01894    0.025436    0.014392    0.017316    0.048172   0.0036737     0.01017
0.021213    0.029009    0.015042    0.024461    0.078055 -0.00054884    0.010495
0.020564    0.027709    0.012443    0.028359    0.093645  -0.0011985     0.01017
0.020239    0.021213   0.0010752    0.029009     0.10339  -0.0018481   0.0075714
0.019914    0.012768   -0.010618    0.028359     0.11378  -0.0015233    0.003024
0.01829   0.0078962    -0.01614    0.028684      0.1258  -0.0034721  -0.0034721
0.014068    0.011144   -0.012892    0.032257     0.14237  -0.0060706   -0.010943
0.0078962    0.017316  -0.0044465    0.037129     0.16705  -0.0096434   -0.013866
0.0020496    0.022188   0.0026992    0.038753     0.20311   -0.013216   -0.011917
-0.00022403    0.019914   0.0072465    0.035505     0.24111   -0.013866  -0.0076946
0.0017248    0.014392   0.0078962    0.029333     0.27164   -0.011592  -0.0044465
0.0069217    0.010495    0.008221    0.024461     0.28626   -0.007045  -0.0028225
0.011144   0.0095202    0.010495    0.024461     0.28301  0.00042559   0.0023744
0.013418   0.0075714    0.012443    0.028034     0.26904    0.011144    0.010819
0.013418   0.0062721     0.01017    0.029658     0.24858    0.024137    0.017316
0.013743   0.0026992   0.0026992    0.026085      0.2187    0.030957    0.020239
0.016016  -0.0034721  -0.0034721    0.020239     0.17745    0.031282    0.020239
0.020564   -0.011267   -0.007045    0.015692     0.12548    0.027709    0.016991
0.026085   -0.017439  -0.0089938    0.010495    0.056617    0.024461    0.011794
0.030633   -0.020687   -0.012892   0.0062721   -0.036602    0.018615   0.0091954
0.031607   -0.020362   -0.020362   0.0043233    -0.14899    0.013743   0.0072465
0.027709   -0.018413   -0.027183   0.0043233    -0.26462   0.0085458   0.0072465
0.01764    -0.01549    -0.03173  0.00075039    -0.36596   0.0033489    0.010819
0.003024   -0.013541   -0.033354  -0.0063954    -0.43709  -0.0015233    0.011469
-0.012892   -0.014191    -0.03238   -0.011917     -0.4673  -0.0067202   0.0069217
-0.024909   -0.019388   -0.029457   -0.013866    -0.46178   -0.011917  0.00042559
-0.025884   -0.026858   -0.024909  -0.0099683    -0.43319   -0.017764  -0.0047713
-0.017439    -0.03173   -0.018738  -0.0024977    -0.39097   -0.023935  -0.0083442
-0.0080194   -0.031081    -0.01484   0.0036737    -0.34322   -0.031081   -0.013216
0.00010078   -0.022311   -0.015165   0.0078962    -0.29547   -0.034654   -0.020362
0.0049729  -0.0089938   -0.016464   0.0095202    -0.25098    -0.03303   -0.026209
0.0033489    0.003024    -0.01614   0.0052977     -0.2068   -0.026533   -0.028807
-0.0031473    0.010495   -0.013866  -0.0031473     -0.1662   -0.019388   -0.029457
-0.011267    0.013093  -0.0096434   -0.012242     -0.1282   -0.014191   -0.028807
-0.01549    0.015042  -0.0047713    -0.01549   -0.095717  -0.0083442   -0.028482
-0.016464    0.016341   0.0017248   -0.012892   -0.061613  -0.0015233   -0.030106
-0.017764    0.019264   0.0026992  -0.0080194   -0.024909   0.0017248    -0.03238
-0.020362    0.021863  -0.0028225  -0.0047713    0.016016  -0.0021729    -0.03303
-0.022961    0.021538  -0.0099683  -0.0047713    0.059865   -0.010618   -0.034329
-0.023935    0.016666   -0.015165   -0.007045    0.095594   -0.017114    -0.03238
-0.02426   0.0088706   -0.018413  -0.0093186     0.11541   -0.020687   -0.028482
-0.022311   0.0033489   -0.024909  -0.0080194     0.11638   -0.025234   -0.022636
-0.021337  0.00010078   -0.034004  -0.0060706     0.10371   -0.030106    -0.01614
-0.025559  0.00010078   -0.042774  -0.0021729    0.088773   -0.032705  -0.0083442
-0.032055   0.0010752   -0.046671   0.0052977    0.080653   -0.031081  0.00010078
-0.037252   0.0017248   -0.040825    0.016666    0.079679   -0.027833   0.0062721
-0.036602   0.0039985   -0.025559    0.024137    0.081303   -0.019063   0.0095202
-0.030431    0.009845  -0.0089938    0.027385    0.083576  -0.0076946    0.011794
-0.021337     0.01894   0.0010752    0.024137    0.083251   0.0017248    0.015042
-0.011917    0.029333      0.0014    0.019264    0.079029   0.0065969     0.01894
-0.007045    0.035505  -0.0024977    0.013743    0.073507   0.0039985    0.020564
-0.0083442    0.034206   -0.007045   0.0059473    0.070259  -0.0037969    0.015692
-0.013541     0.02641   -0.010943  -0.0041217    0.073832   -0.014191   0.0052977
-0.018088    0.015692   -0.014516   -0.014516    0.086824   -0.022311  -0.0031473
-0.021012   0.0088706    -0.01549   -0.019388     0.10469   -0.028482  -0.0080194
-0.021986    0.008221   -0.013866   -0.017114     0.12223   -0.029457  -0.0067202
-0.024585    0.010495  -0.0083442  -0.0083442     0.13132   -0.024909  -0.0021729
-0.029132    0.011794 -0.00087364      0.0014     0.12872   -0.013866   0.0049729
-0.032705    0.010819   0.0078962   0.0043233     0.11931  -0.0044465     0.01017
-0.032705   0.0088706    0.015367   0.0010752     0.10891  -0.0031473    0.010819
-0.026209   0.0088706    0.019264  -0.0067202     0.10469  -0.0083442   0.0062721
-0.017439     0.01017    0.015692    -0.01614     0.10534   -0.012892  -0.0057458
-0.011592   0.0091954   0.0043233   -0.026209     0.11021    -0.01549   -0.020037
-0.010618   0.0046481   -0.012242   -0.033679     0.10859   -0.018413   -0.028807
-0.011267  -0.0011985   -0.025559   -0.035953    0.092346   -0.023285   -0.030756
-0.0093186  -0.0057458   -0.030106   -0.030756    0.057917   -0.028807   -0.028807
-0.0024977  -0.0089938   -0.024909   -0.017764    0.012119   -0.032055   -0.025234
0.0075714   -0.012242   -0.013216  -0.0015233    -0.03238   -0.027833   -0.020037
0.015042   -0.014191 -0.00022403    0.010819   -0.062262   -0.017114   -0.012242
0.015692   -0.013866   0.0095202    0.013418   -0.071032  -0.0037969  -0.0011985
0.011794  -0.0080194    0.015042   0.0095202   -0.060638    0.008221    0.012443
0.0072465   0.0017248    0.017965   0.0078962   -0.034654    0.014717    0.025761
0.0033489   0.0088706    0.020239   0.0095202  -0.0044465    0.016991     0.03518
-0.00087364    0.012119    0.022188    0.014392    0.017965    0.016991     0.03518
-0.0057458    0.010819    0.022512    0.026085    0.027709    0.017316     0.02706
-0.010943   0.0065969    0.019264    0.044275    0.028359    0.016666    0.015367
-0.013866      0.0014    0.016666    0.062464    0.024461    0.014717   0.0056225
-0.013541  -0.0041217    0.016666    0.072208    0.015042    0.008221  -0.0021729
-0.014191  -0.0073698     0.01829     0.06896   0.0046481 -0.00087364  -0.0083442
-0.016789  -0.0047713     0.01894    0.052395  -0.0080194  -0.0067202   -0.008669
-0.019712   0.0033489     0.01894    0.029983   -0.020362  -0.0057458  -0.0028225
-0.018088    0.012443     0.01829    0.011794   -0.030431  -0.0011985   0.0017248
-0.011917    0.017316    0.017316   0.0023744   -0.035953  0.00042559  0.00042559
-0.0067202     0.01894    0.012768  -0.0015233   -0.036927  -0.0024977  -0.0096434
-0.0037969    0.016666   0.0039985  -0.0024977   -0.035953  -0.0083442    -0.02361
-0.0024977    0.011469  -0.0067202  -0.0028225   -0.036278   -0.016464    -0.03238
-0.00087364   0.0069217   -0.014191  0.00042559   -0.034004   -0.022311    -0.03303
0.0023744   0.0043233   -0.018413   0.0091954   -0.030756   -0.021012   -0.021986
0.010495   0.0052977   -0.021986    0.021538   -0.030756   -0.015165  -0.0041217
0.019264   0.0072465   -0.028807    0.031932   -0.034329  -0.0096434    0.012443
0.024461     0.01017   -0.038227    0.031282   -0.042449  -0.0096434    0.021863
0.024461    0.011794   -0.044073    0.021213   -0.050569   -0.014516    0.021863
0.021213    0.011794   -0.042124   0.0095202   -0.055441    -0.02361    0.016666
0.017965    0.010495   -0.036927   0.0023744   -0.058689   -0.028157    0.009845
0.016016   0.0072465   -0.031081  0.00010078   -0.060313   -0.030106   0.0052977
0.016666      0.0014   -0.027833   0.0017248   -0.062587   -0.034004   0.0046481
0.016666  -0.0076946   -0.022636   0.0039985    -0.06551   -0.039201   0.0020496
0.015042   -0.013866   -0.014191   0.0033489   -0.072981   -0.045047  -0.0060706
0.013743   -0.015165  -0.0054209  -0.0015233   -0.084674   -0.053492    -0.01614
0.014717   -0.012242 -0.00022403  -0.0099683   -0.097017   -0.064861   -0.023285
0.01829  -0.0096434  -0.0011985   -0.022311    -0.10514   -0.075904   -0.026858
0.01894  -0.0099683  -0.0093186   -0.035953    -0.10806   -0.081751   -0.030431
0.013418   -0.018738   -0.017439   -0.051219    -0.10936   -0.084024   -0.035953
-0.00022403   -0.030431   -0.024909   -0.062912    -0.11196   -0.080776   -0.038876
-0.01614   -0.040175   -0.025884    -0.06681    -0.11456   -0.070707     -0.0405
-0.030106   -0.045697   -0.021986   -0.060963    -0.11423   -0.055441   -0.037902
-0.040175   -0.046022   -0.015815   -0.048945    -0.10936   -0.042449   -0.030431
-0.046996   -0.043748   -0.011917   -0.036602    -0.09929   -0.039526   -0.018413
-0.047321   -0.037902  -0.0080194   -0.025559   -0.088247   -0.038876  -0.0054209
-0.042124   -0.029782  -0.0047713    -0.01484   -0.082076   -0.033679   0.0052977
-0.031081   -0.013541  -0.0018481  -0.0031473   -0.079152   -0.025884    0.012119
-0.018738   0.0059473   0.0033489   0.0065969   -0.080127   -0.020037    0.014392
-0.0080194    0.021213    0.010819    0.012768   -0.082725    -0.01549    0.014717
0.00075039    0.026085    0.017965    0.014392   -0.085324   -0.012892    0.012768
0.0072465    0.019914    0.025761    0.010495   -0.085324  -0.0093186    0.011144
0.011794   0.0088706     0.03453   0.0043233   -0.084024  -0.0060706    0.013418
0.011144  0.00042559    0.042326 -0.00054884   -0.078503  -0.0073698    0.016991
0.0062721 -0.00087364    0.043625  -0.0054209   -0.069733   -0.015165    0.017965
0.00010078   0.0010752    0.037129  -0.0099683   -0.061937   -0.025559    0.012768
-0.0057458   0.0065969    0.029009  -0.0096434   -0.053817    -0.03238   0.0052977
-0.010293    0.011469    0.019589  -0.0037969   -0.043748   -0.031406   0.0023744
-0.015165    0.014068   0.0072465   0.0062721   -0.029132   -0.022961   0.0046481
-0.01614    0.013418  -0.0037969    0.014068  -0.0093186   -0.010618   0.0085458
-0.011267   0.0091954   -0.011267    0.014068    0.011794 -0.00022403    0.010819
-0.00054884   0.0039985   -0.012567    0.010819    0.031282   0.0043233     0.01017
0.013418  0.00010078   -0.012242    0.011144    0.045899   0.0043233   0.0072465
0.024786   0.0010752   -0.011917    0.014717    0.056292  0.00075039   0.0072465
0.028684   0.0062721   -0.012242    0.023812    0.058566  -0.0050961    0.010495
0.021538    0.011469   -0.013216    0.031282    0.051745  -0.0096434    0.012119
0.008221    0.014392   -0.014516    0.032906    0.040052   -0.010943   0.0095202
-0.0076946    0.013093   -0.014516    0.028034    0.033556  -0.0096434   0.0059473
-0.019388   0.0075714   -0.016789    0.021213    0.032582  -0.0080194   0.0043233
-0.021986      0.0014   -0.018738    0.017316    0.039078  -0.0076946   0.0049729
-0.014516  -0.0024977   -0.018738    0.016341    0.047847  -0.0047713   0.0049729
-0.0028225  -0.0047713   -0.015815     0.01829    0.059541  -0.0034721   0.0033489
0.0095202  -0.0028225   -0.013866    0.023487    0.075456  -0.0057458      0.0014
0.019914  0.00010078   -0.015815    0.028034    0.095594  -0.0093186  -0.0015233
0.02706   0.0010752   -0.018088    0.031282     0.11638   -0.011917  -0.0037969
0.028034  -0.0031473   -0.018413    0.029333      0.1336   -0.011592  -0.0057458
0.022188   -0.010618   -0.016464    0.022512     0.14399  -0.0076946  -0.0041217
0.013743   -0.018088   -0.013541    0.014717     0.14561  -0.0044465  -0.0031473
0.0069217   -0.023935   -0.010618   0.0062721      0.1336 -0.00022403  -0.0044465
-0.0015233   -0.030431   -0.010618 -0.00022403     0.10761    0.008221  -0.0057458
-0.011592   -0.034004   -0.016789  -0.0057458     0.06961    0.020239  -0.0063954
-0.021012    -0.03173    -0.03173   -0.012892    0.023812    0.032582  -0.0080194
-0.027183   -0.025234   -0.046996   -0.022961   -0.024585    0.037778  -0.0099683
-0.030106   -0.017764   -0.054467   -0.029782   -0.075579    0.032582   -0.008669
-0.03303   -0.015165   -0.055766   -0.034654     -0.1282    0.018615  -0.0093186
-0.035953    -0.01614   -0.053492   -0.038876    -0.18244   0.0017248   -0.012567
-0.036927   -0.018738   -0.047971   -0.042449    -0.22856  -0.0099683   -0.018738
-0.032055   -0.019388     -0.0405   -0.046022     -0.2526   -0.012242   -0.019712
-0.020362   -0.015165    -0.03303   -0.050569    -0.24838  -0.0093186   -0.017114
-0.00087364   -0.007045   -0.024909   -0.053817    -0.22012  -0.0034721   -0.012567
0.01894  -0.0018481   -0.017439   -0.051219    -0.17854    0.003024  -0.0080194
0.030957  0.00075039   -0.010618   -0.041799     -0.1295   0.0088706  -0.0031473
0.032257  -0.0015233   -0.007045   -0.032055   -0.080127    0.011469   0.0036737
0.024137  -0.0073698   -0.012567   -0.024909   -0.035953   0.0095202    0.009845
0.011794   -0.013866   -0.023285   -0.022961 -0.00022403      0.0014    0.013093
0.003024    -0.01549   -0.032705   -0.024585     0.02706   -0.011592    0.012119
-0.00022403   -0.011592   -0.034329    -0.02361    0.047523   -0.021986   0.0052977
-0.00054884  -0.0057458   -0.029132   -0.018088     0.06084   -0.026533  -0.0024977
-0.00087364  -0.0031473   -0.020037   -0.010618    0.069285   -0.025559  -0.0067202
-0.0015233  -0.0054209  -0.0083442  -0.0031473    0.074806   -0.019063  -0.0031473
-0.0011985   -0.012242   0.0026992   0.0046481    0.078379   -0.007045    0.008221
0.00010078   -0.018738   0.0069217   0.0085458    0.076755   0.0049729     0.01894
0.0033489   -0.019388   0.0033489   0.0052977    0.065387    0.011469     0.02706
0.0043233   -0.013216  -0.0037969  -0.0021729    0.048172   0.0072465    0.031932
0.0010752  -0.0050961   -0.011592  -0.0057458    0.031932   -0.007045    0.032582
-0.0018481  0.00010078   -0.017114  -0.0015233    0.018615   -0.025234    0.029658
-0.0037969  -0.0011985   -0.018738   0.0069217    0.011144   -0.039851    0.024137
-0.0034721  -0.0050961   -0.018088    0.016341   0.0078962   -0.051544    0.012443
-0.0050961  -0.0060706   -0.020687    0.023487   0.0056225   -0.060638  -0.0024977
-0.0063954  -0.0044465   -0.025884    0.028034   0.0062721   -0.068758   -0.018088
-0.0073698  -0.0050961   -0.028482    0.029983    0.010495   -0.076229   -0.031406
-0.0073698  -0.0067202   -0.025559    0.028359     0.01829    -0.08305   -0.039201
-0.007045   -0.007045   -0.016789    0.024137    0.025111   -0.089546   -0.039851
-0.0050961  -0.0063954  -0.0060706    0.020888    0.028034   -0.092145   -0.034004
-0.0028225  -0.0054209   0.0010752     0.01894    0.025111   -0.090196   -0.022961
-0.0011985  -0.0050961      0.0014    0.024786    0.020564   -0.082725  -0.0089938
-0.0015233  -0.0054209  -0.0054209    0.036479     0.01764   -0.071357   0.0017248
-0.0044465  -0.0057458   -0.014191    0.047198    0.013093   -0.060963   0.0088706
-0.012567  -0.0057458   -0.019388    0.049796   0.0056225   -0.053492    0.013418
-0.023285  -0.0054209   -0.015815    0.046548  -0.0044465   -0.045697    0.016016
-0.032055  -0.0063954  -0.0060706    0.037454   -0.013541   -0.034329    0.013743
-0.036927   -0.010618   0.0052977    0.024786   -0.019712   -0.016464   0.0088706
-0.037252   -0.013216    0.013743    0.012443   -0.021986   0.0078962   0.0069217
-0.032705   -0.012242    0.016991   0.0026992   -0.022311    0.032906   0.0059473
-0.023285   -0.010618    0.015692  -0.0021729   -0.024909    0.052395   0.0069217
-0.014516   -0.010943    0.012768  -0.0067202   -0.032705    0.061814   0.0078962
-0.0063954  -0.0089938    0.012119   -0.013216   -0.040825    0.067336   0.0046481
0.0020496  -0.0024977    0.014068   -0.017114   -0.043099    0.076106  -0.0011985
0.012443   0.0065969    0.016991   -0.011592   -0.037902    0.089423  -0.0057458
0.020888    0.016016     0.01829 -0.00054884   -0.028807     0.10274  -0.0099683
0.025436    0.024786     0.01894    0.011144   -0.020037     0.11281   -0.013541
0.023487    0.031607    0.016016    0.019589    -0.01549     0.11573   -0.016789
0.01764    0.032257     0.01017    0.025111   -0.012892     0.11086   -0.018088
0.012119    0.028359   0.0036737     0.02641  -0.0060706    0.096244    -0.01549
0.0065969    0.024786  0.00075039    0.024461   0.0026992    0.073832   -0.010293
0.00075039     0.01894   0.0023744    0.019914   0.0088706    0.049796  -0.0067202
-0.0041217    0.013093   0.0085458    0.016341   0.0069217    0.032257  -0.0073698
-0.007045    0.008221    0.015692    0.014392  -0.0057458    0.025761  -0.0067202
-0.0044465    0.009845    0.021213    0.011794   -0.022961    0.029009  -0.0047713
-0.00054884    0.015367    0.021863    0.010495    -0.04115    0.034206  -0.0041217
0.0036737    0.022188    0.015692   0.0091954   -0.056091     0.03518  -0.0047713
0.0052977    0.027385   0.0036737    0.003024   -0.065186    0.027385  -0.0047713
0.0039985    0.030633  -0.0089938  -0.0044465   -0.070707   0.0095202  -0.0047713
0.0036737    0.032906   -0.017114  -0.0080194   -0.076879   -0.020362  -0.0060706
0.0026992    0.033881   -0.017764   -0.007045   -0.085648   -0.055766  -0.0083442
-0.0011985     0.03453   -0.016789  0.00010078   -0.093119   -0.090845   -0.011592
-0.0063954    0.034206   -0.015815   0.0085458    -0.10091    -0.11845   -0.017439
-0.011592    0.032906   -0.013216    0.014068    -0.10806    -0.13177   -0.022636
-0.013866    0.033556  -0.0076946    0.014392    -0.10903    -0.12657   -0.026209
-0.012892    0.034855 -0.00054884   0.0091954    -0.10059    -0.10968   -0.026533
-0.007045    0.034855   0.0043233  0.00042559   -0.082076   -0.088572   -0.026209
-0.0011985    0.033881   0.0062721   -0.007045   -0.059339   -0.068109    -0.02426
-0.0011985    0.032582   0.0052977   -0.011267     -0.0405   -0.053492   -0.021012
-0.0063954    0.032582   0.0052977   -0.010293   -0.036927   -0.047971   -0.015815
-0.013216     0.03518   0.0039985  -0.0076946    -0.04927   -0.052843  -0.0099683
-0.018413    0.038428   0.0039985  -0.0050961   -0.070382   -0.061288  -0.0034721
-0.022311    0.039727   0.0059473  -0.0034721   -0.090845   -0.069083 -0.00022403
-0.026533    0.038103   0.0059473  -0.0054209    -0.10384   -0.073955  0.00075039
-0.031406    0.032257  0.00010078   -0.013541    -0.10579   -0.075579   0.0033489
-0.036602    0.023812  -0.0093186   -0.024585   -0.098316   -0.073955   0.0033489
-0.039526    0.015692   -0.018413   -0.034978     -0.0837   -0.070707  0.00042559
-0.036602     0.01017   -0.020687   -0.040175    -0.06616   -0.067459  -0.0031473
-0.028157   0.0069217   -0.020037   -0.036927   -0.045047   -0.065835  -0.0073698
-0.021337   0.0056225   -0.018738   -0.027183   -0.025884    -0.06616   -0.011917
-0.021986   0.0036737   -0.018738   -0.017114   -0.012892   -0.067459   -0.012892
-0.028482 -0.00087364   -0.018738  -0.0099683   -0.011267   -0.067459  -0.0089938
-0.034654  -0.0080194   -0.019388  -0.0024977   -0.016789    -0.06681  -0.0011985
-0.034329   -0.014191   -0.016789   0.0069217    -0.03303   -0.060638    0.008221
-0.025234   -0.016464   -0.011592    0.017965   -0.061288   -0.050894    0.014392
-0.010618    -0.01484  -0.0028225    0.028359   -0.097341   -0.038876    0.015042
0.0036737   -0.011917   0.0065969    0.038103    -0.12917   -0.031081    0.010819
0.013093  -0.0073698    0.013418    0.042975    -0.14379   -0.028807   0.0052977
0.017316  -0.0054209    0.016991    0.042001    -0.13632   -0.028482  0.00042559
0.019589   -0.007045    0.015692    0.038753    -0.11228   -0.025234  -0.0034721
0.01764   -0.010943    0.013418    0.030957   -0.073955   -0.018088  -0.0031473
0.012443   -0.012242    0.008221     0.01894    -0.03238   -0.012567   0.0020496
0.0056225   -0.010943   0.0036737   0.0085458    0.008221  -0.0089938   0.0072465
-0.00087364  -0.0076946   0.0020496   0.0017248    0.040052  -0.0050961    0.011144
-0.0060706  -0.0063954   0.0039985  -0.0015233    0.063113  -0.0024977    0.012443
-0.0057458  -0.0054209   0.0065969  -0.0024977    0.084551  -0.0037969   0.0095202
0.00042559  -0.0057458   0.0059473  -0.0057458     0.10794  -0.0063954   0.0052977
0.011794  -0.0044465   0.0043233  -0.0093186     0.13684  -0.0037969 -0.00022403
0.024137  -0.0031473   0.0017248  -0.0096434     0.16738   0.0023744  -0.0028225
0.032257  -0.0011985  -0.0037969  -0.0063954     0.19336    0.010819 -0.00022403
0.033231      0.0014   -0.007045 -0.00022403     0.21447    0.013418   0.0049729
0.029009   0.0023744  -0.0050961   0.0033489     0.22714    0.011144    0.013418
0.029333   0.0020496   0.0033489   0.0065969     0.22812   0.0026992    0.026735
0.038753  -0.0011985   0.0078962   0.0088706     0.21577  -0.0093186    0.042651
0.050771  -0.0044465   0.0052977    0.009845     0.19271   -0.019388    0.054668
0.052395  -0.0080194  -0.0011985    0.011144      0.1625   -0.021012    0.056617
0.041676  -0.0083442  -0.0060706    0.012443     0.12807   -0.013216    0.046548
0.023162  -0.0050961   -0.007045    0.013093    0.096244  -0.0034721    0.028684
0.0020496  -0.0018481  -0.0050961    0.012119    0.073832      0.0014    0.011794
-0.01484  0.00042559  -0.0037969     0.01017    0.063763      0.0014   0.0039985
-0.023285   0.0010752  -0.0083442   0.0059473    0.065712  0.00010078   0.0020496
-0.026209 -0.00022403   -0.018088   0.0017248     0.06961 -0.00087364   0.0049729
-0.026858  -0.0021729   -0.029782  0.00010078     0.06831  -0.0028225   0.0052977
-0.025884  -0.0037969   -0.038227   0.0036737    0.057592  -0.0067202 -0.00054884
-0.02426  -0.0067202   -0.041799    0.012119    0.040702   -0.012892   -0.013866
-0.02361   -0.012242   -0.042449    0.019589    0.026085   -0.019712   -0.033679
-0.025234   -0.019388   -0.038876    0.021538    0.019264   -0.025234   -0.050894
-0.031081   -0.026858    -0.03303    0.014392    0.017965   -0.026533   -0.061613
-0.036602   -0.034329   -0.029782   0.0039985     0.01829   -0.021986   -0.064861
-0.0405   -0.038227   -0.027833  -0.0057458    0.012768   -0.011917   -0.064536
-0.042449   -0.036602   -0.026209   -0.013541  -0.0021729      0.0014    -0.06551
-0.042449    -0.03303   -0.021661   -0.017439   -0.030106    0.014068   -0.065186
-0.04115   -0.028157   -0.013866   -0.020687   -0.071357    0.021863   -0.061937
-0.037902    -0.02426  -0.0044465   -0.025234     -0.1282    0.021538   -0.053492
-0.030431   -0.021337   0.0010752   -0.029782    -0.19413    0.013418     -0.0405
-0.019063   -0.019712 -0.00087364   -0.031406     -0.2552   0.0065969   -0.026533
-0.008669   -0.019063  -0.0054209   -0.030431     -0.2919   0.0062721   -0.018738
-0.0018481   -0.018738   -0.010618   -0.028807     -0.2971    0.012443   -0.019063
-0.0015233   -0.018413    -0.01484    -0.02426    -0.27761    0.020888    -0.02426
-0.0021729   -0.018738   -0.015165    -0.01614    -0.24383    0.027709   -0.027508
-0.0044465   -0.015815   -0.014516  -0.0063954    -0.20323    0.031607   -0.029457
-0.0083442  -0.0096434   -0.015165   0.0046481    -0.16458    0.029983   -0.032055
-0.01614  0.00042559    -0.01614    0.011794    -0.13112    0.029009   -0.031081
-0.023935    0.011144   -0.016464    0.014068    -0.10156    0.031607   -0.025884
-0.026209    0.017965   -0.013866   0.0088706   -0.072981    0.039402   -0.018088
-0.023935    0.018615  -0.0063954  -0.0024977   -0.041475    0.048172   -0.014516
-0.017764    0.013418 -0.00022403   -0.014516  -0.0073698    0.051745   -0.013216
-0.010943    0.003024  0.00075039   -0.020687    0.021863    0.045574   -0.010618
-0.0060706  -0.0073698  -0.0041217   -0.021661    0.039727    0.031607  -0.0060706
-0.0054209   -0.013866   -0.010618   -0.021661    0.046223    0.014392  -0.0067202
-0.010293    -0.01549   -0.017439   -0.019063    0.048497   0.0010752   -0.013541
-0.01614   -0.012242   -0.020687   -0.011267    0.050771  -0.0018481   -0.023285
-0.018088  -0.0067202   -0.020687 -0.00087364    0.058241   0.0049729   -0.030106
-0.015165  -0.0028225   -0.019388   0.0075714    0.067986     0.01764   -0.026858
-0.011917  -0.0021729   -0.017114    0.011469    0.078704    0.030957   -0.012242
-0.0093186  -0.0063954   -0.012892    0.016666    0.090072    0.043625   0.0085458
-0.0041217  -0.0096434   -0.011917    0.025436     0.10112     0.05142    0.028359
0.0056225   -0.011592   -0.018088    0.036804     0.11378     0.05207    0.042001
0.013743   -0.012242   -0.029132    0.042326     0.13555    0.045574    0.050121
0.013418   -0.012242   -0.036278    0.042651     0.17257    0.029658    0.054019
0.0059473   -0.010293   -0.035628    0.038428     0.22454   0.0065969    0.055318
-0.0041217  -0.0063954   -0.025559    0.029983     0.27749   -0.017114    0.049472
-0.012242  -0.0024977  -0.0089938    0.014392     0.31874   -0.038876    0.039402
-0.01549 -0.00022403   0.0088706  -0.0054209      0.3327   -0.054142    0.027709
-0.017114   0.0023744    0.020239   -0.024585     0.30315   -0.061937    0.013743
-0.020362   0.0039985    0.020239   -0.039851     0.23234   -0.063886  0.00042559
-0.023935   0.0056225     0.01017   -0.050569      0.1349   -0.068434   -0.011592
-0.02361   0.0046481  -0.0031473   -0.052843    0.030308   -0.079152   -0.017439
-0.019063   0.0046481   -0.012892   -0.042774   -0.070707   -0.092794    -0.01484
-0.010293   0.0078962   -0.012242   -0.021986    -0.16263    -0.10319  -0.0099683
-0.00054884    0.010819  -0.0037969   0.0020496     -0.2487    -0.10579   -0.007045
0.0078962    0.011794    0.008221    0.024461    -0.33478    -0.10026  -0.0076946
0.015367    0.011794    0.023162    0.038753    -0.42117   -0.087597   -0.010293
0.020564    0.014068     0.03518    0.041027     -0.4988   -0.072981   -0.014191
0.021538     0.01829    0.039078    0.031282    -0.56214   -0.060963   -0.021012
0.016666    0.021538    0.036804    0.016666    -0.60047   -0.054467   -0.026533
0.011794    0.022512    0.029333   0.0020496    -0.60437   -0.054792   -0.028807
0.0072465    0.019589    0.018615  -0.0083442    -0.57676   -0.057065   -0.022636
0.0036737     0.01764   0.0049729  -0.0099683    -0.52381   -0.058689  -0.0096434
0.00042559    0.016991  -0.0060706  -0.0057458    -0.44878   -0.060638   0.0052977
-0.0021729    0.016991  -0.0099683  0.00010078    -0.36109   -0.062587    0.019264
-0.0047713    0.014068   -0.012892   0.0023744    -0.26884   -0.063886     0.02706
-0.0089938   0.0085458   -0.015815  0.00010078    -0.17692   -0.062912    0.028034
-0.011917   0.0010752   -0.018738  -0.0011985   -0.083375   -0.057065    0.024137
-0.01484  -0.0041217   -0.018738  0.00042559   0.0078962   -0.047971    0.019914
-0.016464  -0.0047713   -0.012892   0.0010752    0.088124   -0.039526    0.015367
-0.016789  -0.0047713  -0.0041217  -0.0021729     0.14984   -0.034329    0.013743
-0.017114  -0.0083442   0.0023744   -0.011267     0.18362   -0.031406    0.011794
-0.020362   -0.013216  -0.0011985   -0.023935     0.19109   -0.030431     0.01017
-0.02426   -0.017764   -0.014191   -0.038227     0.18394   -0.033354   0.0043233
-0.028157   -0.019712    -0.03238    -0.04862     0.16933   -0.040175  -0.0050961
-0.027183   -0.019063   -0.047646   -0.055766     0.15698   -0.049595   -0.013866
-0.025234    -0.01614   -0.053492   -0.060313     0.14886    -0.05739   -0.017114
-0.022961   -0.014516    -0.04927   -0.063886     0.15016   -0.056091   -0.017439
-0.020037   -0.014191   -0.042124   -0.068109     0.16121   -0.048945   -0.017114
-0.018088   -0.013216   -0.033679   -0.068434     0.17939   -0.039526   -0.015165
-0.014191   -0.010293    -0.02361   -0.065186     0.19921   -0.032705   -0.012567
-0.007045  -0.0073698   -0.016789   -0.059989     0.20603   -0.028157   -0.007045
0.00010078  -0.0060706   -0.013866   -0.052843     0.18914   -0.023285  -0.0011985
0.0039985  -0.0057458   -0.013866   -0.045372     0.14367   -0.019712   0.0056225
0.0033489  -0.0054209    -0.01549   -0.034329    0.066686   -0.017439    0.013418
0.00075039  -0.0057458   -0.018088   -0.020037   -0.029457   -0.018738    0.020564
-0.0015233  -0.0044465   -0.021986  -0.0047713    -0.11423    -0.02361    0.027709
-0.0034721  -0.0024977   -0.026533   0.0072465    -0.15873   -0.029132    0.033231
-0.0054209  -0.0041217    -0.03303    0.014392    -0.15808    -0.03173     0.03583
-0.010618  -0.0099683   -0.039201    0.019589    -0.12787   -0.031081    0.031607
-0.016789   -0.016464   -0.044723    0.025761   -0.086298   -0.028157    0.020564
-0.018088   -0.021012   -0.051544    0.031932   -0.043099   -0.020037   0.0085458
-0.01484   -0.022961   -0.059664    0.034855  0.00075039   -0.007045  -0.0028225
-0.0083442   -0.020687   -0.061613    0.036154    0.041351    0.009845  -0.0067202
-0.00087364   -0.017764   -0.054467     0.03583    0.072533    0.025436  -0.0031473
0.003024   -0.013866   -0.041799    0.033556     0.09397    0.036804   0.0049729
0.0049729   -0.011267   -0.023935    0.026735    0.099167     0.04395    0.010819
0.0023744  -0.0076946  -0.0047713    0.022188    0.089098    0.051745    0.011469
-0.0034721  -0.0021729    0.010819    0.021213    0.066037    0.057917   0.0091954
-0.0073698   0.0069217    0.020239    0.024137    0.036804    0.059865    0.011144
-0.0047713    0.015042    0.021538    0.029333    0.012768    0.060515    0.019589
0.0039985    0.016666    0.017965    0.037129  -0.0015233    0.059216    0.030633
0.015367    0.013093    0.012443    0.044275  -0.0047713    0.054344    0.038753
0.026735   0.0095202   0.0072465    0.050446   0.0020496    0.042651    0.041676
0.037778   0.0091954   0.0052977    0.054019     0.01764    0.028684    0.037778
0.043625    0.010819    0.008221    0.057592     0.03583    0.014717    0.028684
0.039078    0.014068    0.014392    0.063438    0.048172   0.0033489    0.018615
0.028684    0.016016     0.01894     0.06896    0.053694  -0.0031473    0.011144
0.014392    0.014068    0.017965     0.06961    0.051745  -0.0037969   0.0085458
0.00010078   0.0069217    0.012443    0.061489    0.048822 -0.00054884    0.010495
-0.011917 -0.00054884    0.008221    0.043625    0.048172   0.0052977     0.01764
-0.018413  -0.0047713    0.010495    0.021213    0.048497    0.012119    0.027385
-0.017114  -0.0050961    0.016341   0.0065969     0.05142    0.019589     0.03518
-0.0089938  -0.0015233    0.019914   0.0046481    0.054668    0.024137    0.040052
0.0017248   0.0049729    0.016341    0.016666    0.058891    0.021538    0.040377
0.009845    0.012119   0.0072465     0.03518    0.061165    0.012119    0.037454
0.015692    0.019589  -0.0060706    0.053369    0.062139  -0.0024977    0.032257
0.020239    0.022188    -0.01614    0.063113    0.058566   -0.020037    0.026735
0.019914    0.019589   -0.020687    0.062464     0.05207   -0.035628    0.021538
0.016666    0.012768   -0.016789    0.053369    0.043625   -0.052843    0.013743
0.012768   0.0052977  -0.0076946     0.04395    0.033556   -0.070058   0.0033489
0.012443 -0.00054884   0.0020496    0.038103    0.021863   -0.082725  -0.0047713
0.013418  -0.0063954     0.01017    0.038428    0.010495   -0.085648  -0.0096434
0.012768   -0.010618    0.016016    0.040377   0.0039985    -0.08305   -0.010293
0.0095202   -0.012892     0.01829    0.041676   0.0033489   -0.077528   -0.008669
0.0039985   -0.011592    0.016341    0.038428   0.0043233   -0.071357  -0.0044465
-0.00087364  -0.0080194    0.010495    0.031607   0.0059473    -0.06616 -0.00087364
-0.00022403  -0.0031473   0.0023744    0.024786   0.0056225   -0.055766  -0.0028225
0.0039985      0.0014  -0.0050961    0.019264   0.0039985   -0.040825  -0.0089938
0.008221   0.0052977  -0.0080194    0.014717 -0.00087364   -0.024585    -0.01484
0.010495   0.0072465  -0.0076946   0.0095202   -0.012892   -0.010943   -0.016789
0.0091954   0.0046481   -0.007045   0.0026992   -0.029457  -0.0024977   -0.014516
0.0069217  0.00010078  -0.0057458  -0.0041217   -0.040825   0.0056225   -0.011917
0.0020496  -0.0028225  -0.0034721   -0.014191   -0.045047    0.016016   -0.013541
-0.0021729  -0.0063954  -0.0011985   -0.024909   -0.040825    0.028034   -0.020687
-0.0015233  -0.0073698 -0.00054884    -0.03173    -0.03303    0.042651   -0.027183
0.0020496  -0.0067202  -0.0031473   -0.033354   -0.027833    0.063438   -0.027833
0.0075714  -0.0050961   -0.008669   -0.027183   -0.024585    0.084226   -0.023285
0.01017  -0.0021729   -0.013216   -0.013866   -0.022311     0.10047   -0.018738
0.012768   0.0020496   -0.015165   0.0017248   -0.023935     0.10761   -0.019063
0.01764   0.0056225  -0.0089938    0.011794    -0.03173     0.10436   -0.022961
0.020564    0.009845   0.0017248    0.013743   -0.044073    0.096244   -0.026858
0.019589    0.011469    0.011794   0.0091954   -0.056416      0.0865   -0.027833
0.016666    0.011469     0.01764  0.00075039   -0.069408    0.076755   -0.027508
0.012443    0.012119    0.015042  -0.0076946   -0.081101    0.065712   -0.025559
0.0075714    0.013743   0.0023744   -0.013866   -0.087597    0.056942   -0.019712
0.003024    0.015042    -0.01549   -0.017764   -0.085973    0.055968   -0.010943
0.0052977    0.013418   -0.030106   -0.020687   -0.079802    0.062464  -0.0050961
0.011469    0.008221   -0.036927   -0.022311   -0.067459     0.06961  -0.0018481
0.01894      0.0014   -0.034654   -0.022311   -0.051868    0.074157  0.00010078
0.023162  -0.0073698   -0.027833   -0.020362   -0.034004    0.075456 -0.00022403
0.025111    -0.01614   -0.018738    -0.01614   -0.017439    0.072208  -0.0050961
0.026735   -0.025884   -0.010943   -0.014191 -0.00022403    0.062464   -0.010943
0.02706   -0.034004   -0.007045   -0.012892    0.020239    0.047523   -0.014191
0.028034   -0.037902  -0.0096434  -0.0093186    0.039402     0.02706   -0.011592
0.028034   -0.035628    -0.01614  -0.0034721    0.049147   0.0039985  -0.0047713
0.022188   -0.024909   -0.021661   0.0020496      0.0433   -0.018413  -0.0018481
0.014392  -0.0080194   -0.021337   0.0046481    0.027709   -0.034978  -0.0083442
0.0075714    0.010819    -0.01614  0.00075039   0.0075714   -0.046671   -0.020687
0.0075714    0.024137   -0.010293  -0.0093186   -0.010618   -0.055766   -0.034329
0.017316    0.029009  -0.0099683   -0.021012   -0.022961   -0.069083   -0.043748
0.029983    0.025111   -0.010943   -0.029457   -0.031406   -0.084999   -0.044723
0.038428    0.017965   -0.011592   -0.031081   -0.036278   -0.098316     -0.0405
0.036479    0.009845   -0.013541   -0.024909   -0.036927    -0.10254    -0.03238
0.026085   0.0036737    -0.01614   -0.015815   -0.033679   -0.097991   -0.022636
0.010819   0.0010752   -0.019388  -0.0093186   -0.031406   -0.086623   -0.017114
-0.0041217      0.0014   -0.019712  -0.0093186   -0.030756   -0.072981    -0.01614
-0.01549      0.0014   -0.015815   -0.011917   -0.031406   -0.063237   -0.017114
-0.022961  0.00042559   -0.010293   -0.013216   -0.037577   -0.060313   -0.016464
-0.027833  0.00010078  -0.0060706   -0.014516   -0.048296   -0.064536   -0.015165
-0.034329  0.00042559   -0.007045   -0.016789   -0.060963   -0.076229   -0.013866
-0.044398  -0.0011985   -0.011592   -0.020362   -0.068758   -0.089221   -0.016464
-0.051219  -0.0044465   -0.019388   -0.025559   -0.076554    -0.10189   -0.020687
-0.052193  -0.0063954   -0.022961   -0.028482   -0.082725    -0.10903    -0.02426
-0.04862  -0.0076946   -0.018088   -0.028807     -0.0837    -0.10968   -0.021661
-0.043423   -0.010293  -0.0044465   -0.025884   -0.079152    -0.10351   -0.013541
-0.039526   -0.012892    0.015042   -0.020037   -0.067784   -0.092469  -0.0080194
-0.040825  -0.0099683    0.030957   -0.008669   -0.058365   -0.077853   -0.011267
-0.044398      0.0014    0.035505    0.003024   -0.057065   -0.064211   -0.021986
-0.049595    0.017965    0.030957    0.011794   -0.061937   -0.055116    -0.03303
-0.051868    0.031282    0.021538    0.012768   -0.069408   -0.051544   -0.040825
-0.052843    0.038428    0.014717    0.008221   -0.073631   -0.052518   -0.043748
-0.04862    0.043625    0.010495   0.0017248   -0.075904   -0.056741     -0.0405
-0.040175    0.046223    0.008221  -0.0028225   -0.078827   -0.060963   -0.034004
-0.030431    0.047523   0.0078962  -0.0057458   -0.081751   -0.064211   -0.027183
-0.02361    0.045249   0.0091954  -0.0093186   -0.082076   -0.065186   -0.023285
-0.02361    0.039078    0.010495   -0.010618   -0.080127   -0.063561   -0.022961
-0.030431    0.032906   0.0095202  -0.0089938   -0.076229   -0.060313   -0.028157
-0.036927    0.029333   0.0069217  -0.0057458   -0.071682   -0.055441   -0.036927
-0.040175    0.026735   0.0039985  -0.0028225    -0.06681    -0.04992   -0.043423
-0.038876    0.022512   0.0026992 -0.00054884   -0.063561   -0.048296   -0.046996
-0.033354    0.016666   0.0026992   0.0010752   -0.063886   -0.051219   -0.047646
-0.025234    0.010495   0.0056225   0.0026992   -0.068434   -0.054142   -0.046996
-0.016464   0.0043233    0.010495   0.0059473   -0.075904   -0.054792   -0.045372
-0.012892  -0.0018481    0.012443   0.0078962   -0.081101   -0.055116   -0.039851
-0.01484  -0.0060706    0.010495   0.0059473    -0.08305   -0.059014   -0.026533
-0.021337  -0.0076946    0.003024  0.00010078   -0.079152    -0.06551  -0.0099683
-0.028482  -0.0080194  -0.0028225  -0.0063954   -0.070382   -0.068434   0.0059473
-0.035953   -0.011267  -0.0015233  -0.0083442   -0.055116   -0.062912     0.01764
-0.039526   -0.014191   0.0033489  -0.0041217   -0.035628   -0.048296    0.024786
-0.037902   -0.017439   0.0088706   0.0056225   -0.015165   -0.024585    0.025761
-0.032705   -0.016464    0.010819    0.016991   0.0065969 -0.00054884    0.024137
-0.026533  -0.0093186   0.0049729    0.028359    0.029983    0.014068    0.022512
-0.021986  0.00010078  -0.0063954     0.03518    0.045249    0.014717    0.022188
-0.022636   0.0078962   -0.016789    0.033231    0.048822   0.0072465     0.01894
-0.02426    0.013743   -0.020687    0.023487    0.037778  -0.0011985    0.010495
-0.026209    0.015692   -0.020687   0.0088706   0.0091954   -0.007045 -0.00022403
-0.027833    0.015042    -0.01614  -0.0060706   -0.031406  -0.0099683  -0.0080194
-0.026533    0.013743  -0.0096434   -0.018088   -0.076229   -0.010618  -0.0096434
-0.023285    0.011794  -0.0034721   -0.027183    -0.12235   -0.010293   -0.007045
-0.019712   0.0078962 -0.00054884   -0.029457    -0.16588  -0.0080194  -0.0054209
-0.014191  0.00075039  -0.0041217   -0.024585    -0.19706  -0.0044465  -0.0037969
-0.011592  -0.0089938   -0.014191    -0.01614    -0.20745  -0.0024977  -0.0021729
-0.011267   -0.019712   -0.029782  -0.0076946    -0.19283  -0.0054209 -0.00054884
-0.010943   -0.027183   -0.045047  -0.0024977    -0.15613  -0.0093186   0.0010752
-0.008669   -0.029132   -0.054142 -0.00022403    -0.10741   -0.012242   0.0062721
-0.0054209    -0.02426   -0.053492   0.0033489   -0.056416   -0.011267    0.014392
-0.0011985    -0.01484   -0.043099     0.01017   -0.011267  -0.0041217     0.01894
0.0052977  -0.0054209   -0.026533    0.017316    0.025436   0.0085458    0.022512
0.013743  -0.0021729   -0.011267    0.022837    0.054019    0.019914    0.023162
0.021538  -0.0031473  0.00042559    0.024461    0.079029    0.022512    0.020564
0.023162  -0.0073698   0.0069217    0.022837     0.10112     0.01764    0.018615
0.020239   -0.014191   0.0088706     0.01894     0.11866   0.0069217     0.01894
0.014068   -0.018413   0.0078962    0.013743     0.13327  -0.0057458    0.021213
0.0091954   -0.019712   0.0039985   0.0088706     0.14821   -0.013866    0.019589
0.0052977    -0.01614  0.00042559   0.0059473     0.16121   -0.017439    0.013743
0.0010752  -0.0089938 -0.00054884  -0.0011985     0.17095   -0.018088   0.0088706
-0.0034721   0.0020496  0.00075039   -0.011592     0.17322   -0.016789    0.011144
-0.010943    0.011469   0.0017248   -0.021337     0.16868   -0.011267    0.016341
-0.018413    0.016341   0.0023744    -0.02361     0.15763  -0.0057458    0.019264
-0.021661    0.015692   0.0017248   -0.020687     0.14561   -0.008669    0.016991
-0.020687    0.011469  0.00010078   -0.015165      0.1349   -0.018738   0.0078962
-0.019063   0.0088706  -0.0028225   -0.012567     0.12548   -0.033679 -0.00054884
-0.019712   0.0075714  -0.0044465   -0.013216     0.11476   -0.044073  -0.0011985
-0.022311   0.0078962  -0.0034721   -0.012242     0.10014    -0.04992   0.0075714
-0.022636   0.0072465  0.00010078  -0.0076946    0.080653   -0.052518    0.021213
-0.017764   0.0056225   0.0020496 -0.00087364     0.05272   -0.052193    0.032906
-0.0080194   0.0033489   0.0020496   0.0033489    0.009845   -0.050569    0.037129
0.003024   0.0020496  0.00042559  0.00042559   -0.051868   -0.050244    0.030957
0.010819 -0.00022403  -0.0047713  -0.0089938    -0.12333   -0.045372    0.020239
0.0091954  -0.0034721   -0.013541   -0.021337    -0.19024   -0.036278    0.013743
-0.00022403   -0.010618   -0.025234   -0.034329    -0.23181   -0.024585    0.013418
-0.012242   -0.017439   -0.032705   -0.044398    -0.23831   -0.013866     0.01764
-0.021012   -0.022636   -0.033354    -0.04992    -0.21005  -0.0057458    0.022188
-0.021012   -0.025234   -0.025234   -0.050244    -0.15938  0.00042559    0.024786
-0.012892   -0.025884    -0.01614   -0.045697    -0.10481   0.0043233    0.023812
-0.0018481   -0.025559   -0.014191   -0.036927   -0.064211   0.0023744    0.016991
0.0069217   -0.021337   -0.020037   -0.026858   -0.044398  -0.0034721    0.009845
0.010495   -0.012892   -0.028807   -0.017439     -0.0405  -0.0083442   0.0010752
0.013093  -0.0024977   -0.036927  -0.0099683   -0.043748   -0.008669   -0.010943
0.015042   0.0046481   -0.042124  -0.0096434   -0.045697  -0.0034721   -0.021986
0.014068   0.0085458   -0.042449    -0.01614   -0.038227   0.0062721   -0.024585
0.0075714   0.0072465   -0.040825   -0.026858   -0.019063    0.011469   -0.016789
-0.0047713   0.0043233   -0.038876   -0.033679   0.0039985     0.01017  -0.0031473
-0.016789  -0.0021729   -0.034978   -0.031406    0.023162   0.0085458   0.0078962
-0.021337  -0.0060706   -0.031406   -0.023285    0.033556   0.0091954    0.011469
-0.018088  -0.0080194   -0.029782   -0.011592    0.036154    0.013418   0.0088706
-0.0047713  -0.0041217   -0.029132      0.0014    0.032906    0.021863   0.0043233
0.014068   0.0039985   -0.028157    0.013743    0.028034     0.03518    0.003024
0.033881    0.011794   -0.026858    0.023162    0.027709    0.051745   0.0078962
0.045899    0.014068   -0.021986    0.030633    0.032906     0.06831     0.01764
0.048497   0.0088706   -0.015165    0.038103    0.038753    0.079679    0.029658
0.044599  0.00042559  -0.0093186    0.047847    0.041027    0.084551    0.038428
0.039078  -0.0096434  -0.0044465    0.054668    0.036154    0.084551    0.041351
0.03518   -0.019712  -0.0034721    0.054344    0.027709    0.079029    0.040377
0.032906   -0.030106  -0.0018481    0.049796    0.021538    0.069934    0.037778
0.029983   -0.034004   0.0010752    0.044275    0.019264    0.057267    0.036479
0.026085   -0.034004   0.0036737    0.042975    0.021213      0.0433    0.035505
0.021538   -0.028807   0.0059473    0.046223    0.026085    0.029333    0.032257
0.01764   -0.022636   0.0069217    0.050771    0.033881    0.015692    0.025436
0.014717   -0.017439   0.0043233     0.05142    0.039402   0.0043233    0.019264
0.014717   -0.016464  -0.0018481    0.050446    0.041351  -0.0083442    0.016666
0.017965   -0.015815  -0.0083442    0.048822    0.039078   -0.020037    0.016016
0.023487   -0.013216   -0.010618    0.045574    0.031932   -0.027833    0.014392
0.02706   -0.010293  -0.0089938    0.039727    0.022188   -0.026533    0.011794
0.025761  -0.0093186  -0.0063954    0.029658     0.01017   -0.018738    0.010819
0.020888  -0.0093186  -0.0054209    0.017965  -0.0021729   -0.008669   0.0095202
0.013418  -0.0073698  -0.0067202   0.0069217  -0.0096434 -0.00087364   0.0072465
0.0072465  -0.0037969  -0.0041217 -0.00054884   -0.010293   0.0010752   0.0017248
0.0020496  -0.0024977   0.0017248  0.00042559   -0.007045  -0.0031473  -0.0031473
-0.0063954  -0.0063954   0.0072465   0.0078962  -0.0031473   -0.010943  -0.0083442
-0.019063  -0.0099683   0.0072465    0.020239  -0.0024977   -0.018413   -0.012892
-0.032055  -0.0093186   0.0033489    0.032582  -0.0047713   -0.022961   -0.016464
-0.039851  -0.0018481  -0.0011985    0.042975   -0.011267   -0.023935   -0.020037
-0.039201   0.0085458  -0.0041217    0.048822   -0.021012   -0.025234   -0.020362
-0.033679     0.01764  -0.0037969    0.050446   -0.034978   -0.023285   -0.020037
-0.027183    0.017965 -0.00087364    0.051096    -0.04927   -0.020037   -0.020687
-0.025234    0.010495   0.0020496    0.050446   -0.062262   -0.015165   -0.021012
-0.028807  -0.0024977   0.0065969     0.04395   -0.070707   -0.010293   -0.023935
-0.034329   -0.016464    0.014068    0.032582   -0.072331  -0.0089938   -0.030106
-0.039526   -0.027183    0.023487    0.016341   -0.068758   -0.013216   -0.033679
-0.041799   -0.033354    0.029333  -0.0015233   -0.060638   -0.022961   -0.033679
-0.039851    -0.03173    0.029333   -0.013216   -0.048296   -0.031081    -0.03173
-0.031406   -0.025559    0.024137   -0.013541   -0.034978   -0.035303   -0.026209
-0.021661   -0.018413    0.014068  -0.0057458   -0.024585   -0.037252   -0.020687
-0.012892   -0.014191   0.0059473   0.0020496   -0.016464   -0.037252   -0.020362
-0.0089938   -0.011592    0.003024   0.0085458  -0.0083442   -0.029132   -0.027183
-0.0076946  -0.0073698   0.0020496    0.015042   0.0059473    -0.01484    -0.03303
-0.0060706  -0.0021729      0.0014    0.023162    0.025761      0.0014   -0.034654
-0.0024977   0.0049729   0.0010752    0.030957    0.050121    0.014717    -0.03173
0.0059473   0.0085458  0.00010078    0.033556     0.07773    0.023162   -0.026209
0.011794   0.0085458  0.00075039    0.032582     0.11606    0.025436   -0.019063
0.009845   0.0049729   0.0010752    0.030957     0.16673    0.020564    -0.01614
0.0046481   0.0023744   0.0020496    0.028034     0.22129    0.011469   -0.019388
-0.00054884      0.0014   0.0017248    0.025436     0.26547 -0.00087364   -0.027833
0.0010752   0.0020496  -0.0028225    0.023162     0.28333   -0.012242   -0.038551
0.0062721   0.0020496   -0.010618    0.022512     0.25605   -0.021337   -0.045047
0.0095202   0.0017248   -0.018413     0.01829       0.169   -0.028482   -0.047971
0.0085458   0.0026992   -0.025234   0.0062721    0.029009   -0.035953   -0.048296
0.0036737   0.0065969   -0.030431   -0.011267    -0.13404   -0.043099   -0.045372
-0.0018481    0.011469   -0.035628   -0.029457    -0.27306    -0.04927   -0.039851
-0.0028225    0.015692   -0.036278   -0.039201    -0.35199   -0.055441   -0.034978
0.0010752     0.01894   -0.032705   -0.039851    -0.35784   -0.060313   -0.030431
0.0059473    0.019589   -0.027833   -0.033679     -0.2971   -0.062587   -0.024909
0.0065969    0.018615   -0.026209   -0.024585    -0.19543   -0.060963    -0.01614
0.0023744    0.016666   -0.027183    -0.01484   -0.086298   -0.057065  -0.0021729
-0.0057458    0.013418   -0.028807   -0.008669   0.0049729    -0.04992     0.01017
-0.012892    0.009845   -0.028157  -0.0037969    0.063438   -0.042449    0.015367
-0.018088   0.0065969   -0.026209  -0.0011985    0.083901   -0.034004    0.014392
-0.021012   0.0062721   -0.024909 -0.00087364    0.070259   -0.024585    0.010819
-0.021337   0.0069217   -0.023935  -0.0034721    0.033881   -0.014191   0.0052977
-0.019712    0.009845   -0.023935  -0.0060706   -0.018413  -0.0073698 -0.00022403
-0.018738    0.016016   -0.024585  -0.0076946   -0.087272  -0.0057458  -0.0057458
-0.017439    0.023812   -0.026533  -0.0096434     -0.1714   -0.011917  -0.0099683
-0.017764    0.030633   -0.027508   -0.013541    -0.25747   -0.022961   -0.012242
-0.019388    0.032906   -0.028807   -0.017114    -0.33185    -0.03173   -0.011267
-0.020362    0.033881   -0.030431   -0.015815    -0.37765   -0.037577  -0.0073698
-0.016789    0.033231   -0.034329   -0.012242    -0.38934   -0.042124  -0.0021729
-0.0076946    0.031607   -0.036278   -0.010293    -0.37538   -0.044073  0.00075039
0.0039985    0.028359   -0.035303   -0.011592    -0.33965   -0.046996   0.0023744
0.013418    0.023487   -0.034978   -0.013216    -0.28963   -0.053168      0.0014
0.01829    0.016991   -0.038227   -0.010618    -0.23149   -0.061613  -0.0015233
0.01894    0.011794   -0.039851  -0.0041217    -0.17237   -0.068434  -0.0031473
0.015367   0.0091954   -0.038551   0.0023744    -0.11715   -0.066485 -0.00054884
0.008221   0.0075714    -0.03303   0.0026992   -0.071357   -0.053817   0.0075714
0.00010078   0.0059473   -0.025234  -0.0015233   -0.034329   -0.034654    0.016991
-0.0067202    0.003024   -0.013541  -0.0057458  -0.0037969    -0.01549    0.020564
-0.0096434  0.00075039   0.0033489  -0.0063954    0.020564  -0.0047713    0.011794
-0.0076946  0.00010078    0.022188  -0.0050961    0.033556  -0.0015233  -0.0047713
-0.0037969    0.003024    0.036154  -0.0021729    0.031932  -0.0041217   -0.018413
-0.0015233   0.0088706    0.041351   0.0010752    0.021538  -0.0076946    -0.02361
0.00075039    0.015042    0.038428   0.0039985   0.0085458   -0.010618    -0.02426
0.0017248     0.01764    0.030633   0.0039985 -0.00022403   -0.013541   -0.021986
0.0010752    0.015367    0.019589   0.0010752  -0.0054209   -0.017764   -0.022311
-0.0028225     0.01017    0.010495  -0.0028225  -0.0083442   -0.018738   -0.025884
-0.0076946   0.0043233    0.010819  -0.0054209   -0.011267   -0.017439    -0.03303
-0.013216 -0.00087364    0.016991  -0.0057458   -0.010943   -0.012242   -0.037902
-0.01614  -0.0060706    0.025111  -0.0054209  -0.0057458  -0.0047713   -0.036602
-0.017764   -0.010618    0.034855  -0.0050961   0.0056225   0.0026992   -0.031081
-0.018413   -0.011917    0.041676  -0.0037969    0.019914   0.0069217   -0.021986
-0.01549  -0.0089938    0.044924  -0.0041217    0.033556    0.011794   -0.012242
-0.0041217 -0.00054884    0.040377  -0.0054209    0.045899    0.016016  -0.0021729
0.01017    0.013093    0.027385  -0.0054209    0.056617    0.015692   0.0075714
0.023487    0.028034   0.0091954   -0.007045    0.072858   0.0072465    0.014068
0.028034    0.038428  -0.0099683   -0.011592    0.093645  -0.0060706    0.016341
0.023487    0.041351   -0.024909   -0.016464     0.11833   -0.016789    0.015042
0.016666    0.036479   -0.030756   -0.021012     0.14659   -0.018738    0.015042
0.014392    0.024461   -0.029132   -0.025234     0.17615   -0.012892    0.019589
0.016666    0.012443    -0.02361   -0.029132     0.19856  -0.0041217     0.02641
0.022837   0.0049729   -0.021986    -0.03173      0.2096   0.0039985    0.029983
0.030633   0.0017248   -0.023935   -0.029457      0.2083    0.008221    0.025436
0.032906   0.0023744   -0.028807   -0.022961     0.19921    0.011794    0.016341
0.031282      0.0014   -0.029457   -0.014516     0.19271    0.016991   0.0088706
0.029983 -0.00087364   -0.023935  -0.0054209     0.19336    0.022188   0.0091954
0.02706  -0.0015233   -0.015815 -0.00022403     0.19986    0.023162    0.016991
0.021863  -0.0015233   -0.011917   0.0010752     0.20538    0.019264    0.026735
0.011144  -0.0028225   -0.013866  -0.0015233     0.20376    0.013743    0.033231
-0.0021729  -0.0047713   -0.016789  -0.0050961     0.19499   0.0069217    0.035505
-0.01549  -0.0060706   -0.017114  -0.0076946     0.18037  -0.0011985    0.034206
-0.027183   -0.012242   -0.016464   -0.012242     0.16348   -0.010618    0.026085
-0.034329   -0.024909    -0.01614   -0.017764     0.14432   -0.020362    0.013418
-0.037902   -0.039526   -0.015815   -0.023935     0.12483   -0.030106   0.0026992
-0.042774   -0.050244   -0.014516   -0.026209     0.10112   -0.037902  -0.0011985
-0.04992   -0.054792   -0.010618   -0.020687    0.065387   -0.041799      0.0014
-0.055441   -0.052518  -0.0083442   -0.011267    0.019264   -0.036927   0.0069217
-0.057715   -0.046022  -0.0063954   -0.007045   -0.026209   -0.026533     0.01017
-0.052843   -0.035953  -0.0024977  -0.0076946   -0.060638   -0.014516   0.0091954
-0.039526   -0.026858   0.0017248  -0.0099683   -0.076229  -0.0044465    0.008221
-0.021661   -0.021661   0.0036737  -0.0089938   -0.073955   0.0049729    0.010495
-0.0044465   -0.020687   0.0033489 -0.00022403   -0.062587    0.015042    0.016016
0.0062721   -0.023285   0.0026992    0.012443   -0.051219    0.021863    0.022188
0.009845   -0.029457 -0.00087364    0.023487   -0.045372    0.028359    0.027709
0.0065969   -0.033679  -0.0054209    0.028359   -0.042124    0.031932    0.030633
0.00075039   -0.035303  -0.0054209    0.026085   -0.041799    0.031282    0.030633
-0.0054209    -0.03303  0.00010078    0.019589   -0.045697    0.026085    0.022512
-0.0093186   -0.029132   0.0065969    0.013093   -0.057715    0.013418    0.011794
-0.010618   -0.024585   0.0085458   0.0069217   -0.072656  -0.0054209   0.0036737
-0.011267   -0.018413   0.0046481   0.0017248   -0.085324   -0.022961 -0.00054884
-0.014191   -0.012892  -0.0011985  -0.0041217   -0.093119   -0.034329  -0.0047713
-0.019388  -0.0099683  -0.0067202   -0.012242   -0.097341   -0.038551  -0.0083442
-0.025234   -0.007045   -0.008669   -0.018738    -0.10156   -0.038876   -0.012567
-0.028482  -0.0063954  -0.0089938   -0.021012    -0.10871   -0.035953   -0.017114
-0.028157  -0.0047713    -0.01484   -0.019388    -0.11196   -0.030756   -0.018413
-0.02361  -0.0034721   -0.026533   -0.017764    -0.10838   -0.024585   -0.017114
-0.016464  -0.0080194   -0.037252   -0.015165   -0.093769   -0.021337    -0.01484
-0.011592   -0.014191   -0.042124  -0.0096434   -0.069083   -0.023935  -0.0099683
-0.0076946   -0.019388   -0.039201      0.0014   -0.040175   -0.031406  -0.0024977
-0.0076946   -0.021986    -0.03173    0.015692   -0.019063   -0.040175   0.0065969
-0.010618   -0.021337   -0.023285     0.02641   -0.014516   -0.045697    0.016016
-0.01614   -0.019063   -0.017764    0.029333   -0.024909   -0.046347    0.025111
-0.021012   -0.017439   -0.012892    0.029009   -0.043748   -0.043748    0.029983
-0.021012   -0.015165  -0.0057458    0.023487   -0.059014   -0.041475    0.026735
-0.019063   -0.010618    0.003024    0.016991   -0.064536   -0.037902     0.01764
-0.017114  -0.0063954   0.0065969    0.012443   -0.059664   -0.034978   0.0091954
-0.01549  -0.0015233   0.0010752    0.010495   -0.047646    -0.03303   0.0056225
-0.013541   0.0017248  -0.0099683    0.012119   -0.036278   -0.031081   0.0062721
-0.0093186   0.0049729   -0.017439    0.018615   -0.029457   -0.028482   0.0065969
-0.0034721   0.0065969   -0.018738    0.028034   -0.027183   -0.024585   0.0052977
-0.00054884   0.0065969    -0.01484    0.033231   -0.029457   -0.022636      0.0014
-0.0050961   0.0072465   -0.010618    0.032582   -0.034978   -0.023285  -0.0037969
-0.0099683   0.0049729  -0.0093186    0.028359   -0.042124   -0.030106  -0.0093186
-0.010943   0.0023744  -0.0096434    0.024461   -0.050894   -0.038876  -0.0089938
-0.0028225   0.0020496   -0.010943    0.024786   -0.060638   -0.043748  -0.0031473
0.0078962   0.0010752   -0.010943    0.027709   -0.071032   -0.044398   0.0059473
0.016666  -0.0015233   -0.013216    0.030633     -0.0824   -0.047646    0.012119
0.022512  -0.0037969   -0.015815    0.028034    -0.09929   -0.052843    0.012768
0.026735  -0.0024977   -0.014191    0.019264    -0.11975   -0.057715   0.0052977
0.031282   0.0036737  -0.0050961    0.011469    -0.13567   -0.056091  -0.0073698
0.033556    0.012443   0.0065969   0.0085458    -0.14184   -0.050569   -0.021337
