-0.0060706    -0.01484   -0.055116   -0.014516   -0.020687   -0.054467   0.0091954
-0.0067202    -0.02426   -0.046347   -0.015165   -0.029457   -0.055766   0.0043233
-0.010618   -0.029782   -0.038551   -0.018088   -0.034004   -0.056416   0.0017248
-0.01614   -0.028807   -0.033679   -0.022636   -0.031406   -0.057715  -0.0018481
-0.019712   -0.022311    -0.03173   -0.026858    -0.02426   -0.061937  -0.0037969
-0.019388    -0.01484   -0.027833   -0.028482   -0.019063    -0.06616  -0.0031473
-0.01549   -0.013216   -0.019388   -0.025234   -0.020687    -0.06616  -0.0015233
-0.011267   -0.015165  -0.0099683   -0.016464   -0.029132   -0.059339  -0.0031473
-0.010293    -0.01614  -0.0044465  -0.0037969     -0.0405   -0.045047  -0.0057458
-0.010943   -0.014191  -0.0034721   0.0095202    -0.04927   -0.026209  -0.0076946
-0.0096434  -0.0067202   -0.007045    0.018615   -0.051868  -0.0099683  -0.0060706
-0.0089938   0.0043233   -0.011592    0.026085   -0.047321 -0.00054884  -0.0028225
-0.010943    0.014068   -0.017114    0.029333   -0.035953   0.0033489  -0.0037969
-0.012892    0.019264   -0.025884    0.030633   -0.027508   0.0059473  -0.0093186
-0.012242    0.020239   -0.034329    0.029658   -0.024585     0.01017   -0.015815
-0.0080194    0.020888   -0.038551    0.026735   -0.025884     0.01017   -0.020362
-0.0018481    0.023162   -0.037902    0.019264   -0.027508   0.0046481   -0.019388
0.0056225    0.025436   -0.035303   0.0059473   -0.027833  -0.0041217   -0.018088
0.0078962    0.025436   -0.032705   -0.013216   -0.029132   -0.011267    -0.01614
0.0052977    0.023812   -0.030106   -0.036278   -0.032705   -0.014516    -0.01484
-0.0028225    0.018615   -0.029132   -0.061613   -0.040175   -0.013866   -0.011267
-0.010293    0.009845   -0.028807   -0.086948   -0.048945   -0.012242  -0.0018481
-0.010293  -0.0011985   -0.027508    -0.10514   -0.054792   -0.014191    0.010495
-0.0028225   -0.010943   -0.026858    -0.10838   -0.058689   -0.021337    0.022188
0.0052977   -0.017764    -0.03303   -0.098316   -0.061288   -0.031406     0.02706
0.0091954   -0.016789   -0.047646   -0.079477   -0.066485    -0.04115    0.022188
0.0059473   -0.011592   -0.063237   -0.056091   -0.071682   -0.046996    0.015042
-0.0015233  -0.0034721   -0.070707   -0.024585    -0.07493   -0.047321   0.0085458
-0.0067202   0.0062721   -0.059339    0.016341   -0.067459   -0.039526    0.003024
-0.0063954    0.020239   -0.026533    0.063763   -0.041475   -0.029457   0.0010752
0.0017248    0.038428    0.019264     0.10859  -0.0015233   -0.019388   0.0036737
0.019589    0.055643    0.062139     0.13912    0.038753  -0.0093186    0.010495
0.040052    0.067661      0.0865     0.14724    0.062139   0.0023744    0.019264
0.052395    0.067986    0.087799     0.13392    0.061814    0.015042    0.023162
0.053694    0.058241    0.069934     0.10664    0.040377    0.022512    0.024137
0.046223    0.042975    0.046223    0.073507    0.010495    0.024137    0.023487
0.032906    0.026085    0.029658     0.04395   -0.013866    0.019264    0.019589
0.019264    0.012768    0.021213    0.024137   -0.020362    0.013093    0.013743
0.0085458   0.0036737    0.020239    0.011794   -0.014191   0.0095202   0.0088706
0.003024  -0.0028225    0.021213   0.0056225  -0.0080194    0.010495   0.0046481
0.0010752   -0.007045     0.01764   0.0059473  -0.0096434    0.011469  -0.0018481
0.0017248  -0.0096434   0.0088706    0.011469   -0.019063   0.0091954  -0.0093186
0.0014   -0.011917  -0.0028225    0.015042   -0.030106   0.0036737   -0.017764
-0.0021729  -0.0099683   -0.013866    0.011469   -0.036927 -0.00022403   -0.025884
-0.010618  -0.0073698   -0.022311 -0.00022403   -0.038551  0.00075039   -0.027833
-0.015165  -0.0011985   -0.024909   -0.012892   -0.038227   0.0033489   -0.022311
-0.014191   0.0078962   -0.023285   -0.021012   -0.035628   0.0072465   -0.013866
-0.008669    0.019264   -0.017764   -0.018738   -0.029132    0.011144  -0.0054209
-0.0080194    0.029333  -0.0089938  -0.0096434   -0.018413    0.014068  -0.0011985
-0.014191    0.033231  -0.0018481   0.0010752  -0.0024977    0.013743  0.00075039
-0.019712    0.030957   0.0033489    0.008221     0.01894     0.01017 -0.00022403
-0.020362     0.02706   0.0075714    0.014717    0.040702   0.0026992  -0.0028225
-0.017764    0.025436   0.0091954    0.020888    0.058891  -0.0067202  -0.0060706
-0.016789    0.025436   0.0075714    0.024461    0.073507   -0.012892  -0.0089938
-0.018088    0.026735   0.0017248     0.02706    0.086175    -0.01484  -0.0096434
-0.017439    0.024461  -0.0080194     0.02641    0.091047  -0.0083442  -0.0050961
-0.016789    0.014392   -0.017114    0.025111    0.080978   0.0020496   0.0033489
-0.017114 -0.00087364   -0.021986    0.024461    0.050121    0.010819    0.011144
-0.016464   -0.013866   -0.021986    0.023812  -0.0015233    0.014068    0.012443
-0.014516   -0.019063    -0.01614    0.020888   -0.067134    0.012119    0.011794
-0.0083442   -0.014191   -0.010943    0.013743    -0.13599    0.010495    0.012443
-0.00022403  -0.0057458  -0.0050961   0.0046481    -0.19608     0.01017    0.011469
0.01017  -0.0015233  -0.0018481  -0.0047713    -0.23376   0.0088706   0.0059473
0.01829  -0.0031473  -0.0037969  -0.0096434    -0.23993   0.0091954  -0.0037969
0.01829   -0.010618   -0.010293  -0.0076946     -0.2159   0.0088706   -0.014191
0.0085458   -0.017764    -0.01614  -0.0011985    -0.17432   0.0069217   -0.022961
-0.0015233   -0.022311   -0.021337   0.0062721    -0.12755   0.0020496   -0.025559
-0.0093186   -0.020687   -0.023285    0.008221   -0.088247  -0.0021729   -0.022636
-0.015815   -0.014516   -0.022636   0.0026992   -0.062262  -0.0044465   -0.015165
-0.022311  -0.0063954   -0.017114  -0.0037969   -0.048945   -0.007045  -0.0096434
-0.024585   0.0017248  -0.0060706  -0.0067202   -0.041799   -0.013216   -0.010943
-0.019712   0.0085458   0.0039985  -0.0034721    -0.03173   -0.017439   -0.014516
-0.0099683    0.011794   0.0049729   0.0020496   -0.015165   -0.019712    -0.01549
0.00042559    0.013093  -0.0015233   0.0069217   0.0020496   -0.020687   -0.011917
0.0052977    0.011144  -0.0096434    0.009845    0.015367   -0.018088  -0.0067202
0.0085458   0.0078962   -0.013541   0.0091954    0.023812   -0.010943  -0.0037969
0.009845   0.0046481  -0.0096434   0.0065969    0.025111  -0.0028225  -0.0047713
0.0065969   0.0017248  -0.0018481   0.0043233    0.018615      0.0014  -0.0083442
-0.0018481  -0.0018481   0.0069217   0.0043233    0.008221   0.0010752   -0.011267
-0.013866  -0.0044465   0.0088706   0.0062721      0.0014  -0.0031473   -0.012567
-0.026858  -0.0073698   0.0049729   0.0052977   0.0033489  -0.0083442   -0.010293
-0.032705   -0.011917 -0.00087364  -0.0015233   0.0065969   -0.011592  -0.0044465
-0.027833   -0.017764   -0.007045   -0.011267   0.0085458   -0.012567   0.0036737
-0.013216   -0.021986   -0.011592   -0.018088   0.0091954   -0.012242    0.009845
0.00042559   -0.022636  -0.0096434   -0.016464    0.010495   -0.013216    0.013418
0.0069217   -0.018413  -0.0018481  -0.0063954    0.013418   -0.015165    0.013093
0.012119   -0.014191   0.0046481   0.0026992    0.015692   -0.017114    0.011144
0.019589   -0.011592   0.0046481   0.0091954    0.016341   -0.013866   0.0091954
0.027385  -0.0057458 -0.00087364    0.012443    0.017965  -0.0060706     0.01017
0.032906   0.0017248  -0.0067202    0.011144    0.022512  0.00075039    0.012119
0.03518   0.0075714   -0.011592   0.0052977    0.026085   0.0017248    0.013093
0.03453    0.008221   -0.013866 -0.00054884     0.02706  0.00010078    0.011794
0.030957   0.0062721    -0.01484    0.003024    0.023812  -0.0015233   0.0091954
0.022188   0.0049729    -0.01484    0.016666    0.020239 -0.00054884   0.0046481
0.013418   0.0026992   -0.013866    0.032257    0.017316   0.0010752  -0.0011985
0.01017  -0.0024977   -0.012892    0.041676    0.013418    0.003024  -0.0073698
0.015042  -0.0093186   -0.011267    0.040052   0.0088706   0.0078962   -0.013216
0.021213   -0.015165  -0.0054209    0.031932   0.0036737    0.013418   -0.016789
0.022512   -0.021986   0.0020496    0.022837  0.00075039    0.013418   -0.020037
0.020239   -0.026533   0.0072465    0.015692   0.0023744   0.0075714   -0.027183
0.014392   -0.027183    0.009845   0.0095202   0.0069217 -0.00022403    -0.03238
0.0072465   -0.024909    0.011469   0.0026992    0.012443   -0.010293   -0.032055
-0.00087364   -0.021012    0.011794  -0.0011985    0.013093    -0.01549   -0.029782
-0.0073698   -0.018738    0.010819  -0.0034721   0.0075714   -0.017114   -0.029132
-0.012242   -0.016789   0.0046481  -0.0031473  0.00042559   -0.019388    -0.03238
-0.014516   -0.016464  -0.0031473  -0.0021729  -0.0031473   -0.021986   -0.036278
-0.015165   -0.017764   -0.011592  -0.0031473  -0.0031473   -0.022636   -0.036927
-0.019063   -0.020037    -0.01549  -0.0057458  0.00075039   -0.021337    -0.03238
-0.026209   -0.023285   -0.013866   -0.010293   0.0072465   -0.021337   -0.024585
-0.038551   -0.024585   -0.010293   -0.013216    0.012119   -0.023935   -0.016789
-0.053168   -0.021012   -0.007045   -0.014191    0.011469   -0.026858   -0.011267
-0.065835   -0.012242  -0.0060706   -0.013216    0.003024   -0.025234  -0.0083442
-0.07493  -0.0028225  -0.0063954   -0.014191  -0.0099683   -0.018738   -0.007045
-0.079477   0.0026992   -0.008669   -0.017439   -0.021986   -0.013541  -0.0083442
-0.079152   0.0020496   -0.011592   -0.022311   -0.029457   -0.014191  -0.0093186
-0.072006  -0.0037969   -0.012242   -0.025234   -0.034004   -0.020037  -0.0067202
-0.061937  -0.0080194   -0.015165   -0.020362   -0.036602   -0.030756  -0.0021729
-0.056741  -0.0096434    -0.01549   -0.010943   -0.035953   -0.043748    0.003024
-0.053492   -0.012242   -0.013541  -0.0031473   -0.028807   -0.052843   0.0065969
-0.051544   -0.018088   -0.012242  -0.0031473   -0.019063   -0.055766   0.0075714
-0.049595   -0.024909    -0.01484  -0.0089938   -0.012892   -0.054142   0.0033489
-0.051219   -0.032055   -0.022961   -0.015165   -0.010293   -0.053492 -0.00022403
-0.055766   -0.035303   -0.033354   -0.018413   -0.007045   -0.050894  0.00010078
-0.061613   -0.035953   -0.041799   -0.018738  -0.0057458    -0.04862  0.00010078
-0.064536   -0.035628   -0.045697   -0.017764   -0.012242   -0.049595  -0.0047713
-0.063886   -0.030756   -0.043099    -0.01549   -0.024585   -0.054467   -0.013216
-0.058365   -0.023935   -0.033679   -0.013216   -0.036278   -0.060313   -0.019388
-0.047971   -0.014516   -0.016789   -0.010943   -0.041475   -0.063561   -0.019388
-0.032705  -0.0060706   0.0026992   -0.011267   -0.035953   -0.060638    -0.01549
-0.015815   0.0026992    0.019264   -0.011592   -0.022636   -0.056091  -0.0080194
-0.0015233   0.0088706    0.022188  -0.0089938  -0.0080194   -0.052843  -0.0024977
0.0075714    0.012768    0.011144  -0.0028225      0.0014   -0.052843  0.00075039
0.011469    0.014717  -0.0080194   0.0033489   0.0069217   -0.053817   0.0026992
0.0078962    0.016666   -0.021337   0.0078962    0.011794   -0.052843   0.0046481
-0.00054884    0.017965   -0.023285   0.0078962    0.019589    -0.04927   0.0078962
-0.0089938     0.01829    -0.01484   0.0010752    0.028034   -0.044398   0.0091954
-0.012242    0.019589  -0.0024977  -0.0093186    0.033881   -0.038551     0.01017
-0.011592    0.022837   0.0046481   -0.020037    0.032906   -0.030431    0.015042
-0.0063954    0.028034   0.0033489   -0.026858    0.027709   -0.018738    0.025111
0.0043233    0.032257  -0.0011985   -0.027833    0.023812  -0.0096434    0.036154
0.01894    0.032582   -0.007045   -0.024585    0.021213  -0.0099683    0.042326
0.030633    0.030957  -0.0093186   -0.021012    0.019589   -0.019388    0.040377
0.031282    0.028684  -0.0073698   -0.014516    0.017965   -0.030756    0.033231
0.021863    0.023162  -0.0037969  -0.0041217    0.016991   -0.035303    0.024786
0.012119    0.016341   0.0039985    0.008221    0.012119   -0.029132    0.015692
0.0052977    0.011469    0.012119    0.015692   0.0020496   -0.017764   0.0091954
0.0010752    0.009845    0.016666    0.014068  -0.0089938  -0.0067202   0.0085458
0.0020496   0.0072465    0.014392   0.0033489   -0.017764 -0.00087364   0.0095202
0.011794    0.003024   0.0062721  -0.0080194    -0.02426  0.00010078   0.0072465
0.026085 -0.00022403  -0.0050961   -0.014191   -0.026858  -0.0018481  0.00075039
0.031932  0.00042559   -0.012892   -0.011267   -0.024909  -0.0076946  -0.0096434
0.025436   0.0062721   -0.012892  -0.0031473   -0.021661   -0.013541   -0.019063
0.014392    0.012119  -0.0057458   0.0056225   -0.021661   -0.015165   -0.025234
0.01017    0.014068   0.0043233    0.011794    -0.02361  -0.0099683   -0.027508
0.013093    0.011469    0.013093    0.012443   -0.024909  -0.0015233   -0.024909
0.019589   0.0078962     0.01829    0.010495   -0.025234    0.003024   -0.018738
0.019914   0.0036737    0.017965   0.0085458   -0.024585  0.00075039   -0.010293
0.012443  -0.0031473    0.012119   0.0072465   -0.025884  -0.0063954  -0.0028225
0.0026992   -0.010618   0.0033489   0.0075714   -0.027833   -0.015165   0.0033489
-0.0067202   -0.016789  -0.0024977   0.0056225   -0.029132   -0.020362   0.0072465
-0.0083442   -0.022311  -0.0067202   0.0043233   -0.031081   -0.023285    0.011469
-0.0037969   -0.027833   -0.015815    0.003024   -0.030431   -0.023935    0.014717
0.0039985   -0.029782   -0.028807  0.00075039   -0.027508   -0.022636    0.012768
0.011794   -0.030756   -0.039526  -0.0041217    -0.02361   -0.021661   0.0056225
0.016341   -0.028807   -0.043748  -0.0093186   -0.022311   -0.023935  -0.0041217
0.016341   -0.023935   -0.040825   -0.012567   -0.024909    -0.03173   -0.012892
0.017965   -0.014516    -0.03238  -0.0093186   -0.028157   -0.043423   -0.015165
0.021213  -0.0047713   -0.022311  0.00075039   -0.026858   -0.052518   -0.010943
0.024461  0.00042559   -0.012242    0.016016   -0.020037   -0.053168  -0.0011985
0.024786   0.0020496  -0.0044465    0.029658  -0.0099683    -0.04927   0.0075714
0.025111    0.003024    0.003024    0.034855  -0.0031473   -0.046022    0.012768
0.026735   0.0078962   0.0088706    0.030957  -0.0031473   -0.040175    0.010495
0.029333    0.016991    0.012443    0.020239   -0.012567   -0.029132   0.0033489
0.032582    0.024137    0.014717   0.0059473   -0.026209   -0.015165  -0.0021729
0.031282     0.02641    0.012443  -0.0057458   -0.038876  -0.0060706  -0.0050961
0.023487    0.025436   0.0043233  -0.0093186   -0.048296 -0.00054884  -0.0076946
0.013418    0.023487  -0.0089938  -0.0050961   -0.051544   0.0072465   -0.011917
0.0052977    0.022188   -0.022636   0.0010752   -0.051544    0.013418   -0.016464
0.0020496    0.019914   -0.029457   0.0052977   -0.050894    0.013418   -0.021337
0.0039985    0.016666   -0.029782   0.0072465   -0.052518   0.0043233   -0.020362
0.0085458   0.0091954   -0.025884   0.0095202   -0.056091  -0.0099683   -0.011917
0.012768 -0.00054884   -0.021986    0.013418    -0.05804   -0.021661  -0.0018481
0.015042  -0.0073698   -0.021337    0.014717   -0.054142   -0.027508   0.0023744
0.014392   -0.007045    -0.02361    0.009845   -0.050244   -0.028157   0.0049729
0.0065969  0.00075039   -0.024585  0.00010078   -0.047321   -0.023285   0.0049729
-0.0028225     0.01017   -0.022636   -0.010293   -0.044398    -0.01549   0.0017248
-0.0076946    0.017316   -0.021012   -0.018413   -0.040825  -0.0063954 -0.00087364
-0.0054209    0.018615   -0.021012   -0.020687   -0.039851   0.0017248 -0.00054884
0.0026992    0.015042   -0.021337   -0.017764   -0.044398   0.0056225 -0.00022403
0.015042   0.0075714   -0.021661  -0.0096434   -0.054467   0.0065969  -0.0011985
0.028359  -0.0015233   -0.020687      0.0014   -0.060638   0.0010752  -0.0037969
0.036154  -0.0096434   -0.017439    0.012768   -0.056416  -0.0063954   -0.008669
0.033556   -0.013541  -0.0083442    0.019264   -0.038551    -0.01549    -0.01549
0.020239   -0.011917  0.00075039    0.018615   -0.012892   -0.022636   -0.021986
0.00042559  -0.0050961   0.0033489    0.015042    0.014068   -0.026209    -0.02426
-0.020362   0.0020496 -0.00087364    0.011144    0.039078   -0.024909   -0.020362
-0.035953   0.0056225  -0.0089938   0.0062721    0.057267   -0.021337   -0.013216
-0.042449   0.0056225   -0.016789    0.003024    0.067336   -0.020362  -0.0067202
-0.036927    0.003024   -0.022636  0.00042559    0.066362   -0.024585  -0.0015233
-0.026533  -0.0031473   -0.025234   0.0020496    0.055643   -0.031406  0.00075039
-0.020037   -0.010618   -0.026858   0.0049729    0.038428   -0.037252   0.0026992
-0.019063    -0.01549   -0.029132   0.0095202     0.01894   -0.039201   0.0020496
-0.021986   -0.017764   -0.032055    0.014717   0.0017248   -0.035953  0.00075039
-0.023935   -0.017764   -0.034654    0.018615   -0.011917   -0.027833 -0.00022403
-0.023285   -0.016789   -0.037252    0.020888   -0.023935   -0.017114      0.0014
-0.020687    -0.01549   -0.036278    0.020564   -0.034654  -0.0080194   0.0036737
-0.018088    -0.01549   -0.031406    0.016016   -0.044723  -0.0024977   0.0026992
-0.01549   -0.011592   -0.020037   0.0095202   -0.053817  -0.0018481 -0.00087364
-0.013216  -0.0041217  -0.0047713   0.0026992   -0.061613  -0.0021729  -0.0044465
-0.011267   0.0023744   0.0075714  -0.0011985    -0.06616  -0.0015233   -0.010293
-0.0096434   0.0056225    0.013418  -0.0028225   -0.068434  0.00010078   -0.019063
-0.0096434   0.0023744    0.012768  -0.0050961   -0.072656   0.0020496   -0.024909
-0.012242   -0.007045   0.0088706  -0.0083442   -0.080451   0.0059473   -0.027833
-0.015165   -0.016789   0.0036737  -0.0096434    -0.09117    0.013743   -0.027833
-0.017114   -0.021661  0.00075039  -0.0054209   -0.097666    0.021213   -0.023285
-0.017114   -0.019388      0.0014   0.0026992   -0.096042    0.023162   -0.013866
-0.01614  -0.0089938   0.0036737    0.012119   -0.084024    0.019914  -0.0037969
-0.012242    0.003024   0.0056225    0.018615   -0.067134    0.015042  0.00075039
-0.0057458    0.012768   0.0072465    0.018615   -0.053492    0.013418 -0.00054884
0.00042559     0.01829   0.0072465    0.015042   -0.054467    0.015692  -0.0080194
0.0049729    0.019914    0.012443   0.0091954   -0.068758    0.017965   -0.018413
0.0091954    0.016991    0.020564   0.0033489   -0.084349    0.016666   -0.028157
0.016016    0.011794    0.029009  -0.0034721   -0.087272    0.013743    -0.03303
0.025761   0.0059473    0.031282  -0.0089938   -0.073955    0.012443   -0.033679
0.03583  0.00075039    0.026085   -0.011267   -0.051868    0.011469   -0.033679
0.044599  -0.0018481    0.015042  -0.0089938    -0.03238    0.009845    -0.03238
0.050771  -0.0054209   0.0056225  -0.0031473   -0.013866   0.0069217   -0.026209
0.051096  -0.0093186  0.00010078  -0.0015233   0.0023744   0.0085458    -0.01484
0.045574   -0.010293  -0.0015233  -0.0067202    0.013093    0.015692  -0.0031473
0.03518  -0.0067202  -0.0018481   -0.016464    0.013743    0.021863   0.0039985
0.021538   0.0036737   0.0023744    -0.02361   0.0069217    0.023162   0.0052977
0.0072465    0.016666    0.013743   -0.024909  -0.0057458    0.021863   0.0052977
-0.0063954    0.030957    0.029658   -0.021986    -0.01614    0.023812   0.0056225
-0.020362     0.04395    0.041676    -0.01549   -0.018738    0.029983     0.01017
-0.027833    0.053044    0.042651  -0.0063954   -0.012242    0.038103    0.016341
-0.026209     0.05207    0.037129   0.0072465 -0.00087364    0.042326    0.021213
-0.018738    0.043625    0.032257    0.019264    0.010495    0.034206    0.020239
-0.012892    0.031607    0.032582     0.02706    0.016666    0.013743    0.015367
-0.011917    0.017965    0.033556    0.027709    0.018615  -0.0076946   0.0065969
-0.017764   0.0088706    0.029009    0.021213    0.021538   -0.019712  -0.0018481
-0.025884   0.0065969    0.017965    0.011469    0.030633   -0.020687  -0.0073698
-0.03303   0.0091954   0.0052977   0.0023744    0.038428    -0.01484   -0.011592
-0.036927    0.012119  -0.0054209  -0.0024977    0.040702   -0.008669   -0.012567
-0.038551    0.012119    -0.01614  -0.0034721    0.036154  -0.0050961   -0.010293
-0.040175   0.0069217   -0.024585  -0.0034721    0.028034  -0.0054209  -0.0057458
-0.038876 -0.00054884   -0.027508 -0.00087364     0.01829   -0.008669  0.00010078
-0.03303  -0.0031473   -0.025559   0.0020496    0.010495   -0.015815   0.0062721
-0.021012  -0.0011985   -0.021986    0.003024   0.0052977   -0.028482    0.016991
-0.0057458   0.0017248   -0.018413   0.0020496   0.0026992   -0.045697    0.029658
0.0069217    0.003024   -0.018738  -0.0011985   0.0033489   -0.061288    0.040377
0.013743   0.0039985   -0.020037 -0.00087364   0.0069217   -0.070382    0.045574
0.016991   0.0043233   -0.022311   0.0072465    0.012119   -0.071357    0.045899
0.01829   0.0026992   -0.021986    0.020564    0.017965   -0.066485    0.039402
0.015367   0.0010752   -0.021986     0.03453    0.020888   -0.056416    0.025436
0.0062721  -0.0018481   -0.017114    0.042326    0.023487   -0.046671    0.009845
-0.0089938  -0.0076946  -0.0099683    0.041676    0.023812   -0.040825  -0.0028225
-0.022961   -0.013541  -0.0050961     0.03453    0.019914   -0.040175  -0.0083442
-0.029132    -0.01614  -0.0057458    0.028359    0.010819   -0.044723  -0.0093186
-0.027508    -0.01614   -0.011267    0.020888  -0.0018481   -0.051868  -0.0076946
-0.021986   -0.017114   -0.017114    0.011144   -0.021986   -0.058689  -0.0057458
-0.018088   -0.021661   -0.025234  -0.0076946   -0.043748   -0.061613  -0.0050961
-0.020037   -0.029132   -0.036602   -0.034329   -0.060963   -0.062587  -0.0018481
-0.024909   -0.033679    -0.04992   -0.056416   -0.064861   -0.057065   0.0062721
-0.025884   -0.031406   -0.064861   -0.065835   -0.056741   -0.047971    0.016666
-0.024909   -0.022311   -0.074605   -0.060963   -0.040825   -0.041475    0.023162
-0.024585   -0.010618   -0.076879   -0.046996   -0.020037   -0.036278    0.025436
-0.028157  -0.0015233   -0.070707   -0.027833   0.0052977    -0.03173    0.027709
-0.033679    0.003024   -0.056741  -0.0099683    0.030633   -0.027833    0.032906
-0.034004   0.0026992   -0.040175   0.0020496    0.049147    -0.02361    0.036479
-0.030431 -0.00022403   -0.024585   0.0085458    0.054993   -0.017764     0.03583
-0.027833  -0.0047713    -0.01484    0.011144    0.048172   -0.012242    0.027709
-0.02426  -0.0099683   -0.010293    0.011144    0.031282  -0.0099683    0.016016
-0.019712   -0.012567   -0.011267   0.0072465     0.01017   -0.010618   0.0065969
-0.018738   -0.012242    -0.01614  -0.0093186  -0.0076946    -0.01484  0.00075039
-0.025884   -0.011917   -0.021661   -0.036602   -0.018738   -0.017764  -0.0037969
-0.035953   -0.012567   -0.025884   -0.061613   -0.017114   -0.017439  -0.0067202
-0.040175   -0.012567   -0.028807   -0.066485  -0.0044465   -0.013866   -0.008669
-0.036278   -0.013866   -0.026209   -0.047646    0.011794   -0.013541  -0.0099683
-0.026209   -0.016464   -0.021337   -0.011267    0.023162   -0.017439   -0.011917
-0.012892   -0.018413   -0.019388    0.029009    0.025436   -0.021012    -0.01549
-0.0041217   -0.020037   -0.020687    0.058241    0.019264   -0.024585   -0.022311
-0.00022403   -0.022311   -0.023935    0.067986   0.0059473   -0.028807   -0.024585
-0.00022403   -0.023935   -0.025884    0.057592  -0.0054209   -0.033679   -0.020362
-0.0028225   -0.024585   -0.027183    0.037778   -0.013541   -0.038876   -0.013541
-0.0093186   -0.023935   -0.025884    0.019589   -0.018088    -0.04115  -0.0076946
-0.018738   -0.021661   -0.021661   0.0065969    -0.02361   -0.037252  -0.0054209
-0.029132   -0.018738   -0.014516  -0.0018481   -0.026858   -0.027833  -0.0015233
-0.034004   -0.015815  -0.0037969  -0.0073698   -0.025559   -0.016464   0.0026992
-0.029132  -0.0067202   0.0065969  -0.0083442   -0.020037  -0.0037969   0.0026992
-0.019063   0.0069217    0.011469  -0.0057458   -0.014191   0.0078962  -0.0034721
-0.008669    0.020888    0.011794  0.00010078   -0.013541    0.012768   -0.011267
-0.0011985    0.029983    0.008221   0.0065969    -0.01549    0.010819   -0.017439
0.0023744    0.031282   0.0017248    0.010495    -0.01614   0.0036737   -0.021012
0.0075714    0.024786   -0.008669   0.0049729   -0.011917  -0.0060706   -0.025884
0.014392    0.015367   -0.022636   -0.014516  -0.0031473   -0.014191    -0.03303
0.020564   0.0075714   -0.033354   -0.038876   0.0056225   -0.017764   -0.039526
0.025436   0.0052977   -0.035628   -0.051544   0.0072465   -0.021012     -0.0405
0.025761   0.0072465   -0.031406   -0.042124  -0.0034721   -0.026858   -0.036602
0.022837    0.013093   -0.018738  -0.0099683   -0.025884   -0.033679   -0.025559
0.01764     0.01894  0.00010078    0.033881   -0.051544   -0.036927  -0.0096434
0.016991    0.026085     0.01764    0.074806   -0.076229   -0.034978   0.0052977
0.01894    0.032582    0.028034    0.099817   -0.094093   -0.029132    0.015692
0.01829    0.037454    0.031607     0.10664   -0.098965   -0.021661    0.016991
0.011469    0.040377    0.033231    0.095919   -0.088247   -0.011917    0.012119
-0.0057458    0.042001    0.031932    0.077405   -0.068109  -0.0024977   0.0043233
-0.027183    0.042001    0.022837    0.063438   -0.050894   0.0020496  -0.0044465
-0.0405    0.039078    0.010819     0.06084   -0.044073    0.003024   -0.010943
-0.040825    0.032906  0.00042559    0.065712    -0.04862  0.00075039   -0.012242
-0.028807    0.027385 -0.00022403     0.06896    -0.05739  -0.0021729  -0.0099683
-0.010293    0.023162    0.003024    0.065712   -0.065186  -0.0024977  -0.0093186
0.0069217    0.019589   0.0069217    0.055968   -0.070382   0.0056225   -0.011917
0.016991    0.010819   0.0065969    0.041676   -0.072006    0.019914   -0.015815
0.020239  -0.0021729   0.0023744    0.028359    -0.06681    0.034855   -0.019063
0.016991   -0.015815  -0.0024977    0.021213   -0.056416    0.042326   -0.017764
0.0088706   -0.022636  -0.0037969    0.016666   -0.047971    0.040377   -0.012892
0.0020496   -0.019712  -0.0028225    0.009845   -0.044723    0.031607  -0.0096434
0.0010752   -0.008669 -0.00054884  0.00075039   -0.045047    0.024461   -0.010618
0.00042559 -0.00054884    0.003024   -0.007045   -0.047321    0.025111   -0.011917
-0.0031473  0.00042559   0.0065969  -0.0096434   -0.048296    0.030633   -0.008669
-0.0089938  -0.0054209   0.0088706  -0.0089938   -0.046347    0.029983  -0.0011985
-0.014191   -0.015165   0.0078962  -0.0093186   -0.046347    0.022512   0.0026992
-0.014516    -0.02361   0.0046481   -0.013216   -0.051544    0.012768   0.0023744
-0.0096434   -0.031406  0.00042559   -0.021012   -0.061288   0.0052977  0.00010078
-0.0057458   -0.034978  -0.0060706   -0.031406   -0.067459   0.0026992   0.0010752
-0.0063954   -0.034329    -0.01614   -0.039201   -0.066485   0.0033489   0.0056225
-0.012242   -0.031406   -0.030106   -0.037577   -0.059339   0.0059473    0.011794
-0.017114   -0.026533   -0.041799   -0.027183   -0.052193   0.0075714    0.013093
-0.016464   -0.020037   -0.046996   -0.015165   -0.048296   0.0078962    0.010495
-0.012242   -0.014516   -0.040175  -0.0073698    -0.04862   0.0039985    0.008221
-0.007045   -0.011592   -0.023285  -0.0050961   -0.052843 -0.00022403   0.0095202
-0.00022403  -0.0083442  -0.0083442   -0.007045   -0.054792  -0.0031473    0.013093
0.0075714  -0.0047713   0.0017248   -0.010293   -0.052518  -0.0024977    0.017316
0.014392  -0.0021729    0.010495   -0.013866   -0.044398  0.00042559    0.021213
0.01894  -0.0018481    0.014392   -0.012892   -0.035303  0.00042559    0.022837
0.022512  -0.0018481    0.014392  -0.0076946   -0.026858  -0.0041217    0.023487
0.029009  -0.0011985    0.008221   0.0017248   -0.021337  -0.0093186     0.01894
0.032257 -0.00022403   0.0020496    0.016016   -0.015165   -0.011917    0.011794
0.029983  0.00042559    0.003024    0.025761  -0.0076946   -0.011267   0.0049729
0.024461  -0.0015233   0.0065969    0.023487  0.00042559   -0.010618      0.0014
0.019589  -0.0050961   0.0072465    0.010495   0.0085458   -0.012242 -0.00087364
0.020564   -0.011267   0.0072465  -0.0031473    0.014068    -0.01614  -0.0028225
0.024786   -0.019712   0.0078962  -0.0093186    0.016341   -0.020037  -0.0076946
0.025761   -0.025884    0.008221  -0.0076946    0.016341   -0.021661   -0.014191
0.022512   -0.027833   0.0072465  -0.0015233    0.014717   -0.021661   -0.020362
0.015042   -0.026533   0.0072465   0.0059473    0.014392   -0.022961   -0.023935
0.0052977    -0.02426   0.0062721    0.010819    0.013418   -0.023285   -0.020687
-0.0034721   -0.021012   0.0033489    0.011794    0.013743   -0.023285   -0.011917
-0.0031473   -0.020037   0.0033489   0.0069217    0.014068   -0.022636   0.0020496
0.0017248   -0.017114    0.008221  0.00075039    0.015042   -0.021012    0.013743
0.0062721   -0.011267    0.013093  -0.0047713    0.013743    -0.01614     0.01829
0.0091954  -0.0047713    0.015692  -0.0037969    0.010819   -0.012892    0.016341
0.012443   0.0010752    0.013743  -0.0011985    0.008221   -0.011917    0.010819
0.012768   0.0056225   0.0065969 -0.00087364   0.0069217    -0.01484   0.0033489
0.0095202    0.009845  -0.0011985  -0.0060706   0.0091954   -0.016789  -0.0024977
0.0056225    0.014392  -0.0073698   -0.014191    0.014717   -0.014516  -0.0067202
0.0036737    0.016666  -0.0083442   -0.022311    0.020564   -0.011267   -0.010293
0.0049729    0.016341  -0.0063954   -0.029132    0.021538   -0.012892   -0.014516
0.0078962    0.013743  -0.0044465   -0.034329     0.01829   -0.022636   -0.019712
0.011794   0.0085458  -0.0067202   -0.035628    0.012443   -0.033354   -0.025234
0.010495  -0.0015233   -0.011267   -0.035628   0.0056225   -0.037577   -0.029457
0.0010752   -0.012892    -0.01549   -0.034978  -0.0018481   -0.037252    -0.03173
-0.012242   -0.022961   -0.017114   -0.035628  -0.0057458   -0.036927    -0.03173
-0.025559   -0.028157   -0.018088   -0.037577  -0.0050961   -0.038227   -0.030106
-0.034654   -0.028482   -0.020037   -0.035628   0.0010752     -0.0405   -0.025884
-0.038551   -0.024909   -0.021986   -0.028807   0.0091954   -0.039526   -0.018738
-0.0405   -0.021337   -0.020037   -0.017439    0.015042   -0.037577   -0.008669
-0.043099   -0.018738   -0.017114   -0.010618    0.014392   -0.035628  -0.0018481
-0.042774   -0.017764   -0.017439   -0.010293    0.013093   -0.030431    0.003024
-0.035953    -0.01614   -0.019712    -0.01549    0.014392   -0.018088   0.0043233
-0.022311   -0.010293   -0.021986   -0.019712    0.019589  -0.0054209   0.0052977
-0.0060706 -0.00022403   -0.024585   -0.021337    0.024137  -0.0018481   0.0085458
0.0085458    0.011469   -0.024909   -0.018088     0.02706   -0.010293    0.012119
0.013093    0.016666    -0.02361   -0.010618    0.029658   -0.022636    0.013093
0.0095202    0.015367   -0.022311  -0.0024977    0.033881   -0.033354   0.0088706
0.0026992    0.011794   -0.019063   0.0039985    0.035505     -0.0405   0.0043233
-0.0018481    0.010819   -0.017764   0.0052977    0.028684   -0.044723 -0.00022403
-0.0044465    0.013093   -0.016789    0.003024    0.013093    -0.04927  -0.0067202
-0.0050961     0.01829   -0.012567  -0.0018481   -0.007045    -0.04992   -0.011917
-0.0050961    0.023812  -0.0034721  -0.0067202    -0.02361   -0.046671    -0.01549
-0.0057458    0.029658   0.0065969   -0.010293   -0.031406   -0.042449   -0.016464
-0.0063954    0.031282    0.014717  -0.0093186   -0.029782   -0.038876   -0.017764
-0.0076946    0.029983    0.022512   -0.007045   -0.021012   -0.034004   -0.019712
-0.0093186    0.029983    0.029983  -0.0037969  -0.0073698   -0.028157   -0.018738
-0.0099683    0.028359    0.036154  -0.0018481   0.0091954   -0.024909   -0.018738
-0.007045    0.023812    0.038753    0.003024    0.022512   -0.024909   -0.018088
-0.0015233    0.019589    0.036804    0.012119    0.029333   -0.026209    -0.01614
0.003024    0.016666    0.027385    0.020239    0.026735   -0.024585   -0.011592
0.0065969    0.017316    0.009845    0.024786    0.016341   -0.021012  -0.0067202
0.008221    0.019264  -0.0083442     0.02641      0.0014   -0.018738  -0.0047713
0.0049729    0.021538   -0.018413    0.029333   -0.011592   -0.018413  -0.0047713
-0.00054884    0.021863   -0.022311     0.03583   -0.023935   -0.020037  -0.0041217
-0.0060706    0.021538   -0.018088    0.048172   -0.035303    -0.02361  -0.0037969
-0.011917    0.020888   -0.008669    0.059865   -0.039201   -0.027183  -0.0044465
-0.017114    0.017965  -0.0024977    0.066362   -0.034654   -0.029457  -0.0060706
-0.019712    0.016016   0.0020496    0.065062    -0.02426   -0.027833  -0.0060706
-0.01549    0.016341   0.0059473    0.057917  -0.0083442   -0.028807  -0.0018481
-0.0054209    0.021538     0.01017    0.044924   0.0078962   -0.033679   0.0026992
0.0069217    0.030957    0.012443    0.028684    0.022837   -0.040825    0.003024
0.012768    0.040052   0.0072465    0.012768    0.030633   -0.048296   0.0010752
0.0069217    0.043625  -0.0050961    0.003024    0.023487   -0.051868 -0.00054884
-0.0057458    0.038428   -0.021661  -0.0024977   0.0026992   -0.050569 -0.00022403
-0.022311    0.023812   -0.037252  -0.0054209   -0.021661   -0.046022 -0.00054884
-0.035303   0.0075714   -0.050569  -0.0083442   -0.040175   -0.044073  -0.0054209
-0.04115  -0.0057458   -0.054792   -0.012892   -0.051868   -0.048296   -0.010943
-0.04115   -0.012892   -0.052518   -0.018738   -0.054792   -0.059339   -0.012242
-0.036278    -0.01484   -0.046996   -0.021337   -0.054467   -0.071032   -0.010943
-0.028807   -0.012567   -0.040175   -0.020687   -0.054467   -0.079477  -0.0063954
-0.022961  -0.0057458    -0.03238   -0.020037   -0.055116   -0.078827  -0.0034721
-0.014516    0.003024   -0.025234   -0.017764   -0.053817   -0.072981  -0.0050961
-0.0021729    0.013743   -0.019388   -0.013541   -0.053168   -0.062587   -0.011917
0.013418    0.021213   -0.013866  -0.0067202   -0.054142   -0.052843    -0.01484
0.028684    0.024786  -0.0067202  0.00075039   -0.056091   -0.045372  -0.0099683
0.036804    0.023487 -0.00087364   0.0078962   -0.053817   -0.042449 -0.00087364
0.037129    0.022512   0.0020496    0.009845   -0.047646   -0.043423   0.0039985
0.029658    0.022512  -0.0028225    0.008221   -0.043423   -0.046022   0.0039985
0.016341    0.021538   -0.014191   0.0033489   -0.043423   -0.045697   0.0017248
0.003024    0.019914   -0.026209  -0.0041217   -0.045372   -0.039526  -0.0015233
-0.0050961     0.01894   -0.032705  -0.0089938   -0.046996   -0.027833  -0.0031473
-0.0037969    0.016666   -0.031406   -0.012242   -0.046022   -0.016464 -0.00087364
-0.00022403    0.014068   -0.026209   -0.015815   -0.041799   -0.010293   0.0026992
0.0026992    0.010819   -0.016464   -0.021986   -0.034004  -0.0067202   0.0072465
0.0085458   0.0075714  -0.0063954   -0.027183   -0.021661  -0.0044465    0.011144
0.019914    0.003024  0.00010078   -0.026533   -0.010293  -0.0037969    0.014392
0.030308  -0.0037969   0.0046481   -0.022961  -0.0037969  -0.0057458    0.014392
0.037454  -0.0083442   0.0049729   -0.018088  -0.0063954  -0.0093186   0.0091954
0.03583   -0.013541  -0.0021729   -0.014516    -0.01614   -0.012892 -0.00054884
0.027385   -0.018088   -0.012242   -0.010293   -0.025559   -0.017764  -0.0073698
0.016666   -0.020037   -0.020037  -0.0050961   -0.029132   -0.020037  -0.0021729
0.0062721   -0.016464   -0.022961      0.0014   -0.026858   -0.015165    0.012443
-0.0031473  -0.0076946   -0.022311   0.0072465   -0.020362   -0.008669    0.028359
-0.010943   0.0010752   -0.017764   0.0091954   -0.014516  -0.0044465    0.036479
-0.014191   0.0039985   -0.010618   0.0039985   -0.011917  -0.0021729    0.034855
-0.017114      0.0014  -0.0047713  -0.0080194   -0.015165   0.0017248    0.027709
-0.018413  -0.0050961  0.00075039   -0.018738   -0.019712    0.008221    0.021538
-0.017439   -0.011267   0.0062721   -0.021986   -0.023285    0.014392     0.01829
-0.013216   -0.018738    0.011144   -0.018413   -0.027833     0.01894    0.021213
-0.0099683   -0.028482    0.010819   -0.011592   -0.029457    0.021863    0.029333
-0.0089938   -0.036278    0.003024  -0.0031473   -0.029132    0.023162    0.037129
-0.011917   -0.040175  -0.0089938   0.0010752   -0.027183    0.023162    0.037129
-0.018088   -0.042124   -0.017439  -0.0031473   -0.026533    0.021863    0.025436
-0.029132   -0.046671   -0.021337   -0.017439   -0.024909     0.01829   0.0075714
-0.041475   -0.053168   -0.021986   -0.038227   -0.023285    0.016341  -0.0093186
-0.046347   -0.054142   -0.020687   -0.055766    -0.02426    0.019264   -0.019388
-0.038876   -0.050244   -0.019712   -0.060963   -0.022636    0.024461   -0.018088
-0.024909   -0.042124   -0.021986   -0.051544    -0.01549    0.028359  -0.0076946
-0.013541   -0.035303   -0.025234    -0.03238  -0.0047713    0.029009   0.0043233
-0.013541   -0.030756   -0.026858   -0.015165   0.0069217    0.030633    0.013743
-0.021337   -0.029457   -0.021661  -0.0034721     0.01829    0.038753    0.017965
-0.026209   -0.028482   -0.012242   0.0039985    0.028034    0.049796    0.019589
-0.02426   -0.022961  -0.0031473   0.0095202    0.033556    0.054668     0.01764
-0.019712   -0.012892   0.0010752    0.011794     0.03583    0.047847    0.015042
-0.012242  -0.0024977   0.0023744    0.012119    0.032582    0.032906    0.012119
-0.0031473      0.0014  0.00075039     0.01017    0.024137    0.024137    0.010495
0.003024  -0.0018481  -0.0050961   0.0052977    0.015692    0.029333   0.0049729
0.0039985  -0.0054209   -0.010943   0.0039985    0.012443    0.042326  -0.0031473
0.0010752   -0.008669   -0.011917   0.0072465    0.010819    0.056292  -0.0096434
-0.0031473   -0.012892  -0.0080194    0.011794   0.0072465    0.062789   -0.011267
-0.0047713    -0.01614  -0.0021729    0.013743 -0.00087364    0.058566   -0.012892
-0.0028225   -0.019388    0.003024    0.013418   -0.011267    0.047198    -0.01614
0.0026992   -0.021661   0.0056225   0.0095202    -0.02426    0.032257    -0.02361
0.0085458   -0.020687   0.0075714   0.0039985   -0.038551    0.017316   -0.028157
0.011144   -0.016464   0.0075714   0.0043233   -0.051219   0.0065969   -0.026209
0.012119   -0.011267   0.0046481   0.0075714   -0.062587   0.0017248   -0.019388
0.012443  -0.0099683  -0.0028225    0.009845   -0.073955   0.0023744   -0.013541
0.012119   -0.011267   -0.010618    0.011469   -0.085973   0.0046481    -0.01484
0.0095202   -0.013216   -0.011917    0.011469   -0.098641   0.0062721   -0.025884
0.0049729   -0.015165  -0.0060706    0.013418    -0.10774   0.0023744   -0.038876
-0.00054884   -0.014516   0.0036737    0.017965    -0.11033  -0.0063954    -0.04992
-0.0060706   -0.012892    0.013743    0.023162    -0.10774   -0.016789   -0.051868
-0.0080194   -0.010618    0.018615     0.02706    -0.10319   -0.023935   -0.046671
-0.0054209  -0.0099683    0.016016    0.024786    -0.10221   -0.025234   -0.040825
-0.0021729   -0.008669   0.0075714     0.01764    -0.10384   -0.015815   -0.036602
0.00042559  -0.0063954 -0.00054884   0.0095202    -0.10514  -0.0015233    -0.03303
-0.00022403  -0.0054209  -0.0067202   0.0046481    -0.10546    0.011144   -0.031081
-0.0044465  -0.0044465   -0.012892   0.0075714    -0.10221    0.015692   -0.034329
-0.0080194  -0.0024977   -0.018738    0.016341   -0.092794    0.012119   -0.037902
-0.010943   0.0010752   -0.021661    0.026735    -0.07493   0.0043233   -0.038876
-0.013866   0.0039985   -0.019712     0.03453    -0.04992  -0.0018481   -0.035628
-0.019388   0.0049729   -0.011917    0.037454    -0.02361  -0.0037969   -0.029782
-0.026533   0.0039985  -0.0018481    0.036154   0.0020496  -0.0018481    -0.02361
-0.033679  0.00010078   0.0033489    0.032257    0.022188   0.0023744   -0.017114
-0.037252  -0.0054209      0.0014    0.026735    0.033556   0.0078962  -0.0089938
-0.037577   -0.010943  -0.0076946    0.022837    0.034206    0.011469 -0.00054884
-0.037252    -0.01484   -0.019712    0.021213    0.028359    0.012443   0.0017248
-0.037902   -0.018738   -0.026209    0.020564    0.019589   0.0069217  -0.0031473
-0.036602   -0.020037   -0.025884    0.021538   0.0095202  -0.0037969  -0.0093186
-0.03303   -0.018088   -0.021661    0.023162   0.0036737   -0.017439   -0.011917
-0.027833   -0.014191    -0.01614    0.025436  0.00075039   -0.024585  -0.0099683
-0.021012   -0.007045  -0.0099683    0.029333   0.0033489   -0.025234  -0.0050961
-0.013866  0.00075039  -0.0037969    0.030957   0.0059473   -0.022961 -0.00087364
-0.010943   0.0052977  0.00010078    0.030957   0.0049729    -0.02426   0.0033489
-0.010943   0.0065969 -0.00022403    0.030308   0.0056225   -0.030756   0.0056225
-0.012892   0.0072465  -0.0034721    0.028684   0.0078962   -0.037902   0.0059473
-0.01484   0.0095202  -0.0034721    0.025761    0.012768   -0.039526   0.0059473
-0.01614    0.012119  -0.0011985    0.021863    0.016341   -0.034654   0.0059473
-0.016789    0.015367  0.00042559     0.01894    0.016991   -0.028157   0.0069217
-0.015165    0.019589   0.0026992    0.017316    0.016016   -0.023935   0.0059473
-0.010943    0.022837   0.0046481     0.01764    0.015367   -0.024909   0.0069217
-0.0073698    0.021538   0.0026992    0.014392    0.013743   -0.030106     0.01017
-0.0044465    0.016016  -0.0037969   0.0085458    0.010819   -0.039201    0.014068
-0.0028225    0.008221   -0.014191   0.0039985    0.010819   -0.045697    0.016991
-0.0015233  0.00010078   -0.024909  -0.0015233    0.010495   -0.045697    0.019589
0.0017248   -0.007045   -0.032055   -0.018088    0.008221   -0.038876    0.020564
0.0049729   -0.010293   -0.034004   -0.063886   0.0026992   -0.030756    0.018615
0.008221   -0.010293    -0.03303    -0.14281  -0.0041217   -0.026209    0.015042
0.0078962   -0.008669   -0.031406    -0.23831   -0.011267   -0.026858    0.012443
0.0026992  -0.0073698   -0.028157    -0.32243   -0.017439    -0.03303    0.011794
-0.0047713  -0.0080194   -0.023285    -0.37927   -0.026533   -0.046996    0.011144
-0.01614  -0.0093186   -0.018738    -0.40623   -0.036278   -0.063237     0.01017
-0.028482  -0.0093186   -0.017764    -0.40883   -0.044723   -0.074605    0.010819
-0.035628  -0.0041217   -0.018738    -0.37603   -0.046347   -0.073306    0.015367
-0.034654   0.0062721   -0.014191    -0.27014   -0.025884   -0.058689    0.025436
-0.024909     0.01829 -0.00022403   -0.063561    0.023487   -0.037577    0.038753
-0.0076946    0.029009    0.023487     0.21317     0.10014   -0.021337    0.048822
0.011469    0.041676    0.048497     0.48244     0.18914    -0.01484    0.053369
0.028359    0.056942    0.065062     0.66953     0.26742   -0.018088    0.053369
0.039078    0.071234    0.066686     0.72994     0.31289   -0.021337    0.050121
0.039727    0.076755    0.054668     0.67148     0.30899   -0.021661    0.044275
0.031607    0.067336    0.033556     0.53376     0.25735   -0.023285     0.03518
0.020564    0.049472    0.013093     0.37201     0.17452   -0.030106    0.022188
0.009845    0.029658  -0.0047713     0.22909    0.077405   -0.042774   0.0088706
-0.0021729    0.015692   -0.017114      0.1258   -0.019063   -0.055766  -0.0018481
-0.011267   0.0088706   -0.021986    0.062464    -0.10221   -0.066485  -0.0096434
-0.017114   0.0046481   -0.020687     0.02641    -0.16295   -0.073955   -0.016464
-0.020687  0.00042559   -0.017114   0.0056225    -0.19511   -0.074605    -0.02361
-0.022311  -0.0050961   -0.012892   -0.007045    -0.20193   -0.070058   -0.029782
-0.021986   -0.008669  -0.0099683   -0.015815    -0.18666   -0.064536   -0.029132
-0.020037  -0.0073698  -0.0099683   -0.021337    -0.15776   -0.055441   -0.023935
-0.013866  0.00042559   -0.013541   -0.025234    -0.12073   -0.043099   -0.017439
-0.0050961    0.012768   -0.017114   -0.028482   -0.086623   -0.030106   -0.013541
0.0036737    0.024461   -0.019712    -0.03303   -0.066485   -0.019063   -0.012242
0.013418     0.03453   -0.018088   -0.040825   -0.060638   -0.014516  -0.0093186
0.024137    0.040377   -0.013866    -0.04927   -0.061613   -0.016789  -0.0063954
0.030633    0.042001  -0.0076946    -0.05804   -0.061613   -0.021012  -0.0018481
0.029333    0.042001  -0.0031473   -0.064211   -0.054792    -0.02426   0.0020496
0.020239    0.039078  -0.0031473   -0.062587   -0.043748   -0.027833    0.003024
0.011794    0.033556   -0.007045   -0.056741   -0.034654   -0.028157   0.0010752
0.009845    0.029658  -0.0096434   -0.052518   -0.028807    -0.02361 -0.00087364
0.015692    0.026085   -0.011592   -0.051219   -0.026533   -0.017764  -0.0031473
0.024786    0.020239   -0.012892   -0.055116   -0.029782   -0.015815  -0.0050961
0.029333    0.011794   -0.014191   -0.059664   -0.033354   -0.020687  -0.0073698
0.027385    0.003024    -0.01614   -0.058689   -0.031081   -0.027508  -0.0083442
0.021538  -0.0050961   -0.015815   -0.053168    -0.01614   -0.031406   -0.013541
0.014717  -0.0099683   -0.010618   -0.047646   0.0043233   -0.031406   -0.017764
0.012443   -0.014191  -0.0037969    -0.04862    0.019914   -0.028807   -0.022311
0.013743   -0.018088   0.0039985   -0.054467    0.026085   -0.027183    -0.02361
0.019589   -0.022311   0.0085458   -0.061937    0.022188   -0.032055   -0.020362
0.02641   -0.023935   0.0065969   -0.068758    0.013743     -0.0405   -0.013216
0.031282   -0.021012  -0.0037969   -0.070382   0.0036737   -0.048296  -0.0057458
0.032257   -0.014191    -0.01614    -0.06681  -0.0054209    -0.04992  -0.0041217
0.027385  -0.0080194   -0.022636   -0.060638   -0.013216   -0.045047  -0.0057458
0.016341  -0.0050961    -0.02426   -0.059339   -0.022961   -0.034978  -0.0060706
0.0046481  -0.0063954   -0.020687   -0.060638   -0.034654   -0.026533  -0.0041217
-0.007045  -0.0093186   -0.015815   -0.059664   -0.045372   -0.021986  -0.0021729
-0.015165   -0.013541   -0.011267    -0.05804    -0.04992   -0.024909  -0.0028225
-0.018413   -0.020362  -0.0057458   -0.055441   -0.051219   -0.030756  -0.0063954
-0.019712   -0.028157 -0.00054884   -0.051544   -0.052518   -0.034978   -0.010293
-0.021337   -0.032705   0.0020496   -0.046671   -0.052843   -0.035953   -0.010943
-0.026858    -0.03238  0.00010078   -0.040825   -0.052843   -0.034978  -0.0089938
-0.035303   -0.029132  -0.0050961   -0.036278   -0.054792   -0.035628  -0.0067202
-0.044073   -0.026209   -0.012567   -0.036927   -0.059664   -0.037252  -0.0063954
-0.046022   -0.024909   -0.017764   -0.044398   -0.065186   -0.039526  -0.0089938
-0.041799   -0.025559   -0.019063   -0.055441   -0.069408   -0.042124   -0.011592
-0.034654   -0.025559   -0.018413   -0.065186   -0.068109   -0.042774   -0.008669
-0.030106   -0.023935   -0.016464   -0.067134   -0.060313   -0.039526 -0.00022403
-0.030756   -0.022311   -0.013216   -0.063237    -0.04862   -0.034329   0.0085458
-0.034329   -0.020687   -0.010943   -0.052518   -0.038551   -0.030431    0.012443
-0.034329   -0.017764  -0.0083442   -0.034978   -0.029457   -0.025234    0.008221
-0.027183   -0.011267  -0.0031473   -0.015165   -0.020687   -0.016789   0.0010752
-0.017439  -0.0031473   0.0062721      0.0014   -0.011592  -0.0057458  -0.0024977
-0.0080194   0.0043233    0.014717     0.01017  -0.0050961   0.0056225  -0.0015233
0.00042559    0.010819    0.016016    0.011144  -0.0031473    0.013093   0.0036737
0.0091954    0.015367    0.011144   0.0039985  -0.0073698    0.016016   0.0091954
0.016666    0.016991   0.0026992  -0.0044465   -0.015165    0.016341    0.011144
0.022512    0.015042  -0.0044465  -0.0096434   -0.019063    0.016341   0.0072465
0.023812    0.009845   -0.011267   -0.012892   -0.017439     0.01894   0.0020496
0.021538    0.003024   -0.011592   -0.013541   -0.013216    0.022837  -0.0031473
0.019589  -0.0028225  -0.0057458   -0.014516  -0.0080194    0.024137  -0.0041217
0.023487  -0.0063954  -0.0015233   -0.018413  -0.0063954    0.024137  -0.0044465
0.030308  -0.0050961  -0.0050961   -0.021337   -0.007045    0.019589  -0.0024977
0.036479 -0.00054884   -0.018088   -0.021661   -0.010293    0.014068      0.0014
0.038753   0.0039985   -0.035953    -0.01614   -0.011267    0.008221   0.0075714
0.035505   0.0052977   -0.047971  -0.0050961  -0.0067202   0.0046481    0.016991
0.028359   0.0046481   -0.053492    0.008221 -0.00022403   0.0026992    0.023162
0.016991   0.0043233   -0.054467    0.017965   0.0036737  0.00075039    0.023162
0.0036737   0.0036737   -0.053492    0.023162   0.0039985  0.00042559    0.017316
-0.0076946   0.0049729   -0.046671    0.019589   0.0010752   0.0036737    0.010819
-0.014191   0.0052977   -0.037577    0.012768   0.0010752   0.0085458    0.011794
-0.018088   0.0020496   -0.028482   0.0052977   0.0043233    0.013743    0.017965
-0.023935  0.00042559    -0.02361 -0.00054884   0.0088706     0.01764    0.023487
-0.028157  0.00010078   -0.026533  -0.0054209   0.0091954    0.019914    0.028684
-0.026533  0.00075039   -0.030106   -0.007045   0.0033489    0.024461    0.030957
-0.01614  -0.0011985   -0.031081  -0.0018481  -0.0076946    0.031607    0.030957
-0.0024977  -0.0060706   -0.031406   0.0056225   -0.021661    0.035505    0.028359
0.0095202   -0.011917   -0.031081   0.0095202   -0.034978     0.03453    0.023162
0.016016   -0.015815    -0.03173   0.0052977   -0.039201    0.028034    0.016341
0.013093   -0.017764   -0.028807  -0.0096434    -0.03238     0.01894   0.0075714
-0.00022403   -0.020037   -0.028807   -0.032705   -0.021012     0.01017  -0.0018481
-0.015815   -0.021661    -0.03173   -0.056741    -0.01614   0.0052977  -0.0096434
-0.027833   -0.023285   -0.042124   -0.073631   -0.019712   0.0033489   -0.015165
-0.037252   -0.024909   -0.059664   -0.079477    -0.03238  -0.0018481   -0.018088
-0.042774   -0.028157   -0.076229    -0.07493   -0.052193   -0.012567   -0.021337
-0.043748   -0.029782   -0.084024    -0.05804   -0.076229   -0.028482    -0.02426
-0.038551   -0.027833   -0.075255   -0.026858   -0.097666   -0.043099   -0.026533
-0.03303   -0.020687   -0.051544    0.020564    -0.10709   -0.047971   -0.029782
-0.030106  -0.0073698   -0.016789    0.080653   -0.092794   -0.043423   -0.027508
-0.026533    0.009845    0.026085     0.14204   -0.056091   -0.031406   -0.017114
-0.019063    0.026735    0.066686     0.18784  -0.0099683   -0.018088 -0.00022403
-0.0076946    0.041351    0.093321     0.20538    0.029658  -0.0054209    0.013418
0.0072465    0.047198     0.10144     0.19044    0.051096   0.0049729    0.018615
0.021213    0.046223    0.090722     0.15438    0.049796    0.013093    0.016016
0.027709    0.040377    0.073182     0.11378    0.034206    0.016666    0.011144
0.027385    0.029658    0.058891    0.082277    0.014068    0.016991   0.0046481
0.025436     0.01764    0.049147    0.065387  -0.0021729    0.016341  -0.0034721
0.022837    0.010819    0.042975    0.056942   -0.013216    0.015042   -0.013541
0.01829   0.0095202     0.03583    0.046873   -0.018738    0.015042   -0.025559
0.013093   0.0095202    0.024786    0.033231   -0.019388    0.016016   -0.036278
0.0075714   0.0091954    0.010819    0.020239   -0.017764    0.015042   -0.040175
0.0046481    0.011794  -0.0024977    0.012443   -0.013541    0.015692   -0.036278
0.003024     0.01764  -0.0099683    0.012119  -0.0076946    0.016666   -0.025234
0.0010752    0.024137   -0.015165     0.01829  -0.0044465    0.016991   -0.014516
-0.0041217    0.026735   -0.015815     0.02641  -0.0044465    0.013093  -0.0080194
-0.0093186    0.022837   -0.013216    0.029658  -0.0067202   0.0062721  -0.0099683
-0.011917    0.014392  -0.0080194    0.027385  -0.0076946 -0.00054884   -0.019063
-0.008669   0.0075714  0.00042559    0.021538  -0.0054209  -0.0044465   -0.027183
-0.0028225   0.0069217   0.0088706    0.013743  -0.0028225  -0.0034721   -0.034654
0.0010752    0.012119    0.016016   0.0052977 -0.00022403 -0.00054884   -0.041799
0.00042559    0.019264    0.022512  0.00075039   0.0026992   0.0023744   -0.045697
-0.0067202    0.022837    0.027385   0.0020496   0.0039985   0.0039985   -0.046347
-0.017439    0.021213    0.028034   0.0069217   0.0065969   0.0043233   -0.044073
-0.022636    0.013743    0.023487    0.009845    0.010495      0.0014    -0.04115
-0.019063   0.0010752     0.01829     0.01017    0.014392  -0.0060706   -0.035953
-0.011267  -0.0089938    0.013743    0.011469    0.016341   -0.018413   -0.034004
-0.0041217   -0.016789    0.014717    0.013418    0.016666   -0.029782   -0.036278
-0.0021729   -0.022311     0.01764    0.015367    0.016991   -0.036278   -0.038227
-0.0060706   -0.029132    0.017316    0.015367    0.015367   -0.035628   -0.034978
-0.014516   -0.034654   0.0085458   0.0091954   0.0085458   -0.033679   -0.029457
-0.022311   -0.037252  -0.0060706  -0.0083442  -0.0080194   -0.035628   -0.023285
-0.026858   -0.036278   -0.021661   -0.038551   -0.031081   -0.044723   -0.013541
-0.025884   -0.030431   -0.034654   -0.072656   -0.052518   -0.055116  -0.0011985
-0.022961   -0.022961    -0.04115   -0.095068   -0.064536   -0.061937   0.0095202
-0.021337   -0.017764   -0.041799   -0.096692   -0.060963   -0.064211    0.011469
-0.021986   -0.015165   -0.038876   -0.079477   -0.039526   -0.061937   0.0026992
-0.023935   -0.012892   -0.031081   -0.054467  -0.0063954   -0.052843   -0.012242
-0.026858   -0.012892   -0.017764   -0.033354    0.028359   -0.039201   -0.022636
-0.028482   -0.015165  -0.0024977   -0.017764    0.054344   -0.028482   -0.022311
-0.025559   -0.012892    0.011469  -0.0089938    0.063113   -0.025234   -0.012892
-0.018738  -0.0076946    0.019914  -0.0073698    0.056942   -0.025884  0.00042559
-0.010618 -0.00087364    0.021213  -0.0083442    0.041351   -0.022961    0.012443
-0.0024977   0.0052977    0.015042  -0.0080194    0.023487   -0.016464    0.016991
0.0033489   0.0088706   0.0033489  -0.0076946   0.0049729   -0.013541    0.016016
0.0078962   0.0095202  -0.0076946  -0.0093186   -0.012892    -0.01484    0.010819
0.009845   0.0075714   -0.012892   -0.011917   -0.027508   -0.019063   0.0072465
0.008221   0.0052977  -0.0096434   -0.012892   -0.032705   -0.024585   0.0052977
0.0017248   0.0046481  -0.0018481  -0.0099683   -0.027833   -0.028482    0.003024
-0.010293   0.0039985   0.0039985 -0.00087364   -0.020687   -0.027833 -0.00054884
-0.022636   0.0039985   0.0039985    0.011794   -0.019063   -0.023285  -0.0060706
-0.028157   0.0023744  -0.0041217    0.023162   -0.024585   -0.021661   -0.013541
-0.025884  -0.0015233   -0.016464    0.029333    -0.03303   -0.020037   -0.020687
-0.018738  -0.0037969   -0.024909    0.030308     -0.0405   -0.015815   -0.026858
-0.0093186  -0.0034721   -0.030106    0.024461   -0.042449  -0.0089938   -0.027183
0.0010752  -0.0034721   -0.029457     0.01829   -0.039851  -0.0031473   -0.022961
0.0088706  -0.0073698   -0.021337    0.013418   -0.037252   0.0017248   -0.018738
0.0091954   -0.014191  -0.0060706   0.0088706   -0.037902   0.0059473   -0.015815
0.0010752   -0.016789    0.009845   0.0059473   -0.044398    0.012768   -0.013541
-0.0076946   -0.012892    0.020888   0.0062721   -0.051219     0.01764   -0.011267
-0.011917  -0.0060706    0.023162    0.010495   -0.053817    0.018615  -0.0067202
-0.010293 -0.00022403    0.015367    0.019914   -0.052193    0.015042  -0.0018481
-0.0089938   0.0039985   0.0017248    0.028359    -0.04862    0.010495   0.0033489
-0.010293   0.0062721   -0.010943    0.029658   -0.043748   0.0069217   0.0085458
-0.013866   0.0088706   -0.017764     0.01894   -0.037577   0.0026992    0.013743
-0.019063    0.008221   -0.020687   0.0036737   -0.029132  -0.0024977    0.012443
-0.026533   0.0059473   -0.024909  -0.0083442    -0.02361  -0.0041217   0.0065969
-0.032055   0.0049729   -0.029457   -0.012242    -0.02361  -0.0034721  -0.0024977
-0.034004   0.0065969   -0.029782  -0.0080194   -0.027833  -0.0050961   -0.012242
-0.03173   0.0072465   -0.026858   0.0017248   -0.033679   -0.011592   -0.020362
-0.026533   0.0033489   -0.021337    0.012119   -0.040175   -0.018413    -0.02426
-0.017114  0.00075039   -0.017439     0.01894   -0.044723   -0.023285   -0.018088
-0.0060706 -0.00054884    -0.01614    0.017965   -0.043748   -0.026858  -0.0034721
0.0033489  -0.0015233   -0.020687   0.0088706   -0.034329   -0.032705    0.014068
0.0069217  -0.0028225   -0.029457  -0.0024977   -0.018413   -0.039526    0.023812
0.00075039  -0.0057458   -0.038876   -0.010943  0.00010078   -0.046996    0.019264
-0.013541  -0.0073698   -0.043099    -0.01549     0.01764   -0.055116   0.0072465
-0.029132  -0.0080194   -0.038876   -0.016789    0.029009   -0.061613  -0.0024977
-0.038876  -0.0073698   -0.029132    -0.01614    0.036479   -0.066485  -0.0054209
-0.04115  -0.0044465   -0.020362   -0.011917    0.045574   -0.072006  -0.0024977
-0.038227  -0.0037969   -0.019388  -0.0063954     0.05207   -0.075904 -0.00022403
-0.031406  -0.0047713   -0.021012  -0.0018481    0.054993   -0.075255  0.00010078
-0.023935  -0.0054209   -0.021337    0.003024    0.054344   -0.069408  -0.0015233
-0.017764  -0.0037969   -0.016464    0.008221    0.049147   -0.060313  -0.0037969
-0.013216 -0.00054884  -0.0099683    0.010819    0.041027   -0.050569  -0.0067202
-0.0096434   0.0033489  -0.0054209    0.013093     0.02706   -0.042124  -0.0050961
-0.0080194   0.0078962  -0.0028225    0.016341   0.0088706   -0.034654 -0.00087364
-0.008669    0.011794  -0.0011985    0.017965  -0.0080194   -0.028482   0.0033489
-0.010293    0.013743  -0.0041217     0.01894   -0.019388   -0.022961   0.0072465
-0.008669    0.016016  -0.0080194     0.01829   -0.025884   -0.017114    0.010819
-0.0028225    0.015692   -0.010293    0.015692   -0.028482   -0.010943    0.011794
0.0056225    0.010819  -0.0083442    0.009845   -0.030431  -0.0076946    0.011144
0.014068   0.0049729  -0.0024977   0.0043233   -0.037902   -0.008669   0.0078962
0.021538   0.0017248    0.003024    0.003024   -0.052193   -0.011592   0.0065969
0.024461   0.0020496   0.0026992   0.0046481   -0.071357   -0.011592   0.0056225
0.021863   0.0036737  -0.0041217    0.011469   -0.089871  -0.0089938   0.0046481
0.015692   0.0043233   -0.011592    0.022188    -0.10351  -0.0067202      0.0014
0.0095202    0.003024   -0.016789    0.032257    -0.10741   -0.007045  -0.0050961
0.0039985   0.0010752   -0.017439     0.03583    -0.10449  -0.0063954   -0.011267
0.0026992  0.00010078   -0.014191    0.033231   -0.097666  -0.0047713   -0.013216
0.0072465      0.0014   -0.010293    0.027709   -0.092469  -0.0028225   -0.008669
0.014068   0.0043233   -0.011592    0.021213   -0.096692  -0.0015233      0.0014
0.019264   0.0085458   -0.018738    0.014068    -0.11326  -0.0018481    0.010819
0.018615    0.013743   -0.026209   0.0046481    -0.13729  -0.0024977    0.015042
0.016016     0.01829   -0.030431  -0.0034721    -0.15808  -0.0041217    0.012768
0.01017    0.022188   -0.030431  -0.0080194    -0.16133  -0.0054209   0.0052977
0.0033489    0.025761   -0.030106  -0.0067202    -0.14281  -0.0089938  -0.0034721
-0.0011985    0.025111   -0.029457  -0.0011985    -0.11001   -0.010943   -0.011917
0.0036737    0.019589   -0.026533   0.0056225   -0.071032   -0.008669   -0.019388
0.015042    0.011144   -0.020687   0.0088706    -0.03238  -0.0031473   -0.022311
0.030957 -0.00022403   -0.015815   0.0052977  -0.0037969   0.0020496   -0.016789
0.044275  -0.0076946   -0.010293  0.00010078    0.008221   0.0020496  -0.0050961
0.046223   -0.010618  -0.0089938  -0.0034721   0.0043233  -0.0011985    0.008221
0.034855  -0.0099683  -0.0099683  -0.0063954  -0.0089938  -0.0093186     0.01829
0.019264   -0.008669   -0.014516   -0.010293   -0.020687   -0.019388    0.023812
0.0059473   -0.007045   -0.019388   -0.013541   -0.023935   -0.027183     0.02641
-0.0018481  -0.0050961   -0.024585   -0.014516   -0.019712   -0.030431    0.025761
-0.0031473  -0.0041217   -0.028482   -0.012242   -0.012892   -0.029457    0.023162
-0.0015233  -0.0047713   -0.026533  -0.0067202  -0.0018481   -0.025234     0.01829
-0.0021729  -0.0021729   -0.020687  -0.0011985   0.0091954   -0.021986    0.012768
-0.0063954   0.0023744   -0.014191   0.0017248    0.014717   -0.020362    0.008221
-0.0080194    0.008221   -0.011917   0.0026992    0.012768   -0.021661   0.0091954
-0.0028225    0.012768   -0.012242   0.0026992    0.008221   -0.022311    0.015042
0.0075714    0.014392   -0.010618   0.0020496   0.0043233   -0.019388    0.022188
0.01829    0.012119  -0.0050961      0.0014   0.0033489   -0.012242    0.025436
0.025436     0.01017   0.0069217  -0.0024977   0.0039985  0.00075039    0.023812
0.025761   0.0085458    0.021213   -0.010618   0.0039985    0.014068    0.020239
0.023812   0.0072465    0.033231   -0.020687 -0.00022403    0.020564    0.015367
0.025111   0.0026992    0.039078   -0.028482  -0.0057458    0.022837   0.0075714
0.025111  -0.0041217    0.038428   -0.031081   -0.010618    0.020564  -0.0028225
0.021863   -0.010293    0.030957   -0.031406   -0.014191    0.015692   -0.012242
0.016666   -0.015815     0.01829   -0.029782   -0.015165    0.011144   -0.017764
0.009845   -0.019063   0.0059473   -0.024909   -0.012242   0.0059473   -0.018088
0.003024   -0.020037 -0.00054884   -0.019712  -0.0044465  0.00075039   -0.014191
-0.0011985   -0.016789  0.00042559   -0.016464   0.0052977  -0.0021729  -0.0083442
-0.0024977  -0.0099683   0.0062721    -0.01614    0.014717  -0.0031473  -0.0034721
-0.0060706   0.0010752    0.011794   -0.015165     0.01894  -0.0044465   0.0010752
-0.012567    0.011144    0.015042   -0.010618    0.016016  -0.0093186   0.0049729
-0.020687     0.01829    0.015692  -0.0024977   0.0078962   -0.017114     0.01017
-0.027183    0.022512    0.016016   0.0036737  0.00075039   -0.024585    0.016666
-0.030106    0.022837    0.013743   0.0039985  -0.0015233   -0.028482    0.024137
-0.028482    0.020239   0.0078962 -0.00087364   0.0023744   -0.027508    0.028034
-0.021986    0.014717  -0.0021729  -0.0073698    0.009845   -0.025884    0.027709
-0.017439   0.0085458   -0.011917   -0.014191    0.014068   -0.025559    0.023812
-0.016464   0.0033489   -0.015815   -0.020687    0.011469   -0.027833     0.01894
-0.017764 -0.00054884   -0.013866    -0.02361   0.0056225   -0.031081    0.016016
-0.021986  -0.0028225   -0.010293    -0.02426 -0.00022403   -0.034004    0.016016
-0.028157  -0.0041217  -0.0073698   -0.022961  -0.0018481   -0.036927     0.01764
-0.037252  -0.0028225  -0.0018481   -0.020362 -0.00087364   -0.034004    0.020564
-0.048296  0.00010078   0.0049729   -0.020037   0.0056225   -0.018738    0.020888
-0.05739   0.0010752    0.012443   -0.021337    0.015692   0.0049729    0.016341
-0.060638  -0.0021729    0.016991   -0.023935    0.024137    0.024461   0.0091954
-0.058365   -0.010943    0.019589    -0.02426     0.02641    0.030957   0.0043233
-0.052843   -0.020037     0.01829    -0.02426    0.024137    0.025111  0.00010078
-0.048945   -0.027183    0.012443   -0.024585    0.017965    0.011144  -0.0044465
-0.044398    -0.03173   0.0072465   -0.024909     0.01017  -0.0034721  -0.0080194
-0.039201   -0.036927   0.0017248   -0.025884   0.0026992   -0.015165   -0.010618
-0.029782   -0.042124  -0.0028225   -0.026533  -0.0041217   -0.023285   -0.010618
-0.018738   -0.045697  -0.0093186   -0.024585  -0.0067202   -0.028482  -0.0083442
-0.0096434   -0.048296   -0.015815   -0.017439  -0.0037969   -0.030106  -0.0050961
-0.0034721    -0.04927   -0.018738  -0.0041217   0.0069217   -0.028807  -0.0031473
0.0017248   -0.045047   -0.018738    0.011469    0.019914   -0.025884  -0.0044465
0.011469   -0.037577   -0.015165    0.023487     0.02641   -0.021337  -0.0080194
0.023812   -0.028482   -0.010618    0.033881    0.023487   -0.014191   -0.013216
0.033881   -0.017439  -0.0050961    0.041676    0.014068  -0.0083442   -0.018413
0.03583  -0.0073698  -0.0018481    0.045249   0.0020496  -0.0050961   -0.022636
0.029333  -0.0011985   0.0010752    0.044275  -0.0093186  -0.0063954   -0.025234
0.018615 -0.00087364   0.0036737    0.036804   -0.015815   -0.010618   -0.026209
0.0091954  -0.0047713   0.0059473    0.028034   -0.019388    -0.01484   -0.027183
0.0014   -0.010293    0.008221    0.019914   -0.018738   -0.021337   -0.025234
-0.0031473   -0.013541   0.0046481    0.014068   -0.018738   -0.027833   -0.018413
-0.0034721   -0.015165  -0.0028225    0.011144   -0.018088    -0.03238   -0.007045
0.0023744   -0.016464   -0.011592    0.012119   -0.014516   -0.036602   0.0043233
0.012768   -0.017439   -0.018413    0.017316  -0.0096434   -0.037902    0.013418
0.019589   -0.018088   -0.022961    0.021213  -0.0034721   -0.034329    0.016991
0.019914   -0.018088   -0.024909    0.019264   0.0039985   -0.030756     0.01764
0.013743   -0.017439   -0.025884    0.013093    0.010819   -0.031081    0.015692
0.0075714   -0.015815   -0.028807   0.0043233    0.011469   -0.037252    0.012443
0.0017248   -0.011592    -0.03173  -0.0018481   0.0059473    -0.04115   0.0059473
-0.0057458   -0.007045   -0.031406  -0.0034721  -0.0018481   -0.036927  0.00042559
-0.013866  -0.0067202   -0.026858  0.00042559  -0.0057458   -0.026209  -0.0037969
-0.017764  -0.0093186   -0.020037   0.0052977  -0.0050961   -0.017439  -0.0011985
-0.015165   -0.014516   -0.015165   0.0085458      0.0014   -0.017764    0.008221
-0.0089938   -0.017764   -0.014191   0.0091954    0.015367   -0.024909    0.024461
-0.0050961   -0.019063    -0.01614   0.0069217    0.028359    -0.03173    0.036804
-0.0099683    -0.01484   -0.015815   0.0017248    0.030633    -0.03303    0.037778
-0.021012  -0.0057458   -0.011267  -0.0031473    0.022188   -0.027833    0.028684
-0.031081   0.0036737  -0.0060706  -0.0018481    0.012768   -0.020362    0.015692
-0.033679   0.0069217  -0.0034721    0.003024   0.0072465   -0.011267   0.0043233
-0.027833   0.0043233  -0.0041217   0.0059473   0.0056225  -0.0024977  -0.0041217
-0.021012  -0.0041217  -0.0041217   0.0046481   0.0036737   0.0062721   -0.007045
-0.018738   -0.011267  -0.0021729 -0.00054884   0.0020496     0.01017  -0.0028225
-0.018738   -0.015815  -0.0011985  -0.0034721  -0.0037969   0.0062721   0.0023744
-0.017114   -0.018738  -0.0037969  -0.0083442   -0.013541  -0.0080194  0.00075039
-0.013866   -0.019388   -0.008669   -0.017439   -0.028482   -0.028482  -0.0096434
-0.010618   -0.019712    -0.01484   -0.033354   -0.047971   -0.046996   -0.023285
-0.0083442   -0.016464   -0.020687    -0.05739   -0.065186   -0.056741   -0.035628
-0.0060706  -0.0083442   -0.021986   -0.077853   -0.072981   -0.055116   -0.042449
-0.0050961   0.0046481   -0.018738   -0.082076   -0.070707   -0.044398   -0.043423
-0.0063954     0.01829   -0.015165   -0.063561   -0.061937   -0.032055   -0.039851
-0.0060706    0.029333   -0.014191   -0.028807    -0.04862   -0.021012   -0.034004
0.0017248    0.036804   -0.016789   0.0085458   -0.034654   -0.012892   -0.025234
0.013418    0.042975   -0.019388    0.041027   -0.024585   -0.007045   -0.017114
0.024461    0.046873   -0.020687    0.064413   -0.021337  -0.0057458   -0.010943
0.032257    0.048172   -0.018738    0.076106   -0.022961  -0.0063954  -0.0063954
0.03583    0.045899   -0.014191    0.078055   -0.027508  -0.0047713  -0.0018481
0.03583    0.040702  -0.0073698     0.06961   -0.032055  -0.0031473    0.003024
0.03453     0.03453  -0.0031473    0.055968   -0.035303  -0.0050961   0.0056225
0.030957    0.029333  0.00075039    0.042001   -0.037577   -0.011917   0.0033489
0.026085    0.028684   0.0020496    0.028359   -0.037577   -0.021661  -0.0028225
0.021863    0.031282  0.00042559    0.020239   -0.037577   -0.030106  -0.0076946
0.017965    0.034855  -0.0031473    0.016666   -0.035628   -0.036278   -0.010943
0.014717    0.037454  -0.0080194    0.015692   -0.032705   -0.039526    -0.01484
0.013418    0.038103  -0.0099683    0.014068   -0.027833   -0.041475   -0.018088
0.017316    0.037454   -0.010943     0.01017   -0.019712   -0.042124   -0.017764
0.023487     0.03518  -0.0093186   0.0056225  -0.0080194   -0.040175   -0.013541
0.02641    0.031282  -0.0050961   0.0010752 -0.00054884   -0.035628  -0.0067202
0.022188    0.027385  0.00042559 -0.00022403 -0.00087364   -0.028482  -0.0018481
0.013418    0.025111   0.0043233   0.0020496  -0.0083442   -0.022636  0.00042559
0.0043233    0.021538   0.0023744   0.0069217   -0.020687   -0.017439 -0.00087364
0.00042559    0.016991  -0.0018481    0.011469   -0.031406  -0.0089938  -0.0037969
0.0023744    0.012443  -0.0057458    0.013093   -0.037577 -0.00087364  -0.0093186
0.0091954    0.012768   -0.014516    0.011794     -0.0405   0.0026992   -0.016789
0.016991    0.017965   -0.028482    0.010495     -0.0405   0.0023744   -0.025234
0.019914     0.02641   -0.044073    0.010819   -0.040175      0.0014   -0.031081
0.017965    0.033231   -0.054792    0.011794   -0.039851  0.00042559    -0.03303
0.009845    0.036479   -0.059014    0.012443   -0.035628 -0.00022403    -0.03238
-0.00054884    0.037129   -0.058689    0.011144   -0.028482  -0.0044465    -0.03173
-0.010943     0.03453   -0.052843     0.01017   -0.022961   -0.013541   -0.031081
-0.018738    0.029983   -0.043099    0.010819   -0.020362   -0.025234   -0.031081
-0.024585    0.019264   -0.032705    0.013093   -0.022311   -0.031081    -0.03173
-0.026209   0.0072465   -0.028807     0.01764   -0.025559   -0.027508   -0.034654
-0.021337  -0.0018481   -0.030756    0.021863   -0.029132   -0.017114   -0.036927
-0.01549  -0.0063954   -0.034329    0.022512   -0.034329  -0.0073698   -0.037577
-0.011917  -0.0083442   -0.037252    0.014717   -0.038551  -0.0037969   -0.035953
-0.014516   -0.014516   -0.040825   0.0049729   -0.038876  -0.0021729   -0.030756
-0.020687   -0.021661   -0.041475  -0.0028225   -0.034329 -0.00022403   -0.024585
-0.027183   -0.025884   -0.038551   -0.011917   -0.028157   0.0033489   -0.021337
-0.033679   -0.023935   -0.035303   -0.020362   -0.023935   0.0056225   -0.021012
-0.040175   -0.019388   -0.029457   -0.021661   -0.023935   0.0065969   -0.021337
-0.044398   -0.011917   -0.021986    -0.01484   -0.024585   0.0052977   -0.016464
-0.044398  -0.0034721    -0.01484  0.00010078   -0.025884   0.0046481  -0.0041217
-0.038551   0.0033489   -0.011592    0.014717   -0.027183   0.0056225   0.0075714
-0.028807   0.0072465   -0.016464    0.022512   -0.023285   0.0078962    0.011469
-0.018413   0.0065969   -0.027833    0.021863   -0.011917     0.01017   0.0085458
-0.0099683  0.00075039   -0.038876    0.012119   0.0056225    0.014717   0.0023744
-0.0044465  -0.0083442   -0.046022  -0.0073698    0.025111     0.01829  -0.0041217
0.00075039   -0.015815   -0.042449   -0.031081    0.040052    0.016666  -0.0093186
0.0056225   -0.017439   -0.027833   -0.051868     0.04395   0.0095202   -0.011267
0.0085458   -0.010943  -0.0083442   -0.061613    0.033231 -0.00054884  -0.0096434
0.0091954  -0.0011985    0.011794   -0.053817    0.009845  -0.0093186  -0.0096434
0.011144    0.008221    0.026735   -0.029782    -0.01484    -0.01549   -0.012567
0.015367    0.012119    0.040702   0.0033489    -0.03173   -0.017114   -0.017114
0.022837   0.0085458    0.056942    0.036154   -0.035628   -0.014191   -0.019388
0.029333   0.0020496    0.072208    0.062139   -0.032705   -0.010943   -0.014191
0.034206  -0.0054209    0.081303    0.075456   -0.028157  -0.0076946  -0.0034721
0.035505   -0.010943    0.078704    0.075456   -0.028807  -0.0028225   0.0069217
0.032257    -0.01484    0.067011    0.066037   -0.037252   0.0026992    0.010819
0.023487    -0.01484    0.050771    0.049796   -0.046996   0.0069217   0.0059473
0.011469   -0.012567    0.038753    0.027709   -0.050894   0.0062721  -0.0044465
-0.0041217  -0.0093186    0.029658   0.0043233   -0.049595 -0.00054884   -0.012892
-0.017439  -0.0060706    0.021213   -0.013866   -0.040825  -0.0093186   -0.014191
-0.02426  -0.0031473    0.015367   -0.021661   -0.029132   -0.019063   -0.012567
-0.027508  -0.0018481    0.013093   -0.022636   -0.016789   -0.027508  -0.0083442
-0.029457  -0.0037969    0.009845   -0.020362  -0.0076946   -0.035303  -0.0031473
-0.033679  -0.0076946   0.0059473   -0.018088   -0.007045   -0.037902 -0.00022403
-0.037577   -0.010943   0.0017248   -0.018088    -0.01484    -0.03303  -0.0011985
-0.039201   -0.010943  0.00042559   -0.020037   -0.023285   -0.021986  -0.0054209
-0.035628  -0.0083442  0.00075039   -0.020362   -0.028157  -0.0080194  -0.0096434
-0.025559  -0.0067202  -0.0054209   -0.017764   -0.028157  0.00010078  -0.0093186
-0.013216  -0.0073698    -0.01484  -0.0096434   -0.025884 -0.00022403 -0.00022403
-0.0060706   -0.010293   -0.021986  0.00010078   -0.022961  -0.0067202    0.012119
-0.0050961   -0.013541   -0.020687   0.0072465   -0.022961   -0.014191    0.021863
-0.0067202   -0.016789   -0.011917   0.0039985   -0.030106   -0.018738    0.024786
-0.0099683   -0.022961  -0.0015233  -0.0083442   -0.043748   -0.021012    0.023812
-0.012567   -0.025559   0.0062721   -0.023285   -0.059339   -0.023285    0.023162
-0.019063   -0.023935    0.008221   -0.030756   -0.070382    -0.02426    0.026085
-0.029457   -0.021012   0.0036737   -0.029782   -0.071032   -0.023935    0.032906
-0.041475   -0.018738  -0.0057458   -0.021337   -0.062587    -0.02426    0.036479
-0.048296   -0.018413   -0.014516   -0.010943   -0.050244   -0.023285    0.033231
-0.045047   -0.018413   -0.020362  -0.0028225   -0.038876   -0.020037    0.025111
-0.030756   -0.017764   -0.018738  0.00010078   -0.027183   -0.013866    0.019589
-0.0096434    -0.01614   -0.014191   0.0023744   -0.014516  -0.0018481    0.019589
0.0078962   -0.011917   -0.010618   0.0043233  -0.0041217    0.012768    0.021863
0.015367  -0.0054209   -0.010293   0.0085458   0.0020496    0.022188    0.023162
0.013093  0.00010078   -0.011592    0.015367   0.0020496    0.022188    0.024137
0.0075714   0.0049729   -0.011917    0.020239  -0.0018481     0.01764    0.024137
0.003024    0.008221  -0.0089938    0.019914  -0.0073698    0.012119    0.021213
0.00075039   0.0088706  -0.0024977    0.015692   -0.010618   0.0069217    0.015042
-0.0031473   0.0078962   0.0052977   0.0095202   -0.012567   0.0046481    0.013743
-0.007045   0.0056225   0.0072465   0.0043233  -0.0099683   0.0039985    0.017316
-0.011917   0.0039985   0.0020496  0.00075039  -0.0037969   0.0039985    0.019914
-0.012892   0.0033489  -0.0050961 -0.00054884   0.0026992   0.0049729    0.017965
-0.010293   0.0023744   -0.007045  -0.0024977   0.0056225   0.0075714    0.010819
-0.0050961  0.00075039  -0.0057458  -0.0031473   0.0039985   0.0095202   0.0017248
-0.00054884  0.00010078  -0.0015233  0.00010078  0.00075039    0.009845   -0.007045
0.0020496   0.0020496   0.0033489   0.0056225 -0.00054884    0.010495   -0.011267
-0.0028225   0.0036737   0.0091954   0.0088706  -0.0015233    0.012443   -0.011592
-0.011592   0.0033489    0.011469    0.008221 -0.00087364    0.016016  -0.0080194
-0.021986 -0.00022403    0.013743   0.0069217  -0.0024977    0.016991 -0.00022403
-0.026209  -0.0044465    0.012768   0.0065969  -0.0073698    0.014392   0.0091954
-0.024585  -0.0063954   0.0043233   0.0046481   -0.013216    0.008221    0.015692
-0.019388   -0.007045   -0.010943  0.00075039   -0.018413  -0.0024977    0.014717
-0.01484  -0.0054209   -0.025234  -0.0054209    -0.02426   -0.013216   0.0049729
-0.012567  -0.0011985    -0.03173   -0.010618   -0.029132   -0.018413   -0.007045
-0.0093186   0.0046481   -0.032705   -0.011267   -0.028482   -0.018738   -0.012892
-0.0034721   0.0078962   -0.030106   -0.007045   -0.019388   -0.017439   -0.008669
0.0039985   0.0046481   -0.022961      0.0014   0.0059473   -0.018088 -0.00022403
0.009845  -0.0037969   -0.008669    0.012119     0.04395    -0.02426   0.0085458
0.014068   -0.013216   0.0075714    0.019589    0.079029   -0.035953    0.013743
0.016991   -0.018738    0.020239    0.022188    0.099167   -0.047321    0.013093
0.015042   -0.019063    0.022188    0.019914    0.099492   -0.054467   0.0088706
0.0065969   -0.015165    0.016991    0.016341    0.081303   -0.056741   0.0020496
-0.007045   -0.013866   0.0088706    0.012119    0.054344   -0.056416  -0.0060706
-0.019388   -0.016464      0.0014   0.0056225    0.022188   -0.054792    -0.01484
-0.027183   -0.020037 -0.00022403  -0.0028225   -0.007045   -0.055766   -0.023285
-0.030106   -0.022961   0.0043233   -0.008669    -0.02361    -0.05739    -0.03173
-0.030106   -0.025559    0.010819  -0.0083442    -0.02426   -0.053817   -0.035953
-0.029132   -0.030106    0.013418 -0.00022403    -0.01549   -0.041475    -0.03238
-0.027183   -0.035303    0.013743    0.011469  -0.0044465   -0.029132   -0.023285
-0.02426   -0.036602    0.010495    0.023162   0.0052977   -0.022961   -0.014191
-0.020037   -0.029457   0.0065969    0.028684    0.012768    -0.02426  -0.0047713
-0.013866   -0.013866   0.0033489    0.023162     0.01894    -0.02426   0.0043233
-0.008669   0.0039985  0.00010078    0.011794    0.023812   -0.023285   0.0091954
-0.0057458     0.01764 -0.00087364  0.00042559    0.026735   -0.025559    0.010495
-0.0076946    0.022837   0.0010752  -0.0034721    0.026085   -0.028157   0.0095202
-0.010943     0.01894   0.0036737  0.00010078    0.026085   -0.033679   0.0085458
-0.01484   0.0078962   0.0078962   0.0095202     0.02641   -0.039851   0.0062721
-0.020687  -0.0037969   0.0088706    0.019589    0.021863   -0.038551   0.0056225
-0.026533   -0.013216    0.010495    0.026085    0.012768   -0.024909   0.0091954
-0.029457    -0.01614    0.011469    0.025436   0.0059473  -0.0037969    0.016341
-0.028157   -0.011592    0.011794    0.021213      0.0014    0.016341    0.021538
-0.019063  -0.0028225   0.0075714    0.016341  0.00042559    0.024786    0.022512
-0.0063954   0.0039985  -0.0015233    0.014068 -0.00087364    0.021213    0.020564
0.0046481   0.0043233   -0.012242    0.013093  -0.0060706    0.010819     0.01764
0.01017  -0.0011985   -0.020362    0.012768   -0.016464 -0.00054884    0.013743
0.012768  -0.0099683   -0.029132    0.012443   -0.031081  -0.0057458    0.012119
0.014068   -0.016464   -0.036927    0.012119   -0.046022  -0.0063954     0.01017
0.012443   -0.019388   -0.039201    0.013093   -0.060963  -0.0073698    0.008221
0.01017   -0.018088   -0.036927    0.014392   -0.072656  -0.0096434   0.0043233
0.0078962   -0.013216   -0.032705    0.011469   -0.085648    -0.01549 -0.00022403
0.0039985   -0.008669   -0.028157   0.0046481   -0.098641   -0.020362  -0.0057458
0.00075039  -0.0041217   -0.028157  -0.0060706    -0.11098    -0.02426  -0.0096434
0.00010078  -0.0028225   -0.029132   -0.017439     -0.1243   -0.023285   -0.008669
-0.00022403  -0.0037969   -0.029457   -0.025234    -0.14119   -0.020362  -0.0076946
0.00010078   -0.007045   -0.030756   -0.028482    -0.15905   -0.020687  -0.0076946
-0.0028225  -0.0099683   -0.030431   -0.028807     -0.1727   -0.027508  -0.0041217
-0.010293  -0.0096434   -0.029782   -0.025884    -0.17822   -0.037902   0.0056225
-0.019388  -0.0067202   -0.030106   -0.020687    -0.17627   -0.047646    0.016341
-0.022636 -0.00087364   -0.034329   -0.017439    -0.16782   -0.056091    0.022188
-0.014191   0.0052977   -0.037902   -0.022636    -0.15158   -0.064861    0.024461
0.0014   0.0069217   -0.041475   -0.034004     -0.1295   -0.067459    0.022512
0.015367   0.0059473   -0.046347   -0.044398    -0.10774   -0.064536    0.015692
0.023812   0.0020496   -0.050569   -0.050894   -0.087922   -0.063561   0.0056225
0.02641  -0.0021729   -0.052193   -0.050244   -0.070382   -0.069408  -0.0024977
0.022188  -0.0073698   -0.047321   -0.044398   -0.054467   -0.077853   -0.007045
0.012443  -0.0096434   -0.035303   -0.036927   -0.040825   -0.085973   -0.011267
0.0046481  -0.0089938   -0.019712   -0.032055   -0.028807   -0.089871   -0.014516
0.00010078  -0.0076946   -0.010943   -0.033354   -0.021337   -0.085324   -0.020362
-0.0021729  -0.0041217   -0.011267   -0.037577   -0.019712   -0.073955   -0.025559
-0.0021729 -0.00022403   -0.020037   -0.037577   -0.023285   -0.060963   -0.026533
-0.0011985   0.0036737   -0.030106   -0.030431    -0.02361   -0.050244   -0.021661
0.0056225    0.009845   -0.032055   -0.015165   -0.019063   -0.039526   -0.013866
0.013743    0.017316   -0.024909    0.003024   -0.010618   -0.029457  -0.0083442
0.019914    0.022188   -0.011592     0.01829 -0.00022403   -0.021337  -0.0057458
0.021213    0.024137   0.0043233    0.025761     0.01017   -0.017439  -0.0044465
0.01829     0.02641    0.017965    0.022512    0.020239   -0.017439  -0.0018481
0.012119    0.030957    0.023162    0.013093    0.027709   -0.021661   0.0023744
0.0036737    0.039078     0.01829   0.0049729    0.030957   -0.025234   0.0078962
-0.0050961    0.043625   0.0095202   0.0036737    0.030957   -0.027833    0.013743
-0.0099683      0.0433  -0.0011985   0.0085458     0.02641   -0.029457     0.01764
-0.0083442    0.039078  -0.0089938    0.016341    0.016666   -0.025884    0.023812
-0.00087364     0.03453   -0.014191    0.025761     0.01017   -0.018738    0.029333
0.0075714    0.030633   -0.016789    0.033881    0.012119  -0.0093186    0.028684
0.011144    0.025761   -0.017114    0.037129    0.021213  -0.0018481    0.024786
0.0069217    0.020564   -0.015815    0.036479    0.029333      0.0014    0.019589
0.0010752     0.01829   -0.012567    0.034855    0.031932   0.0033489    0.015367
-0.00054884    0.014717  -0.0093186    0.033231    0.031282   0.0033489    0.011469
0.0039985    0.013743   -0.007045    0.028359    0.029983   0.0017248   0.0072465
0.0088706    0.015042   -0.007045    0.020564    0.025761 -0.00022403   0.0036737
0.0075714    0.017316  -0.0060706    0.011794    0.023162  -0.0011985  0.00042559
0.0026992    0.019589  -0.0024977   0.0026992    0.028684 -0.00054884  -0.0015233
0.0017248    0.023487      0.0014  -0.0034721    0.036804  0.00075039  -0.0044465
0.0069217    0.029009   0.0020496  -0.0083442    0.044599  0.00010078  -0.0080194
0.01764    0.034206  -0.0011985   -0.013216     0.05207  -0.0011985   -0.012567
0.024461    0.038103  -0.0057458   -0.016464    0.060515  -0.0018481   -0.017439
0.021213    0.039078  -0.0057458   -0.018413    0.065387  0.00010078   -0.022636
0.012443    0.037454      0.0014   -0.019063    0.067011   0.0023744   -0.024585
0.0046481    0.034206    0.012119   -0.016464    0.068635    0.003024   -0.025884
0.0046481    0.031607    0.021863  -0.0096434    0.066686   0.0010752   -0.026209
0.015042    0.028359     0.02641  -0.0015233     0.06019  -0.0018481   -0.028157
0.027385    0.025436    0.025111   0.0056225    0.049472  -0.0011985   -0.027508
0.033231    0.023162    0.021213    0.011794     0.03518   0.0052977   -0.022636
0.028034     0.01894    0.015692    0.012119    0.021863    0.013743   -0.019712
0.013418    0.010495   0.0078962   0.0072465    0.009845    0.020239   -0.022311
-0.0037969  -0.0018481  -0.0018481   0.0010752   0.0026992    0.022512   -0.028807
-0.017764   -0.015815   -0.010618  -0.0018481  -0.0024977    0.023487   -0.033679
-0.023935   -0.026533   -0.015815   0.0010752   -0.007045    0.029009   -0.035953
-0.021986   -0.031081   -0.016464     0.01017   -0.010618    0.037454   -0.034978
-0.012242   -0.030431    -0.01484    0.021213   -0.013216    0.042975   -0.035303
0.0023744   -0.026209   -0.011267    0.029983   -0.013866      0.0433   -0.034329
0.01764   -0.019712  -0.0083442    0.036804    -0.01484    0.042651   -0.034004
0.031282   -0.010618  -0.0047713      0.0433    -0.01549    0.042975    -0.03173
0.036479  -0.0011985  -0.0041217    0.048497   -0.016464    0.045574   -0.029132
0.036154   0.0065969  -0.0015233    0.044599   -0.019388    0.044275   -0.027508
0.032582    0.012119    0.003024    0.032257   -0.022311    0.036479   -0.027833
0.024137    0.016341   0.0072465    0.016991   -0.024585    0.021213   -0.028157
0.012768     0.01829   0.0075714   0.0056225   -0.029132   0.0069217   -0.028482
0.0026992    0.014392   0.0026992  -0.0028225   -0.036602  -0.0047713   -0.024585
-0.0047713    0.008221  -0.0050961  -0.0093186   -0.044073  -0.0073698   -0.018738
-0.012567   0.0052977   -0.011917  -0.0089938    -0.04862  -0.0060706   -0.014191
-0.019712   0.0033489   -0.017439 -0.00087364   -0.051219  -0.0015233  -0.0093186
-0.022636   0.0039985   -0.021012   0.0088706   -0.053168   0.0010752  -0.0015233
-0.018413   0.0046481   -0.021012    0.012119   -0.052193  -0.0011985   0.0075714
-0.0099683   0.0033489    -0.01549   0.0085458   -0.047321  -0.0067202     0.01017
-0.0054209   0.0010752  -0.0063954   0.0078962   -0.038876   -0.014191   0.0049729
-0.008669  -0.0024977 -0.00087364    0.011469   -0.032055   -0.023935  -0.0057458
-0.01484  -0.0080194  -0.0041217    0.014392   -0.026858   -0.034329   -0.015815
-0.021986  -0.0089938  -0.0096434    0.012443   -0.023935   -0.042774   -0.021661
-0.025884  -0.0050961   -0.010943    0.009845    -0.02361   -0.047321   -0.025559
-0.027833   0.0023744  -0.0096434     0.01017   -0.027183   -0.044398   -0.027833
-0.027508   0.0072465   -0.008669    0.012119   -0.033354   -0.038876   -0.027833
-0.027833   0.0085458   -0.008669    0.014068    -0.03238   -0.033679   -0.026858
-0.029782   0.0059473  -0.0083442    0.010495   -0.025234   -0.029782   -0.027833
-0.031081  -0.0011985  -0.0063954    0.003024   -0.017114   -0.025884   -0.030756
-0.030106   -0.012242  -0.0034721  -0.0054209   -0.011592   -0.021012    -0.03303
-0.029782    -0.02361  0.00075039   -0.011917  -0.0093186    -0.01549   -0.032705
-0.031406   -0.027508   0.0039985   -0.015815   -0.011267  -0.0093186   -0.030106
-0.030756   -0.022961   0.0056225   -0.018088    -0.01484  -0.0054209   -0.022961
-0.026858    -0.01484   0.0043233   -0.020687   -0.018413   -0.007045   -0.014191
-0.022311  -0.0060706    0.003024   -0.021986   -0.019388   -0.013541  -0.0076946
-0.019063   0.0020496   0.0010752   -0.018738   -0.017114   -0.022961  -0.0041217
-0.014516   0.0091954  -0.0063954   -0.012567   -0.011592   -0.029782  -0.0024977
-0.0096434    0.013093   -0.019388  -0.0060706  -0.0063954   -0.033354 -0.00054884
-0.011592    0.011794   -0.032705 -0.00054884  -0.0099683   -0.036927  0.00010078
-0.025234   0.0059473   -0.038227   0.0023744   -0.019388   -0.043423  -0.0031473
-0.045697 -0.00087364   -0.036602   0.0036737   -0.026209   -0.051544   -0.010943
-0.058365  -0.0089938   -0.030106   0.0033489   -0.027508   -0.057065   -0.021337
-0.05804    -0.01484    -0.02426   0.0026992   -0.024909   -0.059339   -0.028157
-0.044723   -0.017764   -0.025559  0.00042559   -0.024909   -0.059339   -0.030756
-0.027508   -0.017114   -0.034004  -0.0011985   -0.027508   -0.061288   -0.030431
-0.01614    -0.01484   -0.040825  -0.0011985   -0.030106   -0.063886   -0.027183
-0.010943   -0.008669   -0.038551 -0.00087364   -0.024585   -0.062912   -0.019388
-0.014516      0.0014   -0.025884  0.00042559   -0.015165   -0.056741   -0.008669
-0.022636    0.012768   -0.007045   0.0033489   -0.010943   -0.051219   0.0020496
-0.027183    0.019914   0.0095202   0.0062721   -0.014516    -0.04992    0.009845
-0.026533    0.023812    0.019914   0.0085458    -0.02361   -0.048296    0.013093
-0.020687    0.025111    0.021863    0.008221   -0.031081   -0.044398    0.014392
-0.012242    0.024137    0.015367   0.0091954   -0.031081   -0.034004    0.014068
-0.00022403    0.020564   0.0062721    0.010495   -0.023935   -0.023285    0.016991
0.013093    0.016016  -0.0050961    0.012768   -0.015815    -0.01614    0.022837
0.023487    0.011794    -0.01484    0.014392  -0.0096434   -0.014516    0.027385
0.029333    0.008221   -0.022636    0.015692  -0.0060706   -0.014516    0.028359
0.030633   0.0052977   -0.026209    0.016341  -0.0044465   -0.017114    0.028034
0.02706   0.0017248    -0.02426     0.01764  -0.0028225   -0.020037    0.028034
0.025111  -0.0028225   -0.016789    0.019264  0.00010078   -0.022636    0.031607
0.02706  -0.0063954   -0.010293    0.021863   0.0023744   -0.024585    0.033231
0.028034   -0.007045  -0.0063954    0.025436  0.00010078   -0.027833    0.029983
0.022188  -0.0050961  -0.0057458    0.027385  -0.0057458   -0.027508    0.021213
0.012768  -0.0041217  -0.0080194    0.027709   -0.011917   -0.022311    0.010819
0.0062721  -0.0050961   -0.010293    0.024786    -0.01614   -0.011592   0.0026992
0.0056225  -0.0089938   -0.012242    0.017316   -0.020687   0.0010752   0.0039985
0.008221    -0.01484   -0.013541    0.008221   -0.028807    0.011469    0.011144
0.011794   -0.022636   -0.014516  0.00075039     -0.0405    0.016016     0.01894
0.013743   -0.029457    -0.01549   0.0020496   -0.055116    0.016016    0.022188
0.009845    -0.03173   -0.013866    0.011144   -0.070707    0.014717    0.019264
-0.0024977   -0.032055  -0.0080194    0.023487   -0.080451    0.014717    0.013743
-0.016789   -0.030756   0.0039985    0.032257   -0.078827    0.017965    0.012768
-0.02426   -0.029782     0.01894    0.031932    -0.06616    0.021538    0.019589
-0.020037   -0.030431    0.029658    0.022188   -0.051544    0.028034     0.02706
-0.010618   -0.030756    0.031932   0.0075714   -0.042124    0.038103    0.027709
0.00042559   -0.031406    0.027709  -0.0089938   -0.038876    0.044275    0.022188
0.0088706   -0.031406    0.020239    -0.02426   -0.038227    0.041027    0.016341
0.01017   -0.034654    0.012443   -0.035628   -0.039201    0.028034    0.010495
0.0036737    -0.04115   0.0046481   -0.039851   -0.039851    0.011794   0.0091954
-0.0073698   -0.047321  -0.0034721   -0.039201   -0.032705  0.00075039    0.012443
-0.021337    -0.04992   -0.012567   -0.034978   -0.022636  -0.0041217    0.015367
-0.030106   -0.050569   -0.021012   -0.028482    -0.01549  -0.0063954    0.011794
-0.031406   -0.047646   -0.021337    -0.02361   -0.017764  -0.0044465   0.0052977
-0.029132   -0.042124   -0.011267   -0.022961   -0.027508   0.0017248  -0.0031473
-0.025559   -0.033679    0.003024   -0.022636     -0.0405   0.0072465   -0.010943
-0.020037   -0.025559    0.014717   -0.020362    -0.04992     0.01017   -0.013216
-0.013866   -0.019388    0.021863   -0.013866   -0.050894    0.008221  -0.0073698
-0.0041217   -0.016464    0.027385  -0.0050961   -0.043099   0.0020496   0.0039985
0.0059473   -0.014516    0.031282 -0.00087364   -0.030756  -0.0034721    0.015042
0.015367   -0.013866    0.029658   -0.017439   -0.021661  -0.0041217    0.020239
0.018615   -0.012892    0.022188   -0.065835   -0.022636 -0.00087364    0.019589
0.011144   -0.014516   0.0088706    -0.14509   -0.036602      0.0014   0.0095202
-0.0041217   -0.019388  -0.0073698    -0.23636   -0.060638  -0.0031473  -0.0034721
-0.022636   -0.025884   -0.022311    -0.31431   -0.087597   -0.012892   -0.013866
-0.034978   -0.031406   -0.035303    -0.36823    -0.10838   -0.022636    -0.01549
-0.0405   -0.035303   -0.047321    -0.40136    -0.11715   -0.030431   -0.010293
-0.041799   -0.037252   -0.059014    -0.42085    -0.11488   -0.036278  -0.0034721
-0.037902   -0.036927   -0.067459    -0.41533    -0.10091   -0.039851   0.0017248
-0.027833   -0.028157   -0.070058     -0.3429   -0.069408   -0.037252   0.0059473
-0.010618  -0.0099683   -0.059339    -0.15678   -0.021012    -0.02426   0.0091954
0.012119    0.013743   -0.033679     0.12872     0.03583  -0.0031473    0.015367
0.034855     0.03583  -0.0031473     0.43372    0.090722    0.021538    0.019914
0.048497     0.05142    0.022837     0.66758     0.13132    0.039727    0.017965
0.05207    0.059865    0.036479     0.77087     0.14659    0.043625    0.014392
0.043625    0.061165    0.039727     0.73936     0.13847    0.033556    0.010819
0.028684    0.055968    0.037129     0.60879     0.11118    0.016666   0.0078962
0.012768    0.048172    0.030957     0.43534    0.079354      0.0014   0.0026992
0.00010078    0.039727    0.021538     0.26937    0.055643  -0.0073698  -0.0028225
-0.0083442    0.033881   0.0095202     0.14367    0.045574  -0.0096434  -0.0063954
-0.012242    0.027709  -0.0031473     0.06831    0.041676  -0.0093186  -0.0073698
-0.011592    0.020888   -0.013541    0.037129    0.036479   -0.011917  -0.0063954
-0.013866    0.013418   -0.019388    0.033556    0.029009   -0.019388  -0.0047713
-0.019063   0.0091954   -0.020362     0.03583    0.018615    -0.03303  -0.0050961
-0.026209   0.0072465   -0.018738    0.031932   0.0095202   -0.045697  -0.0067202
-0.034654   0.0052977   -0.017114     0.01829   0.0039985   -0.053492  -0.0044465
-0.041475   0.0052977    -0.01549  0.00042559  -0.0011985   -0.058365      0.0014
-0.046022   0.0056225   -0.014516    -0.01484  -0.0041217   -0.060963   0.0091954
-0.048296   0.0039985   -0.014191   -0.027833  -0.0034721   -0.061613    0.015042
-0.04862   0.0017248    -0.01614   -0.040175   0.0023744   -0.054142    0.017316
-0.04862   0.0020496   -0.019388   -0.051868    0.016341   -0.042124    0.014392
-0.04862   0.0020496   -0.026209   -0.062262    0.034206   -0.031081   0.0069217
-0.046996  -0.0018481   -0.034978   -0.071032    0.054019   -0.022636  -0.0031473
-0.043748  -0.0080194   -0.038227   -0.073306    0.074806   -0.019712   -0.011917
-0.037252   -0.011592   -0.034654   -0.071682    0.091372   -0.022961   -0.019063
-0.027833   -0.011592   -0.027183   -0.071357     0.10306   -0.027833   -0.021986
-0.017439  -0.0096434   -0.021337   -0.076229     0.10209   -0.031081   -0.022636
-0.0083442  -0.0080194   -0.017114   -0.084999    0.080328   -0.033354   -0.021012
-0.0024977  -0.0067202   -0.015165   -0.095717    0.037778   -0.037577   -0.018738
0.00010078  -0.0047713    -0.01549    -0.10806   -0.022961   -0.040825   -0.019388
-0.0015233  -0.0028225   -0.018088    -0.12203    -0.09117   -0.038876   -0.024909
-0.0093186 -0.00087364   -0.021337    -0.13534    -0.15581   -0.033354   -0.030756
-0.020687  -0.0011985   -0.027183    -0.14314    -0.19868   -0.032055   -0.035628
-0.028807  -0.0044465    -0.03303    -0.13827    -0.21362   -0.036602   -0.037577
-0.028157  -0.0080194     -0.0405    -0.12495    -0.20745    -0.04115   -0.038227
-0.025234  -0.0093186   -0.045372    -0.10579    -0.19283   -0.043748   -0.034654
-0.021012  -0.0060706   -0.045372   -0.077203    -0.17789   -0.045697   -0.028807
-0.018088   0.0017248   -0.035628    -0.03173    -0.15516   -0.045697   -0.023285
-0.014516    0.015367    -0.01484    0.031282    -0.12008   -0.043099   -0.018088
-0.0057458    0.029983    0.016341    0.091696   -0.076879   -0.038876   -0.011267
0.0062721    0.045249    0.050446     0.12613   -0.033354   -0.035953  -0.0015233
0.017316    0.059216    0.079679     0.12937  -0.0011985   -0.032055   0.0095202
0.026085    0.066686    0.093645     0.10599    0.012443   -0.025234     0.01829
0.030633    0.065712    0.088773    0.071234   0.0095202   -0.018088    0.025111
0.028359    0.054344     0.06896    0.039078  0.00075039   -0.010943    0.029658
0.022188    0.039078    0.040052    0.016991  -0.0067202  -0.0054209    0.033556
0.013743    0.023162    0.013093   0.0069217   -0.013541  -0.0060706    0.037129
0.003024     0.01017  -0.0080194   0.0056225   -0.022636   -0.014191    0.039402
-0.0080194   0.0017248   -0.021661   0.0069217   -0.032705   -0.025559    0.040702
-0.01484  -0.0037969   -0.031081   0.0033489   -0.042124    -0.03303    0.039727
-0.013866  -0.0096434   -0.037252  -0.0089938   -0.048296   -0.034329     0.03518
-0.0060706   -0.017439   -0.034329   -0.027833    -0.04992   -0.030106    0.023162
0.003024   -0.022961   -0.022636   -0.044398    -0.04862   -0.025559   0.0069217
0.009845    -0.02426   -0.008669   -0.052518   -0.044723   -0.023285  -0.0083442
0.013418   -0.022961  -0.0011985   -0.053168   -0.036927   -0.022636   -0.017114
0.016016   -0.021986  -0.0015233    -0.04927    -0.02361   -0.025234    -0.01614
0.016991   -0.023935  -0.0060706    -0.04862   -0.010293   -0.027508  -0.0063954
0.015367   -0.022636  -0.0089938   -0.051868  0.00075039   -0.029132   0.0026992
0.01017   -0.020362   -0.010943    -0.05739   0.0088706   -0.029782   0.0069217
0.0017248   -0.017439   -0.011592   -0.064211    0.012443   -0.030106   0.0046481
-0.0083442   -0.018413   -0.013541   -0.069733   0.0069217    -0.03173  0.00075039
-0.013541   -0.021337   -0.016464   -0.070058  -0.0024977   -0.034329  -0.0047713
-0.012567   -0.021986   -0.022311   -0.063237   -0.008669   -0.036602  -0.0099683
-0.010293   -0.020687   -0.029782   -0.052518  -0.0089938   -0.035953   -0.015815
-0.0076946   -0.017764   -0.038227   -0.044073  -0.0063954   -0.031406   -0.019712
-0.0057458   -0.013866   -0.042774   -0.039851  -0.0041217   -0.025884   -0.021012
-0.0028225  -0.0057458   -0.038551   -0.038876  -0.0037969   -0.019388   -0.021661
0.0046481    0.010495   -0.026533   -0.037902  -0.0044465  -0.0093186    -0.02361
0.015042    0.030957    -0.01614   -0.034004  -0.0041217   0.0023744   -0.027183
0.024461    0.048822   -0.013216   -0.030756  -0.0047713    0.008221   -0.033354
0.02706    0.054344   -0.018413   -0.025559  -0.0099683   0.0062721   -0.038551
0.022512    0.048497   -0.027183   -0.016789   -0.015815  -0.0018481   -0.040825
0.01894    0.034855   -0.031081  -0.0093186   -0.018413  -0.0080194   -0.040175
0.018615    0.019264   -0.027833  -0.0047713   -0.014516  -0.0096434   -0.037902
0.01829   0.0065969   -0.020687   -0.007045  -0.0060706  -0.0076946   -0.036278
0.015692  -0.0011985   -0.010293   -0.013541   0.0026992  -0.0047713   -0.036278
0.011794  -0.0054209  -0.0018481   -0.017439   0.0056225  0.00010078   -0.036602
0.0091954  -0.0076946   0.0036737   -0.015165   0.0010752    0.010495   -0.035303
0.011794  -0.0076946   0.0046481  -0.0083442  -0.0080194    0.023487   -0.032705
0.013743  -0.0067202  0.00075039  0.00075039   -0.013541    0.036479   -0.030106
0.011144  -0.0063954  -0.0044465    0.011144   -0.012242    0.048497   -0.031406
0.0043233   -0.008669  -0.0073698    0.018615  -0.0041217    0.054344   -0.037577
-0.0018481   -0.011917  -0.0060706    0.023487   0.0062721    0.051745   -0.041799
-0.0031473   -0.013866  -0.0057458    0.023487    0.016991    0.041676     -0.0405
-0.00087364   -0.013216  -0.0047713    0.023812    0.021538    0.029658    -0.03173
0.0039985   -0.011267  -0.0037969    0.025761     0.01894     0.01894   -0.020037
0.0075714   -0.011917  -0.0037969     0.02641    0.012443    0.013093   -0.010293
0.0065969   -0.015815  -0.0050961    0.023162   0.0036737    0.011144  -0.0050961
0.0010752   -0.020362  -0.0080194    0.015367  -0.0037969    0.012443  -0.0050961
-0.0047713    -0.02426  -0.0093186   0.0095202  -0.0063954    0.014392  -0.0063954
-0.0093186   -0.025234  -0.0089938   0.0085458  -0.0028225    0.017316   -0.007045
-0.010293   -0.023935  -0.0083442    0.016341   0.0069217    0.021213   -0.007045
-0.0093186   -0.022636  -0.0073698    0.027709    0.017965    0.023812   -0.007045
-0.0083442   -0.020687  -0.0067202    0.036154    0.027709    0.021538   -0.008669
-0.0067202   -0.020362  -0.0041217    0.038428     0.03518    0.017316  -0.0076946
-0.0041217   -0.020362  -0.0034721     0.03583    0.039402    0.010819  -0.0011985
-0.0028225   -0.023285  -0.0044465    0.030957    0.043625   0.0069217   0.0095202
-0.0034721   -0.024909   -0.008669    0.027385    0.049147   0.0072465    0.016991
-0.0054209   -0.026209    -0.01614    0.023812    0.054668   0.0075714     0.01829
-0.0031473   -0.028157    -0.02426    0.020888    0.055643   0.0056225    0.013743
0.0039985   -0.032705   -0.027833    0.019914     0.05272  0.00075039   0.0059473
0.01017   -0.038227   -0.024909     0.01894    0.049472  -0.0047713  -0.0021729
0.011469   -0.042124   -0.021986    0.014392    0.045249   -0.008669  -0.0073698
0.010819   -0.044398   -0.018413   0.0049729     0.03583   -0.012892   -0.010618
0.01017   -0.044073   -0.013866  -0.0080194    0.018615   -0.018413   -0.011917
0.011469   -0.041799   -0.010293   -0.016464  -0.0015233   -0.026533   -0.014516
0.015042   -0.035303   -0.008669    -0.01614   -0.017114   -0.033354   -0.016789
0.020888   -0.023935  -0.0050961  -0.0057458   -0.024909   -0.036927   -0.013866
0.026735  -0.0093186 -0.00087364   0.0095202   -0.029782   -0.036927  -0.0037969
0.029009   0.0046481  0.00042559    0.024786   -0.035953   -0.034004    0.009845
0.029009    0.014068  -0.0015233    0.039727   -0.040175   -0.033354    0.017316
0.02641    0.019264  -0.0034721    0.047198   -0.041799   -0.030756    0.017316
0.021213    0.020564  -0.0034721    0.046548   -0.047321   -0.024909    0.014717
0.014717    0.020888 -0.00087364    0.042326   -0.058689   -0.013541    0.012768
0.0091954    0.022837   0.0010752    0.032582   -0.070707   0.0017248    0.010819
0.0062721    0.023487   0.0017248    0.019264   -0.080127    0.011794   0.0078962
0.0075714    0.019914    0.003024   0.0069217   -0.089871    0.016666   0.0059473
0.015367    0.015042   0.0049729  -0.0011985    -0.10156    0.019264   0.0056225
0.024461    0.009845   0.0095202  -0.0067202    -0.11293    0.023162   0.0078962
0.027709   0.0078962    0.015042  -0.0089938    -0.12203    0.027385    0.012443
0.024137     0.01017     0.01829  -0.0083442    -0.12917     0.03453    0.020888
0.01894     0.01829    0.019264  -0.0060706    -0.13469    0.038753    0.029983
0.013093    0.021538    0.016341  -0.0028225    -0.13599    0.039727    0.036804
0.0078962    0.016991    0.011144 -0.00087364    -0.12852    0.038103    0.039727
0.0020496   0.0052977   0.0010752   0.0020496    -0.10936    0.033881    0.036804
-0.0041217  -0.0073698  -0.0096434   0.0023744   -0.082725    0.025436    0.029658
-0.012242   -0.013866   -0.012892 -0.00054884    -0.05804    0.013418    0.019914
-0.020037   -0.012892  -0.0060706  -0.0060706   -0.043099 -0.00022403    0.010819
-0.027183  -0.0067202   0.0017248   -0.010618   -0.036278   -0.011592   0.0059473
-0.031081 -0.00054884   0.0033489   -0.010943    -0.03238   -0.020362   0.0046481
-0.028157   0.0043233  -0.0018481  -0.0047713   -0.023935   -0.031081   0.0017248
-0.018413   0.0056225  -0.0083442   0.0059473  -0.0080194   -0.042124  -0.0054209
-0.0093186   0.0043233   -0.011267    0.016666    0.008221   -0.050244   -0.013541
-0.0080194  0.00075039  -0.0083442    0.025111    0.020239   -0.056091   -0.022636
-0.014191  -0.0011985  -0.0028225    0.030308    0.029333   -0.059014   -0.028807
-0.024585  0.00010078   0.0033489    0.032257    0.031932   -0.059339   -0.030106
-0.032705   0.0065969    0.009845     0.03453    0.025436   -0.060313   -0.026533
-0.032055    0.016991    0.013093     0.03583    0.014068   -0.062587   -0.019712
-0.024909    0.026085    0.013743    0.034855 -0.00022403   -0.064536   -0.013866
-0.014516     0.02706    0.012768    0.027709   -0.014516    -0.06616   -0.012892
-0.0096434    0.019914    0.011794    0.015042   -0.024585   -0.067459   -0.017764
-0.013866    0.010495    0.010495   0.0033489   -0.031081   -0.070058    -0.02426
-0.027183   0.0036737   0.0062721  -0.0050961    -0.03173   -0.072006   -0.029132
-0.042774  0.00075039  -0.0031473  -0.0076946   -0.027833   -0.072331   -0.029457
-0.055116   0.0010752   -0.018413  -0.0054209   -0.019388   -0.072006   -0.022961
-0.059014   0.0062721   -0.032055 -0.00054884  -0.0083442   -0.070058   -0.012242
-0.053168    0.016016   -0.043423   0.0052977   0.0023744   -0.068758  0.00042559
-0.039526    0.026085   -0.046996    0.009845   0.0095202    -0.06681    0.013418
-0.025234    0.032257   -0.040825    0.011144    0.014068    -0.06681    0.024137
-0.01549    0.036804   -0.027833   0.0088706    0.021538   -0.068758    0.030633
-0.012567    0.038103   -0.013216   0.0069217    0.029009   -0.071032    0.031282
-0.017114    0.038428  -0.0021729    0.009845    0.031607   -0.069408    0.026735
-0.022311    0.036154  0.00010078     0.01764    0.028034    -0.06551     0.01894
-0.025559    0.033556  -0.0073698    0.032257    0.020564   -0.059664    0.010819
-0.027508    0.030308   -0.019712    0.050771    0.011794   -0.050244      0.0014
-0.031081    0.025761   -0.028157    0.064737   0.0017248   -0.042449  -0.0083442
-0.035628    0.021538   -0.028482    0.069285  -0.0083442   -0.036927   -0.013866
-0.037902    0.015367   -0.022311    0.061489    -0.01614   -0.034329   -0.011592
-0.034654   0.0091954   -0.013541    0.043625   -0.019388   -0.034329  -0.0057458
-0.026533   0.0059473   -0.007045     0.02641   -0.020362   -0.035953      0.0014
-0.01614   0.0091954 -0.00054884    0.016016   -0.020037   -0.034654    0.009845
-0.0044465    0.015367   0.0072465    0.013418   -0.016464   -0.023935    0.019914
0.0075714    0.020239    0.017965    0.012443  -0.0099683   -0.011267    0.029983
0.016666    0.020564    0.029983    0.010819  -0.0018481 -0.00087364    0.039078
0.016991    0.016341    0.036479   0.0075714   0.0033489   0.0043233    0.042001
0.0095202   0.0088706    0.032257   0.0020496   0.0069217   0.0062721    0.039727
-0.0015233 -0.00087364    0.016341  -0.0018481   0.0091954    0.011794    0.033231
-0.011917   -0.010293  -0.0067202  -0.0067202    0.012443    0.020564    0.024786
-0.022961   -0.015165   -0.025234   -0.012892    0.018615    0.024137    0.015042
-0.031081   -0.013866    -0.03173   -0.018738     0.02706    0.020888   0.0052977
-0.032055  -0.0060706   -0.021337   -0.022636    0.037454    0.014392  -0.0015233
-0.02426   0.0020496  0.00042559   -0.021661    0.053369    0.008221  -0.0041217
-0.008669    0.008221    0.023162   -0.017764    0.070584   0.0043233  -0.0057458
0.008221   0.0065969     0.03583  -0.0099683    0.078704   0.0026992  -0.0060706
0.015367  0.00075039    0.031932   0.0020496    0.070909 -0.00054884  -0.0063954
0.011794  -0.0031473    0.016016    0.012768    0.049796  -0.0034721  -0.0057458
0.0049729  0.00010078  -0.0041217    0.016341    0.020239  -0.0057458  -0.0044465
-0.0028225   0.0036737   -0.021012    0.008221  -0.0041217   -0.011592  -0.0037969
-0.0093186   0.0010752    -0.03303   -0.011267   -0.017114   -0.020687  -0.0050961
-0.015165  -0.0093186     -0.0405   -0.036927   -0.019063    -0.03303  -0.0083442
-0.019388   -0.019712   -0.046996   -0.061613   -0.014516   -0.044398   -0.011592
-0.019388   -0.025234   -0.051219   -0.078178  -0.0096434   -0.053168   -0.018738
-0.017439    -0.02426    -0.04992   -0.078503   -0.012892   -0.053817   -0.024909
-0.014191   -0.015165   -0.038551   -0.061613   -0.025234   -0.045372   -0.025884
-0.011592  -0.0021729   -0.022311   -0.034654   -0.043423   -0.034329   -0.016789
-0.0093186    0.012119  -0.0067202  -0.0018481   -0.065186   -0.026209   0.0010752
-0.0063954    0.023812   0.0069217    0.027385    -0.08305    -0.02426    0.021863
-0.0021729    0.031282    0.017316    0.048497    -0.09182   -0.024585    0.036154
0.0017248    0.033881    0.022188    0.061165   -0.087922   -0.026209    0.037129
0.0065969    0.033231     0.01894    0.065062   -0.077528   -0.024909     0.02641
0.011794    0.031282   0.0088706    0.064737   -0.067784   -0.022961    0.013093
0.013743    0.031282  -0.0011985    0.065387   -0.061937   -0.020687    0.003024
0.014068     0.03453  -0.0054209    0.064737   -0.055766   -0.018738 -0.00054884
0.014392    0.038428  -0.0041217     0.06084   -0.043748   -0.017764   0.0010752
0.012119    0.038428   0.0017248    0.048822   -0.027833   -0.017764   0.0059473
0.0072465    0.033556   0.0072465    0.029983    -0.01484   -0.017764    0.012119
-0.0015233    0.028684    0.009845   0.0091954   -0.011917   -0.017439    0.018615
-0.010293    0.021863   0.0091954  -0.0093186   -0.015815   -0.020362    0.023487
-0.01614    0.013743   0.0033489   -0.020362   -0.022636   -0.026858    0.024786
-0.017114   0.0056225  -0.0034721   -0.026533   -0.030756   -0.032055    0.021538
-0.013541  -0.0015233   -0.008669   -0.029457   -0.034654   -0.034978    0.014392
-0.007045  -0.0080194   -0.011917   -0.026533   -0.032055   -0.034329   0.0052977
-0.0018481    -0.01484    -0.01484   -0.020687   -0.024909   -0.026858  -0.0041217
-0.0031473   -0.019712   -0.017439   -0.014191   -0.018088   -0.019388  -0.0093186
-0.013216   -0.022311   -0.020687   -0.010943   -0.017439   -0.014516  -0.0096434
-0.026209   -0.022311   -0.025884    -0.01549   -0.024909    -0.01614  -0.0080194
-0.036927   -0.021337   -0.030106   -0.034004   -0.040825   -0.023935  -0.0044465
-0.038876   -0.021012   -0.031406   -0.059989   -0.061288    -0.03303  0.00042559
-0.032705   -0.019712   -0.029132   -0.073306   -0.073631   -0.037252   0.0036737
-0.019388   -0.016464   -0.024585   -0.062912   -0.070707    -0.03303  0.00042559
-0.0024977   -0.014516   -0.022961   -0.030106   -0.056741    -0.02426  -0.0060706
0.011469    -0.01614   -0.025234   0.0088706   -0.038227   -0.017439   -0.012567
0.015692   -0.020037    -0.02426    0.041676   -0.022961    -0.01614   -0.014191
0.011144   -0.021012   -0.019063    0.061814   -0.014191   -0.021012  -0.0093186
0.0072465   -0.017764   -0.011267    0.069285   -0.011592   -0.031406 -0.00054884
0.0062721   -0.011267  -0.0067202    0.066037   -0.013541   -0.038876     0.01017
0.0069217  -0.0021729  -0.0089938    0.053694   -0.019712   -0.040825    0.016991
0.0026992   0.0059473    -0.01484    0.033231   -0.027508   -0.037902    0.020239
-0.0041217   0.0095202   -0.018088    0.008221   -0.037252   -0.032705    0.019914
-0.012567   0.0049729    -0.01484   -0.012242    -0.04862   -0.028157    0.012443
-0.017114  -0.0044465  -0.0080194   -0.021661   -0.057715    -0.02426   0.0017248
-0.016464   -0.017439  0.00010078   -0.021661   -0.057715   -0.021012  -0.0096434
-0.010293   -0.029782    0.010495   -0.017114    -0.04862   -0.019063   -0.018738
-0.0024977   -0.039201    0.020239   -0.010293   -0.041799   -0.017439   -0.022311
0.00010078   -0.041475    0.028034  -0.0041217    -0.04115   -0.019063   -0.024585
-0.0034721   -0.036927    0.029333  0.00010078   -0.044398   -0.022311   -0.027183
-0.012892   -0.028157    0.026735   0.0020496   -0.044073   -0.023935   -0.030106
-0.025234   -0.017114    0.020564  0.00042559   -0.034654   -0.021337   -0.028157
-0.034978  -0.0099683    0.012768  -0.0024977   -0.020687    -0.01549   -0.022636
-0.034978   -0.007045   0.0075714  -0.0044465  -0.0093186  -0.0080194   -0.018738
-0.030431  -0.0083442   0.0039985  -0.0034721  -0.0037969   0.0017248    -0.01549
-0.02361  -0.0099683   0.0069217 -0.00087364  -0.0024977    0.010819   -0.010943
-0.013541   -0.013541    0.014068  0.00042559   0.0010752     0.01764  -0.0050961
-0.0031473   -0.017439     0.01829  -0.0018481   0.0075714    0.019589  -0.0034721
0.0039985   -0.021986    0.016991  -0.0073698    0.016666     0.01894  -0.0089938
0.0049729   -0.028157   0.0085458   -0.013541    0.019264    0.019589   -0.018088
0.0017248   -0.034978  -0.0044465   -0.016789    0.010819    0.021863   -0.026858
-0.0028225   -0.038227   -0.016789    -0.01614  -0.0044465    0.024461    -0.03303
-0.0047713   -0.035303    -0.02426   -0.014191   -0.018738    0.024137    -0.03303
-0.00087364   -0.025234   -0.026533  -0.0093186   -0.028482    0.024786   -0.032705
0.0072465   -0.010943   -0.027508  -0.0060706   -0.034329     0.02641    -0.03173
0.016341   0.0049729   -0.031081  -0.0057458   -0.037252    0.028684   -0.031406
0.020888    0.016341   -0.037902  -0.0067202   -0.033354    0.028684   -0.027833
0.022188    0.019589   -0.046347  -0.0063954   -0.022311    0.027709   -0.022636
0.021863    0.014068   -0.051219  -0.0063954  -0.0080194     0.02706   -0.019063
0.023812   0.0043233   -0.046347  -0.0073698  0.00010078    0.029983   -0.019712
0.027709  -0.0057458   -0.035628  -0.0054209  -0.0021729     0.03453   -0.023285
0.028034   -0.012567   -0.024585  -0.0015233   -0.013216    0.039078   -0.025234
0.022837   -0.012567   -0.020687   0.0039985   -0.027183    0.040052   -0.025234
0.016341  -0.0054209   -0.023285   0.0085458   -0.037577    0.033556   -0.023935
0.012443   0.0075714   -0.029132     0.01017   -0.043748    0.023162   -0.022311
0.011144     0.01894   -0.035628   0.0065969   -0.042124    0.011469   -0.020687
0.010819    0.019589   -0.037577  -0.0011985   -0.035303   0.0010752    -0.01614
0.0085458    0.011794   -0.032705  -0.0073698   -0.028807  -0.0067202  -0.0080194
0.0046481   0.0010752   -0.021661   -0.011267   -0.025559   -0.011917   0.0023744
0.0023744  -0.0054209   -0.011267   -0.013866   -0.023285   -0.012242    0.010495
0.0026992  -0.0073698  -0.0011985   -0.018413   -0.017439  -0.0060706    0.013418
0.0069217  -0.0057458   0.0059473    -0.02426   -0.010293  0.00075039    0.013418
0.012443  -0.0057458   0.0085458   -0.032055  -0.0044465   0.0039985    0.013418
0.01894   -0.011592   0.0065969    -0.04115      0.0014   0.0017248    0.015692
0.021538   -0.020687    0.003024   -0.050244   0.0052977  -0.0050961    0.016016
0.017965    -0.03238   0.0010752   -0.058689   0.0056225   -0.018088    0.014717
0.011469   -0.039526  -0.0015233   -0.063237  0.00075039    -0.03303    0.013418
0.0026992   -0.041799  -0.0060706   -0.062912  -0.0054209   -0.044073    0.009845
-0.0028225   -0.039851    -0.01484   -0.060313  -0.0099683    -0.04862   0.0046481
-0.0063954   -0.037252   -0.024909   -0.055116   -0.011592   -0.045047   0.0023744
-0.0067202   -0.034978   -0.030106   -0.048945   -0.013216   -0.036602   0.0023744
-0.0028225   -0.031081   -0.027833   -0.037902   -0.016464   -0.027833   0.0020496
0.0046481   -0.022311   -0.022311   -0.027508   -0.019712   -0.023285   0.0020496
0.015042  -0.0073698   -0.018088   -0.020362   -0.016464    -0.02361   0.0020496
0.023162     0.01017   -0.018738   -0.019063  -0.0047713    -0.02426   0.0023744
0.023162    0.025436   -0.023935   -0.020362   0.0078962   -0.022311 -0.00022403
0.016991    0.034855   -0.028157   -0.019712     0.01829    -0.01549  -0.0028225
0.0078962    0.038103   -0.025559   -0.012242    0.024786  -0.0076946  -0.0031473
0.0033489    0.035505   -0.019712    0.003024    0.023487  -0.0015233  -0.0018481
0.0039985    0.029009   -0.010943    0.022837    0.015042 -0.00022403 -0.00087364
0.0072465    0.020239  -0.0054209     0.04395   0.0069217  -0.0037969  -0.0028225
0.0085458    0.011469  0.00042559    0.061489   0.0039985  -0.0076946  -0.0050961
0.008221   0.0052977   0.0078962    0.070584    0.008221   -0.010293  -0.0083442
0.0065969    0.003024    0.013418    0.074157    0.014392   -0.011592  -0.0093186
0.0023744   0.0056225     0.01894     0.06961    0.016341   -0.010293   -0.007045
-0.0057458    0.010495    0.022512    0.057267    0.015692  -0.0076946  -0.0050961
-0.017114    0.013093    0.022188    0.042651    0.016666  -0.0057458  -0.0054209
-0.029132    0.014068    0.020564    0.027385    0.017965  -0.0067202  -0.0093186
-0.038876    0.016666    0.016991    0.015042    0.018615   -0.010293   -0.012567
-0.046347    0.021863    0.010495    0.010495    0.015042   -0.011267   -0.013541
-0.048296    0.028684  0.00042559    0.010819   0.0095202  -0.0073698   -0.011917
-0.044073     0.03453   -0.008669    0.013418   0.0023744 -0.00087364   -0.011592
-0.036278    0.033556   -0.015165    0.013093  -0.0024977   0.0049729   -0.016464
-0.029782    0.025436   -0.018413    0.010819  -0.0044465   0.0075714   -0.026209
-0.021986    0.013743   -0.020687   0.0085458  -0.0044465   0.0072465   -0.034004
-0.011267   0.0023744   -0.024585    0.008221  -0.0054209   0.0039985   -0.038227
0.0014  -0.0044465   -0.029782   0.0062721  -0.0054209 -0.00054884   -0.036927
0.011469  -0.0041217   -0.035628  0.00010078  -0.0031473  -0.0054209   -0.035303
0.013743 -0.00022403   -0.040175  -0.0089938 -0.00022403  -0.0083442   -0.035953
0.009845   0.0039985   -0.038551   -0.018738   0.0026992   -0.010293   -0.037902
0.003024   0.0043233    -0.03303   -0.026533   0.0017248   -0.013216   -0.037902
-0.0028225   0.0033489   -0.025884   -0.027183  -0.0034721   -0.018088   -0.029457
-0.0063954      0.0014   -0.021337   -0.019712   -0.012242   -0.021661   -0.017764
-0.0083442 -0.00022403   -0.019063   -0.010618   -0.021012   -0.025234  -0.0093186
-0.010943  -0.0018481   -0.018088  -0.0031473   -0.027183   -0.030431   -0.011917
-0.015815  -0.0060706   -0.015815  0.00075039   -0.028807   -0.036278   -0.021661
-0.020687   -0.013866   -0.010943 -0.00054884   -0.025234    -0.04115   -0.030106
-0.024909   -0.018413  -0.0031473  -0.0031473   -0.019388   -0.043748   -0.028157
-0.029132   -0.019063    0.008221  -0.0031473   -0.016464   -0.048296    -0.01549
-0.030431   -0.016464    0.016341 -0.00054884   -0.020037   -0.054142 -0.00022403
-0.030106   -0.011267    0.020888   0.0036737   -0.029782   -0.058365    0.010819
-0.026209  -0.0021729    0.019589   0.0062721   -0.037252   -0.056416     0.01894
-0.021012   0.0069217    0.013743   0.0062721   -0.036602   -0.047321    0.024461
-0.017764    0.013743   0.0059473   0.0062721   -0.030431   -0.031081    0.029333
-0.01614    0.014392   0.0017248    0.009845   -0.025559   -0.011592    0.030957
-0.01549    0.012443   0.0020496    0.018615   -0.027508   0.0059473    0.029009
-0.015165    0.009845   0.0046481    0.029658   -0.037252    0.016991    0.022837
-0.018088   0.0095202   0.0072465    0.038428    -0.04862    0.022512    0.015692
-0.020687    0.012119   0.0062721    0.041027    -0.05739    0.023162    0.014068
-0.017114    0.014392 -0.00054884    0.037129   -0.062912    0.022837     0.01894
-0.0063954    0.012768   -0.010293    0.028684   -0.061937    0.022837    0.025111
0.0065969   0.0075714   -0.014516    0.018615   -0.050569    0.022188    0.028034
0.017316   0.0017248   -0.010293   0.0088706   -0.031081    0.018615    0.022512
0.022512 -0.00022403 -0.00054884  0.00075039  -0.0099683    0.011144    0.013743
0.022512   0.0010752    0.010819  -0.0054209   0.0039985   0.0023744   0.0049729
0.020564   0.0026992     0.01764  -0.0096434    0.013743  -0.0076946  -0.0024977
0.019589   0.0010752    0.021538  -0.0099683    0.016341    -0.01614  -0.0093186
0.016666  -0.0028225    0.023162  -0.0050961    0.015042   -0.022311   -0.012242
0.015042  -0.0047713    0.022837   0.0023744    0.012119    -0.02426   -0.010293
0.016666  -0.0037969    0.019589   0.0078962   0.0095202    -0.02361  -0.0050961
0.022512 -0.00054884    0.013093    0.010819   0.0085458   -0.022961  0.00010078
0.027385  -0.0011985   0.0033489    0.014717    0.012119   -0.027183   0.0046481
0.032257  -0.0047713  -0.0083442    0.017965    0.021863   -0.034329   0.0078962
0.037129  -0.0050961   -0.018738    0.016666    0.038753   -0.039851   0.0078962
0.042651  -0.0015233   -0.022636    0.014717    0.057917   -0.036927   0.0020496
0.046548   0.0033489   -0.022636    0.017965    0.070909   -0.022961  -0.0034721
0.043625   0.0052977   -0.020037    0.023162    0.070909  -0.0011985  -0.0050961
0.031282   0.0023744   -0.016789    0.025761    0.061165    0.019914  -0.0015233
0.014392  -0.0015233    -0.01614    0.024461    0.047198    0.034206   0.0056225
0.0023744  -0.0031473   -0.017439    0.020888    0.029009    0.036154    0.013093
-0.0018481  -0.0041217   -0.021661    0.016991    0.009845    0.029333    0.016016
-0.00022403  -0.0031473   -0.023935    0.016341  -0.0050961    0.021213    0.014717
0.0017248 -0.00022403   -0.025234    0.015692   -0.020037    0.015042     0.01017
-0.0034721   0.0020496   -0.029782    0.011144   -0.033679    0.008221   0.0059473
-0.014516   0.0020496   -0.034329   0.0049729   -0.046022  -0.0054209   0.0059473
-0.028482  0.00010078   -0.032705   0.0046481   -0.056741   -0.021661    0.012443
-0.038227  -0.0037969   -0.026858    0.011144   -0.065835   -0.035628    0.020239
-0.042449  -0.0076946   -0.019388    0.021213   -0.073306   -0.041475    0.025436
-0.042449  -0.0089938   -0.014516    0.028359   -0.078178   -0.040825    0.028684
-0.038551  -0.0083442   -0.015165    0.029333   -0.079152   -0.036602     0.02706
-0.030431  -0.0047713   -0.020037    0.025436   -0.079802   -0.030756    0.022512
