-0.1217   -0.047321   -0.092794   -0.047646      1.5783     0.30185   -0.083375
-0.067134   -0.039201   -0.068109   -0.013216      1.8177     0.43242   -0.040825
-0.012242   -0.035953   -0.043423    0.008221      1.8366     0.52239    -0.03173
0.033881   -0.039201   -0.030106    0.013743      1.7187     0.56721   -0.056416
0.066037   -0.044398   -0.029132   0.0069217      1.6306     0.59612    -0.10221
0.080653   -0.050569   -0.033679   0.0010752      1.7115     0.63802    -0.14639
0.083251   -0.055441   -0.034978   0.0069217      1.9759     0.68122    -0.17107
0.092346   -0.055116   -0.030106    0.019914      2.3205     0.68317     -0.1636
0.11801    -0.04992   -0.021986    0.029983      2.6206     0.61269    -0.13047
0.15438   -0.051219   -0.017764    0.022837      2.8276     0.46587    -0.09182
0.1638   -0.072006   -0.020687  -0.0063954      2.9906     0.28203   -0.067134
0.11313    -0.11228   -0.030106   -0.045372      3.1501     0.13165   -0.060963
-0.0015233    -0.15873   -0.042774   -0.076229      3.2615    0.071234   -0.058689
-0.161    -0.19413   -0.059339   -0.090845      3.1832    0.096244   -0.044073
-0.3325    -0.19998   -0.076879   -0.093444      2.7528     0.15276   -0.010943
-0.48191     -0.1636   -0.090521   -0.092794      1.8931     0.17842    0.028034
-0.56506   -0.085973   -0.096692   -0.093444     0.74846     0.13847    0.059865
-0.53908    0.016341   -0.092145   -0.096042    -0.37278    0.029983    0.080328
-0.39649     0.12385   -0.073631    -0.09994     -1.1806     -0.1308    0.091047
-0.18471      0.2148   -0.043099    -0.09994     -1.6551     -0.3312    0.089423
0.013743     0.27034   -0.010943   -0.090845     -2.0179    -0.55727    0.071558
0.13457     0.28301    0.014717   -0.067134      -2.385    -0.78171    0.038103
0.16185     0.25995    0.031282   -0.025234     -2.5993    -0.96035   0.0026992
0.12613     0.21642    0.041351    0.036154     -2.3785     -1.0474   -0.019063
0.070259     0.17062    0.045249     0.10144      -1.558     -1.0162    -0.01614
0.023162      0.1297    0.041027       0.131    -0.23636    -0.86778    0.011469
-0.0083442    0.095594    0.029658    0.089748      1.2217    -0.62775    0.053369
-0.025234    0.073832    0.015042  -0.0076946      2.4131    -0.33575    0.098193
-0.029782    0.067661   0.0065969   -0.098316       3.101   -0.039201     0.13165
-0.022961    0.078055   0.0062721    -0.12365      3.0604     0.20116     0.14886
-0.0060706    0.095919    0.016991   -0.073631      2.1036     0.32621     0.14496
0.01764     0.11346    0.035505    0.016341     0.36876     0.30932      0.1245
0.039727      0.1232    0.054344    0.095919      -1.544     0.17517    0.094295
0.055968     0.11898    0.067986     0.12775     -3.0742   -0.023935    0.062139
0.065712    0.098842    0.071883     0.10989     -4.1506    -0.22694    0.034206
0.071883    0.063113    0.067986    0.061814     -4.7993    -0.38285    0.012119
0.076755    0.023162    0.059865     0.01894     -4.9565    -0.46275  0.00075039
0.079029  -0.0089938    0.056292    0.012443     -4.6278    -0.45463  0.00042559
0.084876   -0.022636    0.065712    0.056617     -3.9973    -0.37343    0.010819
0.10079   -0.019388    0.091372     0.13749     -3.2827     -0.2487    0.030957
0.1349  -0.0011985     0.12418     0.23201     -2.5889    -0.11163    0.062789
0.19174    0.025761     0.15114     0.32328     -1.9026    0.012768     0.10599
0.26287    0.058241     0.17192     0.40773     -1.1604      0.1206     0.16185
0.33693    0.087474     0.19044     0.48731    -0.30619     0.22877     0.22129
0.39864     0.11216     0.20895     0.55812     0.66596     0.35739     0.27521
0.43047      0.1323     0.21837     0.61301      1.6189     0.49868     0.31354
0.42073     0.14399      0.2096     0.63607      2.3754     0.60035     0.32978
0.36941     0.14269     0.18297     0.61496      2.8087     0.60684     0.31614
0.28723     0.12418     0.14042     0.54448      2.7886     0.48244     0.27067
0.18687    0.088773    0.087149     0.42397      2.2601     0.22909     0.19693
0.084551    0.047523    0.030633     0.26417      1.4179   -0.096692     0.11183
-0.0024977   0.0091954   -0.021986    0.087149     0.55812    -0.40104    0.039078
-0.063561   -0.021012   -0.067784   -0.077853    -0.20745    -0.61963  -0.0047713
-0.10059   -0.046022    -0.10806    -0.21135    -0.97465    -0.72974   -0.018413
-0.12008   -0.069733    -0.13859    -0.30587     -1.8101     -0.7502   -0.012892
-0.12885   -0.093119    -0.15711    -0.37018     -2.5691    -0.71805  -0.0018481
-0.13827     -0.1178    -0.16945     -0.4215     -3.0073    -0.66933  -0.0034721
-0.15191    -0.13827    -0.18114    -0.46535       -3.07    -0.61671   -0.026209
-0.1701    -0.15321    -0.19316    -0.49718     -2.8368    -0.54882   -0.065835
-0.18699    -0.15678    -0.19998    -0.50822     -2.3733    -0.45366    -0.10774
-0.19608    -0.14639    -0.19966     -0.4962     -1.7097    -0.33088    -0.13794
-0.19381    -0.12917    -0.19641    -0.46535    -0.91975    -0.19381    -0.15223
-0.18309    -0.11163    -0.19316    -0.42507    -0.17107   -0.060313    -0.15646
-0.16653    -0.10189    -0.18894    -0.38415     0.44379      0.0433      -0.161
-0.14931    -0.10384    -0.18017    -0.33835     0.95439     0.10501     -0.1753
-0.13664     -0.1178     -0.1649    -0.28378      1.4231     0.13262    -0.19868
-0.13112    -0.13469    -0.14671    -0.21005       1.809     0.15049    -0.22077
-0.13145    -0.14411    -0.12398     -0.1204      2.0188       0.169    -0.23344
-0.13437    -0.13859   -0.097991   -0.022636      2.0746     0.17582    -0.23279
-0.13469    -0.12138   -0.071357    0.065712      2.0409     0.15114    -0.22337
-0.13015    -0.10319   -0.050244     0.12288      1.9252    0.080003     -0.2107
-0.12203   -0.094418   -0.037902      0.1362      1.7664   -0.034329    -0.20128
-0.11456   -0.097991   -0.036602     0.10014      1.6943     -0.1662    -0.19608
-0.10968    -0.11228   -0.047646    0.014068      1.8632    -0.28183    -0.18699
-0.10871    -0.13112   -0.071357    -0.10156      2.3205    -0.35556    -0.16328
-0.11001    -0.14801    -0.10254    -0.21265      2.9435    -0.38415     -0.1217
-0.11391    -0.15613    -0.13275    -0.29158      3.3836    -0.38187   -0.070058
-0.11131    -0.15191    -0.14639    -0.32308      3.2904     -0.3783   -0.021986
-0.10091    -0.13404    -0.13827    -0.30489      2.5472    -0.40363   0.0039985
-0.08305    -0.10903    -0.10968    -0.24903      1.3844    -0.46243   0.0043233
-0.069083   -0.080127   -0.071682    -0.17497     0.25053    -0.51829   -0.013541
-0.071032   -0.052518   -0.035953    -0.10481    -0.36726    -0.52446   -0.040175
-0.094093    -0.03173   -0.013866   -0.058365    -0.24221     -0.4608   -0.071682
-0.1282   -0.022636   -0.008669   -0.041475     0.35771    -0.34484    -0.10319
-0.14996   -0.020037  -0.0093186   -0.040825      0.8433    -0.21037    -0.12755
-0.14152   -0.018088  -0.0047713   -0.028807     0.78289   -0.085973    -0.13145
-0.10156   -0.013541   0.0091954    0.014717    0.090722    0.012768    -0.11196
-0.049595   -0.010293    0.033881    0.094295     -1.0584    0.090397    -0.07493
-0.0096434    -0.01484    0.062789     0.19628     -2.3778     0.14724   -0.032705
0.0046481   -0.034004    0.084226     0.28788     -3.5975      0.1742  0.00010078
-0.0018481   -0.064861    0.091047     0.33075     -4.5427     0.16088    0.019589
-0.0096434    -0.10059    0.083251      0.3051     -4.9701     0.11638    0.028034
0.008221    -0.13047     0.06961     0.20733     -4.9695    0.064413    0.029009
0.071883    -0.15191     0.05272    0.048822      -4.568    0.023812    0.028034
0.17939    -0.16653    0.036479    -0.14346     -3.3513  -0.0047713    0.028684
0.30737    -0.17594    0.020888    -0.32406     -1.7701   -0.025884    0.034206
0.42917     -0.1727    0.011144    -0.43449    -0.19738   -0.038876      0.0433
0.53214    -0.14087    0.013743    -0.43741     0.99044   -0.036927    0.052395
0.60035   -0.073955    0.029658    -0.34549      1.5891  -0.0073698    0.056617
0.60067     0.01829    0.048172    -0.19966      1.6459    0.061489    0.048497
0.49576     0.11054    0.059865  -0.0050961      1.3737     0.17517    0.032582
0.28723     0.18004    0.060515      0.2515     0.99661     0.31809    0.026735
0.027709     0.22292    0.054019     0.51979     0.64582     0.45451    0.046223
-0.20875     0.24273    0.045899     0.69194     0.43664     0.53961    0.087149
-0.37278     0.25215    0.039402     0.69227     0.46847        0.55      0.1258
-0.45528     0.26157    0.036154     0.55455     0.76567     0.48309     0.13652
-0.47542     0.27132    0.036479     0.38532      1.3152     0.36324     0.11118
-0.4608     0.27944    0.041027     0.28756      2.0935     0.24111    0.063438
-0.43677     0.28561    0.051096     0.30704      3.0757     0.16056    0.018615
-0.41533     0.28723    0.069934     0.41878      4.1015     0.13782  -0.0067202
-0.39616     0.28138    0.094945     0.55585      4.8764     0.16185   -0.010618
-0.36888     0.26287      0.1232     0.65946      4.9589     0.21317   0.0095202
-0.32471     0.23234     0.15016     0.70169      4.8816     0.27586    0.047847
-0.2591     0.19726     0.17452     0.68967       4.245       0.347    0.098842
-0.17497     0.16705     0.19076     0.64647      3.4707     0.43209     0.15568
-0.079802     0.14951     0.20213     0.58995       2.708       0.512      0.2161
0.013093     0.14659     0.20798     0.52889      1.9106     0.54838     0.27424
0.096569     0.15309     0.21058      0.4688     0.75171     0.49901     0.32263
0.17062     0.16445      0.2096     0.41001     -1.1429     0.35576     0.35479
0.24143     0.17355     0.20408     0.35024     -3.6338     0.14464     0.36778
0.29892      0.1729     0.19174     0.27944     -4.9698   -0.097666     0.35901
0.3314     0.15276     0.16738     0.18329     -4.9698    -0.34777     0.32198
0.33011     0.10826     0.12515    0.054344     -4.9695    -0.58195     0.24598
0.29892    0.041027    0.062789   -0.096042     -4.9698     -0.7593     0.13262
0.2476   -0.034978  -0.0083442    -0.24253     -4.9695    -0.81776   0.0072465
0.18946    -0.10449    -0.07493    -0.36433     -3.1343    -0.72065    -0.10059
0.1349    -0.14834    -0.12885    -0.45171   -0.080127    -0.48094    -0.17107
0.093321    -0.15711    -0.15776    -0.49718      1.9684    -0.15061    -0.19836
0.068635    -0.12463    -0.15776    -0.49458      2.5658     0.20765    -0.18894
0.057592    -0.05739    -0.13177    -0.44651      1.9152     0.53993    -0.15288
0.054019    0.020888   -0.090845    -0.37668     0.62113     0.81244   -0.098641
0.054019    0.088773    -0.04862    -0.31496    -0.65146      1.0161   -0.034004
0.063113      0.1297    -0.01549    -0.28638     -1.5629        1.16    0.025111
0.082277     0.13522 -0.00087364    -0.30132     -2.0972      1.2555    0.064737
0.10436     0.10339   -0.012567    -0.35979     -2.2433      1.3003    0.073182
0.12223    0.040377   -0.056416    -0.44943      -1.887      1.2649    0.050771
0.12743   -0.034978    -0.12787    -0.54233    -0.90839      1.1103   0.0026992
0.11216    -0.10221    -0.20713    -0.61021     0.65361     0.82121   -0.062262
0.078704    -0.15061    -0.27664    -0.64269      2.4479     0.40968    -0.14087
0.028684    -0.18374    -0.32795    -0.64367      4.0115   -0.089546    -0.22856
-0.030431    -0.20648    -0.35654    -0.62483      4.8898    -0.62483    -0.32536
-0.094418    -0.21979    -0.36011    -0.58813      4.9011     -1.1182     -0.4215
-0.15743    -0.22207    -0.34062    -0.52739      4.2746     -1.4833      -0.504
-0.2146    -0.21427    -0.30197    -0.43871       3.358     -1.6574    -0.55824
-0.25585    -0.19836    -0.24935    -0.32601      2.3995       -1.61    -0.57189
-0.27046    -0.17594    -0.18731    -0.19868      1.5582     -1.3534    -0.53323
-0.2539    -0.14801    -0.12268    -0.07493     0.86539    -0.95646    -0.45138
-0.20972    -0.12073   -0.066485    0.028034     0.25215    -0.52414    -0.34582
-0.15061    -0.09929   -0.028157    0.091696    -0.37538    -0.16977    -0.24091
-0.094418   -0.086298   -0.011917    0.096244     -1.0101    0.016991    -0.16328
-0.060963   -0.085648   -0.019388    0.029983     -1.4973  -0.0057458    -0.13242
-0.059014   -0.096692   -0.044398   -0.097991     -1.6158    -0.20193    -0.14639
-0.08305    -0.11813   -0.074605    -0.24968      -1.242    -0.46535    -0.18699
-0.11358    -0.14054    -0.10059    -0.37473     -0.4595     -0.6807    -0.23051
-0.13404    -0.15191    -0.12235    -0.43352     0.48991    -0.77489    -0.26202
-0.13047    -0.14899    -0.13112    -0.41208      1.3617    -0.73072    -0.27176
-0.095717    -0.13112    -0.11813    -0.32406      2.0123    -0.57416    -0.25162
-0.033679    -0.10189   -0.089871    -0.19966      2.3712    -0.35524    -0.20388
0.039078   -0.065835   -0.056091   -0.070707      2.4108    -0.13502    -0.13989
0.097868   -0.032705   -0.030431    0.033881       2.124    0.038428   -0.076879
0.1206    -0.01549   -0.017764    0.097868      1.4773     0.13392   -0.024909
0.10371   -0.011917   -0.014516      0.1258     0.47822     0.15731    0.015042
0.062139   -0.010618   -0.010293     0.13847     -0.6742     0.13879    0.049472
0.015042  -0.0034721   0.0020496     0.15763     -1.6704     0.11995    0.083576
-0.022961    0.013093    0.021863     0.19011     -2.3187     0.12645     0.11736
-0.039526    0.037454    0.048822     0.22877     -2.5409     0.15373     0.14854
-0.030756    0.066037    0.080328     0.26579      -2.372     0.17777      0.1755
-0.0031473    0.095269     0.11541     0.29697      -1.927     0.18264     0.19758
0.030957     0.11898     0.14594     0.32718     -1.3277     0.17225     0.21447
0.061489     0.13132     0.16868     0.35479    -0.69434      0.1638     0.22584
0.084226      0.1284     0.18362     0.37038    -0.15905     0.17095     0.23136
0.10209     0.10826     0.18849     0.35869     0.18329     0.20148     0.23234
0.12028    0.074157     0.18362     0.29892     0.31354     0.25572     0.23494
0.14302    0.031607     0.16998     0.18297     0.28756     0.33303     0.24176
0.1703   -0.012892     0.15179    0.033881     0.19141     0.43502     0.24923
0.19986   -0.048945     0.12905    -0.10838    0.089098     0.54675     0.25378
0.22259   -0.068109     0.10047    -0.21297      0.0014     0.64257     0.24825
0.22909   -0.072331    0.067986    -0.28281   -0.085973     0.69811     0.22779
0.21058   -0.064861     0.03518    -0.32731    -0.19186     0.70396     0.19369
0.169   -0.052518    0.012119    -0.31269    -0.29775     0.67797     0.15796
0.11898    -0.03173    0.016991    -0.16523    -0.35004     0.65491     0.13782
0.084226   0.0020496    0.053369     0.14334    -0.28963     0.65589     0.14367
0.070584    0.041351     0.10794     0.54643    -0.13794      0.6705     0.18069
0.064737    0.072533     0.15926     0.91573   0.0020496      0.6744     0.24013
0.050446    0.089098     0.19206      1.1415    0.022512     0.65069     0.29795
0.029658    0.092671     0.20181      1.1727    -0.13762     0.59417      0.3314
0.022512     0.09462     0.19401      1.0434    -0.45495     0.51395     0.32783
0.048172     0.11248     0.18102     0.84135    -0.78204     0.43209      0.2947
0.10794     0.15438      0.1729     0.65231     -0.9243     0.36518     0.25378
0.18069     0.21577     0.16965     0.52564    -0.79145     0.31127     0.22552
0.24111     0.27911       0.169     0.46165    -0.42929     0.25248     0.21155
0.26579     0.31971      0.1638     0.43177    0.042975     0.16965     0.20213
0.23981     0.31874     0.15244     0.40124     0.45483    0.058566     0.18687
0.16835     0.27229     0.13814     0.34894     0.59417   -0.070707     0.16705
0.079029     0.19856     0.12288     0.27781     0.26482     -0.2055     0.14951
0.0043233      0.1232     0.10436     0.20083    -0.59592    -0.32925     0.14107
-0.039526    0.065062    0.082277      0.1258     -1.8045     -0.4202     0.14399
-0.058365     0.03583    0.061165    0.059865     -3.0219    -0.45268     0.15763
-0.065835    0.039402    0.049147    0.009845     -3.8807    -0.40656     0.17907
-0.073631    0.066037    0.050121   -0.017764     -4.1379    -0.28735     0.20246
-0.087272    0.095919    0.058241    -0.02361     -3.7193     -0.1334     0.21642
-0.10449     0.11054    0.064413   -0.021012     -2.6747   -0.011917     0.20733
-0.12138     0.10144    0.060515   -0.030106     -1.2108    0.012119      0.1677
-0.1295    0.072533    0.041351   -0.061613     0.31354   -0.076554     0.09462
-0.12495     0.03518    0.011144    -0.10838      1.5199    -0.23993   0.0017248
-0.11293 -0.00087364   -0.021986    -0.15483      2.2591      -0.415   -0.093769
-0.096367    -0.03238   -0.048296    -0.19219      2.4703    -0.55792    -0.17984
-0.080451   -0.059339    -0.06616    -0.22044      2.2569    -0.64821    -0.25098
-0.072656   -0.086623   -0.082076     -0.2539      1.8772    -0.68654    -0.30749
-0.082725     -0.1217    -0.10579    -0.30977      1.4595    -0.68947    -0.35264
-0.11228    -0.16685    -0.13534    -0.39064     0.87513    -0.67063    -0.39357
-0.15776    -0.21947    -0.16945    -0.48061   0.0085458     -0.6349     -0.4267
-0.20972    -0.27046    -0.20453      -0.555    -0.93632    -0.58033    -0.45073
-0.25812    -0.30424    -0.23571      -0.593     -1.5499    -0.47932    -0.45723
-0.29775    -0.31691     -0.2578    -0.58228     -1.5323    -0.27761    -0.44294
-0.33055    -0.31106    -0.26332    -0.52609    -0.87493    0.057917    -0.41176
-0.34939     -0.2893    -0.24643    -0.43839     0.14821     0.48244    -0.37083
-0.34777     -0.2565    -0.21297    -0.33997      1.1106     0.87676    -0.32731
-0.32048    -0.21979    -0.17042     -0.2539      1.6336      1.1178    -0.28443
-0.27144    -0.18634    -0.13015    -0.19381      1.5423      1.1363    -0.24091
-0.2055    -0.16035    -0.10254    -0.15905     0.93197     0.94984    -0.19381
-0.12917    -0.13859   -0.086948    -0.13697     0.10079     0.64322    -0.13794
-0.054142    -0.11196   -0.075255     -0.1191    -0.61021     0.32101   -0.068434
0.0069217   -0.071032   -0.058689   -0.099615    -0.99316    0.054019    0.014068
0.048172   -0.014516   -0.034654    -0.07493     -1.0575    -0.14704     0.10306
0.072208    0.056292  -0.0083442   -0.048296    -0.95711    -0.31009     0.18362
0.087149      0.1362    0.020888   -0.021337    -0.88208    -0.45138     0.24403
0.10242     0.21155    0.053694   0.0088706    -0.91423    -0.57124     0.27976
0.11768     0.26612    0.087474    0.043625    -0.99413    -0.66835     0.29145
0.12743     0.28885     0.11476     0.07708     -1.0026    -0.76807     0.28333
0.12645     0.27651     0.12613    0.092996    -0.85966    -0.90319     0.25378
0.11021     0.22941     0.11118    0.071234    -0.64984     -1.0932     0.20018
0.079029     0.15146    0.061814   -0.007045    -0.54233     -1.3264     0.12093
0.042001    0.056942   -0.013541    -0.14119     -0.6258     -1.5616    0.025436
0.013093   -0.032055    -0.10091    -0.30067    -0.75508     -1.7412   -0.068434
-0.0041217    -0.10286    -0.18212    -0.44651    -0.61768     -1.8081    -0.14671
-0.011592    -0.14801    -0.23896    -0.54687   -0.020687     -1.7305     -0.2029
-0.015815    -0.17335    -0.26462    -0.58748     0.95698     -1.5132    -0.24221
-0.023935    -0.18407    -0.26429    -0.57059      2.0305     -1.1861    -0.27469
-0.047971    -0.18536    -0.24643     -0.5105      2.8948    -0.80217    -0.30457
-0.083375    -0.18309    -0.22044     -0.4241      3.3291     -0.4228     -0.3299
-0.11033    -0.18147    -0.19089    -0.32633      3.2602   -0.084674    -0.33478
-0.10514    -0.17692    -0.16653    -0.23116       2.771     0.20376    -0.30424
-0.072006    -0.16977    -0.15126    -0.15061      2.0889     0.44086    -0.23766
-0.041475    -0.15678    -0.14346   -0.089221      1.4945     0.62373    -0.15223
-0.037252    -0.13372    -0.13502   -0.044723      1.1818     0.74521   -0.064861
-0.053492   -0.089871    -0.11618  -0.0083442      1.1779       0.804    0.011794
-0.06681   -0.023285   -0.076879    0.031282      1.3432     0.80887    0.072208
-0.061937    0.056292   -0.021337    0.088448      1.4588     0.78159     0.12158
-0.036278     0.13067    0.040052     0.16868      1.4124     0.75463     0.16478
0.0023744     0.18751    0.090722     0.25832      1.2373     0.75755     0.20408
0.050771     0.22162     0.11833     0.33238     0.89722     0.79393     0.23526
0.10112     0.22779     0.12125     0.36583     0.25572     0.83226      0.2567
0.14237      0.2096     0.10566     0.35674    -0.67647     0.83226     0.26547
0.169     0.17322    0.085525     0.31874     -1.6548     0.77509      0.2554
0.17777     0.13327    0.074482     0.27424     -2.3655     0.67245     0.22454
0.1729     0.10599     0.07708     0.24111     -2.5587     0.54123     0.17745
0.15828     0.10112    0.087474     0.22519     -2.1053     0.39214      0.1258
0.12385     0.11054    0.099167     0.22584     -1.0292     0.23981    0.077405
0.052395     0.12255     0.10501     0.23981     0.46068    0.094945    0.035505
-0.062262     0.13002     0.10664     0.26352      1.9782   -0.028807   0.0023744
-0.20355     0.13165     0.10924      0.2973      3.2628    -0.12105   -0.018088
-0.33575     0.13392     0.11508     0.33498      4.1752    -0.17984   -0.021012
-0.42507     0.13977     0.12353     0.36778      4.6114    -0.20583   -0.007045
-0.4608     0.15016     0.12872      0.3863      4.3597    -0.19608    0.018615
-0.44196     0.16185     0.12353     0.38597      3.1342    -0.12917    0.044275
-0.36758     0.17582     0.10794     0.36518     0.94334    0.038428    0.062464
-0.23961     0.19304    0.091696     0.33465     -1.5908     0.34505    0.081303
-0.079802     0.20538    0.082602     0.30347     -3.5189     0.76924     0.10924
0.074482     0.19076    0.078379     0.26969     -4.4062      1.2136     0.14951
0.20083     0.13847    0.067986     0.21512     -4.1454       1.555     0.19271
0.29633    0.054993    0.039727     0.11963     -2.9342      1.7034     0.21707
0.37493   -0.036602   -0.013541   -0.029457     -1.3189       1.615     0.20213
0.43632    -0.11391   -0.086948    -0.21655    0.038103      1.2967     0.14334
0.46652    -0.16295    -0.16165    -0.40201     0.56299     0.81212    0.056617
0.45191    -0.18374    -0.21655    -0.53875   -0.018088     0.26384    -0.03238
0.38532    -0.18699    -0.24091    -0.60144     -1.5658     -0.2591    -0.10091
0.28366    -0.18277    -0.23993    -0.58845     -3.5338    -0.68524    -0.13762
0.17874    -0.17335    -0.22369    -0.52154     -4.9698    -0.97822    -0.15191
0.095594      -0.161     -0.2029    -0.43254     -4.9701     -1.1474    -0.16295
0.040377    -0.14346    -0.18309    -0.34387     -4.9701     -1.2218    -0.18179
0.00075039     -0.1256    -0.16815    -0.26429     -3.9346     -1.2416    -0.21005
-0.033679    -0.11098    -0.15256    -0.18407     -1.9124     -1.2403    -0.23409
-0.067134   -0.092794    -0.12592   -0.094093     0.18492     -1.2355    -0.24448
-0.096367   -0.072981   -0.088247  -0.0057458      1.4738     -1.2462    -0.23798
-0.1178   -0.053168   -0.049595    0.050446      1.2789     -1.2998    -0.22337
-0.12527   -0.040175   -0.022961    0.051745    -0.28833     -1.4053    -0.21167
-0.11488   -0.035303   -0.013216  0.00010078     -2.2213     -1.5466    -0.20745
-0.090196   -0.037252   -0.014516   -0.078503     -3.5062     -1.6801    -0.20453
-0.060638   -0.042124    -0.01484    -0.14671     -3.6744     -1.7357    -0.19901
-0.030756   -0.046347  -0.0083442    -0.17627     -2.8105     -1.6525    -0.18731
0.0020496   -0.049595   0.0010752     -0.1623     -1.3586     -1.4206    -0.16782
0.031932   -0.050894   0.0085458    -0.12073     0.15828     -1.0844    -0.14866
0.05142   -0.055766    0.010495    -0.07493      1.3091    -0.71155    -0.13697
0.050446   -0.067459   0.0072465   -0.039526      1.9805    -0.36498    -0.13697
0.027709   -0.084024  0.00042559   -0.017764      2.2874   -0.077203    -0.14639
-0.0031473   -0.098316  -0.0044465  -0.0057458      2.3959     0.15601    -0.15516
-0.028157    -0.10968  0.00042559   0.0010752      2.4339     0.35122    -0.15158
-0.044073    -0.11715    0.012119   0.0059473      2.4501     0.50323    -0.13145
-0.057715     -0.1204    0.022512    0.010819       2.428     0.60489   -0.092794
-0.075579    -0.11813    0.027385    0.023812      2.3537     0.66823     -0.0405
-0.097666    -0.10741    0.029983    0.056292      2.2221     0.71987    0.021863
-0.1178   -0.087272    0.037454     0.11086      2.0298     0.77931    0.087799
-0.1269   -0.060638     0.05272     0.18004       1.795     0.84395     0.14789
-0.12235   -0.031406    0.074482      0.2463      1.5644     0.89397     0.19661
-0.10546 -0.00087364     0.10014     0.29568      1.3783     0.91054     0.23104
-0.085648    0.029658     0.12255     0.32556      1.2526     0.88845     0.24436
-0.067459    0.057592      0.1349     0.33563      1.1782     0.83323     0.23786
-0.051544     0.07773     0.14009     0.32783      1.1463     0.75495      0.2148
-0.035953      0.0852     0.13587      0.3051       1.146     0.66011     0.17907
-0.021337    0.079354      0.1271     0.26969      1.1467     0.55877     0.13879
-0.012242    0.065387     0.11606     0.23006      1.1132     0.47724     0.10534
-0.0044465     0.05272     0.10599     0.19758      1.0561     0.44346    0.089423
0.011469    0.049796     0.10079     0.18004      1.0038      0.4714    0.092346
0.046223    0.058241     0.10144     0.18102      0.9768      0.5513     0.11054
0.094945     0.07708     0.11021     0.19693       1.018     0.65004     0.13555
0.14529     0.10014      0.1219     0.22259      1.1866     0.73676     0.16283
0.18784     0.12288     0.13392     0.25313      1.4153     0.79653     0.19109
0.22032     0.13977     0.14139     0.28398      1.4468     0.82641     0.21805
0.23721     0.14691     0.14074     0.30997      1.0515     0.83063     0.23754
0.24078     0.14529     0.13425     0.32718     0.24046     0.81342     0.24793
0.23591     0.13847     0.12645      0.3353    -0.73234     0.77249      0.2554
0.22714     0.13262     0.12385      0.3457      -1.496     0.70266      0.2619
0.22519     0.13165     0.13197     0.37233      -1.813     0.61301     0.27196
0.23689     0.13977     0.15179     0.42397     -1.6818     0.53506     0.28593
0.25702     0.15471     0.18167     0.49186     -1.2956     0.49803     0.30412
0.28203     0.17192     0.21545     0.55942    -0.86259     0.51395     0.32718
0.31322     0.18687     0.24598     0.61464    -0.40688      0.5867     0.36129
0.36031     0.20083     0.26839     0.65069     0.12515     0.69876     0.40611
0.42592      0.2135     0.28333     0.66791     0.68447     0.80725     0.45126
0.50225     0.22357     0.29243     0.66791      1.1197      0.8524     0.48017
0.56721     0.22974       0.296     0.64484      1.2581     0.78224     0.47789
0.58573     0.22357     0.28821     0.57891      1.0245     0.57598     0.43047
0.52564     0.19953     0.25605     0.44476     0.53603     0.24695     0.33563
0.37103     0.15049     0.18524     0.22877     0.21805    -0.15905     0.19466
0.12353    0.067011    0.073182   -0.064861      0.6364    -0.58878    0.014068
-0.19446    -0.04992   -0.072981    -0.40461      1.8788    -0.99446    -0.18764
-0.52641    -0.18569    -0.22759    -0.73137      3.4239     -1.3375    -0.38317
-0.7986    -0.31074    -0.35816    -0.98114      4.6933     -1.5827    -0.54265
-0.95678    -0.39844    -0.44196     -1.1085      4.9589     -1.7019    -0.63912
-0.97789    -0.43482      -0.466     -1.1013      4.9586     -1.6668    -0.66803
-0.8772    -0.41728    -0.43579    -0.98244      4.0605     -1.4528     -0.6362
-0.70473    -0.35621    -0.37375    -0.79535      2.5073     -1.0523    -0.56247
-0.52089    -0.27111    -0.29937    -0.58585     0.85467    -0.49523    -0.46372
-0.35979    -0.17757    -0.22499    -0.38122    -0.58618     0.13262    -0.35589
-0.21947   -0.082725    -0.14931    -0.19089     -1.7194     0.69551     -0.2435
-0.086623   0.0088706   -0.073631   -0.018413      -2.788      1.0811     -0.1334
0.031282    0.089098  -0.0044465     0.11995     -4.1669      1.2344   -0.038876
0.10696     0.13847    0.047198     0.19888     -4.9698      1.1535    0.025761
0.1258     0.14237    0.073507     0.20473     -4.9701     0.87968    0.050446
0.098193     0.10501    0.074157     0.14432     -4.9698     0.46587    0.038428
0.05272    0.042975     0.05272    0.045899     -4.9698   -0.029457  -0.0011985
0.013743   -0.020362    0.011794   -0.073306     -4.9695    -0.54103   -0.064536
-0.012567   -0.069408   -0.049595    -0.21785     -4.9695     -1.0276    -0.15029
-0.04115    -0.10156    -0.13145    -0.40623     -4.9701      -1.468    -0.25227
-0.084999    -0.12105    -0.22532    -0.63327      -4.935     -1.8295    -0.35459
-0.14509    -0.13502    -0.31594    -0.86129     -3.0645     -2.0585    -0.44359
-0.2094    -0.15061    -0.39064     -1.0445     -1.7337     -2.1017      -0.504
-0.27599    -0.17107    -0.43969      -1.151    -0.79275     -1.9465    -0.53063
-0.35004    -0.18861    -0.46243     -1.1669     0.11183     -1.6405    -0.53063
-0.43254    -0.19706    -0.46437     -1.0987      1.2029      -1.265    -0.51374
-0.51212    -0.19024    -0.45495    -0.97757      2.4319    -0.90124    -0.48516
-0.56929    -0.16782    -0.43547      -0.834      3.6354      -0.593    -0.44424
-0.58488    -0.13729    -0.40591    -0.68849      4.6689    -0.35784    -0.39064
-0.55694    -0.10514    -0.37083    -0.55857      4.9593    -0.20453    -0.33543
-0.49815   -0.079802    -0.34095    -0.45236      4.9586    -0.12787    -0.29158
-0.4228   -0.064861    -0.31561    -0.35621      4.9589    -0.10124    -0.26072
-0.33348   -0.054142    -0.28313    -0.23863      4.8943   -0.082725    -0.23149
-0.22402   -0.033679    -0.22661   -0.077203      4.3217   -0.024585    -0.19381
-0.090521   0.0052977    -0.13534     0.12028      3.7913    0.092021    -0.14119
0.053044    0.056292   -0.018738     0.31094      3.2472     0.24306   -0.080127
0.1716    0.097868    0.095269     0.44021      2.6557      0.3811    -0.02426
0.23234     0.10826      0.1768     0.47529      2.0772     0.47302    0.018615
0.22649     0.07773     0.21188     0.42755      1.6271     0.52239    0.053369
0.17874     0.01829      0.2096      0.3418      1.3818     0.57014    0.089748
0.12645   -0.045372     0.18687     0.26709      1.3286     0.64809     0.13457
0.10404   -0.088572     0.16121     0.23234      1.3721     0.74716     0.18362
0.12288   -0.094743     0.14302     0.23461      1.3906     0.83258     0.23136
0.17225   -0.070058     0.13717     0.24858      1.3117     0.87383     0.27229
0.23234   -0.027183     0.14172      0.2528       1.147     0.86311     0.30737
0.28658     0.01829     0.15016     0.25313     0.95341     0.81699     0.34407
0.32458    0.056942     0.15796     0.26969     0.73709     0.74943     0.38662
0.33855    0.078379     0.16185     0.31419     0.43599     0.66498      0.4282
0.32198    0.080328     0.15861     0.38565    0.026735     0.56364     0.45905
0.28528    0.070909     0.15244     0.47042    -0.40234     0.44898     0.47075
0.2463    0.063438     0.14756     0.55325    -0.68817     0.33758     0.46198
0.21447    0.066686     0.14496     0.61886    -0.69369     0.25313     0.43404
0.19011    0.078055     0.14432     0.65914    -0.39487       0.207     0.39084
0.17485      0.0865     0.14367     0.67408    0.097218     0.20246     0.34342
0.1703    0.087799     0.14172     0.67083      0.5906     0.22454     0.29925
0.17777    0.080653     0.13814     0.65102     0.88358     0.24793     0.26482
0.19174    0.070259     0.13392     0.60879     0.82511     0.24695     0.23721
0.207    0.059541      0.1284     0.54188     0.39279     0.20213     0.21577
0.2135     0.05272     0.11995     0.45581    -0.28281     0.10956     0.19856
0.20311    0.048822     0.10631     0.36389     -1.0101   -0.024585     0.18102
0.16835    0.045574    0.090722     0.27976     -1.5928    -0.18407     0.16088
0.11378    0.042975    0.079029      0.2135     -1.8705    -0.34127     0.13977
0.058241    0.042975    0.071883     0.16965     -1.8123    -0.47152      0.1245
0.030633    0.051096    0.068635     0.14984     -1.5401    -0.54947     0.12093
0.045899    0.072208    0.070909     0.15309     -1.2621    -0.55402     0.12645
0.10079     0.10859    0.081303     0.17095     -1.1273    -0.47509     0.13684
0.1755     0.15406    0.095269     0.18816     -1.1172    -0.31659     0.14561
0.24501     0.19693     0.11021     0.18914     -1.0542   -0.092794     0.15049
0.29373     0.22552      0.1219     0.16868    -0.72487     0.16445     0.15406
0.31711     0.22877     0.12158      0.1349   -0.083375     0.40546      0.1625
0.31419     0.20668     0.10404    0.098842     0.75106      0.5919     0.17745
0.2895     0.16608    0.074482    0.074482      1.6969     0.70006     0.19758
0.24371     0.11866    0.047523    0.070584      2.5859     0.72052     0.21025
0.1781    0.078379    0.034206    0.086175       3.218     0.66823     0.20408
0.095919     0.05272    0.041676     0.11995      3.5122     0.57209     0.17874
0.0062721    0.042001    0.064737     0.16315      3.3901     0.45386     0.14107
-0.07428    0.037129    0.091696     0.19758      2.5684     0.32004    0.097868
-0.12852    0.029658     0.10859     0.20603     0.70526      0.1742    0.053369
-0.14996    0.019914     0.10729     0.18654     -2.2027    0.019589   0.0065969
-0.14769   0.0075714    0.083901     0.13197     -4.9698    -0.15743   -0.046671
-0.1334  -0.0096434    0.042975    0.037778     -4.9701     -0.3744    -0.10936
-0.12138   -0.029457  -0.0080194   -0.098641     -4.9698    -0.62613    -0.17854
-0.11586   -0.052193   -0.056091    -0.25487     -4.9695    -0.87883    -0.23961
-0.11163   -0.069408   -0.091495    -0.39584     -4.9698      -1.089    -0.27858
-0.10189   -0.075255    -0.10741    -0.48516     -4.9698     -1.2247     -0.2893
-0.084674   -0.065186    -0.10319    -0.50173     -4.9698     -1.2647    -0.27599
-0.06551   -0.044073   -0.081101    -0.45333     -2.1768     -1.1926    -0.25227
-0.050569   -0.017439   -0.047971    -0.36498     0.70786     -1.0065    -0.22726
-0.045372   0.0091954    -0.01614    -0.26754      2.6109    -0.71967     -0.2042
-0.047321    0.028034   0.0017248    -0.18342       3.495    -0.37733    -0.17919
-0.050244    0.040052   0.0049729    -0.13145      3.5951   -0.022961    -0.15353
-0.045372    0.046223 -0.00022403    -0.11098      3.2391     0.29957    -0.13112
-0.024585    0.045574  -0.0044465    -0.10936      2.7317     0.56007    -0.11683
0.011469    0.034855  -0.0060706    -0.10871      2.3046     0.74488    -0.10709
0.057917    0.012768  -0.0031473   -0.098641       2.072     0.84882   -0.095717
0.10566   -0.017439  0.00010078   -0.084999      1.9766     0.86571   -0.080776
0.14561   -0.046347  -0.0031473    -0.07493      1.9064     0.78224   -0.061937
0.1677   -0.064536   -0.015165   -0.070058      1.8255      0.5945   -0.043423
0.1651    -0.06681   -0.027833   -0.073631      1.7381     0.33823   -0.033679
0.14399   -0.059989   -0.034978   -0.078503      1.6128    0.070909   -0.036602
0.11054   -0.054467   -0.036602   -0.076554      1.3627    -0.14834   -0.053168
0.074157   -0.059014   -0.034654   -0.064536     0.86182    -0.27956   -0.078827
0.039078    -0.07493   -0.031081   -0.047646    0.030957    -0.33705    -0.09994
0.013093   -0.097017   -0.027833    -0.02426     -0.9623    -0.35361   -0.096692
0.0023744    -0.11488   -0.022311   0.0069217     -1.7409    -0.35784   -0.056416
0.0069217    -0.11488   -0.012242     0.05272     -2.0111    -0.36563    0.015367
0.020564   -0.084349   0.0085458     0.10664      -1.737    -0.38999    0.089423
0.033231   -0.023935    0.039727     0.15698     -1.1023    -0.43547      0.1349
0.030957     0.05142    0.074482     0.18979    -0.33218    -0.49263     0.14107
0.0023744     0.11931     0.10339     0.19986     0.43859    -0.53583     0.11606
-0.056416     0.15991     0.11801     0.19109      1.1476    -0.53616    0.075131
-0.13275     0.16835     0.11443     0.16705      1.6979    -0.47899    0.038428
-0.19803     0.14529    0.096244     0.13197      1.9236    -0.36303     0.01829
-0.23051     0.10014    0.067011    0.088773      1.8522    -0.18601    0.023162
-0.21752    0.047847    0.039078    0.048822       1.719    0.044275    0.053044
-0.16718   0.0036737    0.015692    0.021213      1.7661     0.32393    0.096893
-0.10449   -0.029457  -0.0044465  -0.0024977      2.0711     0.64354     0.13262
-0.058365   -0.055766   -0.027183   -0.044398      2.4615     0.96445     0.13555
-0.042124   -0.081751   -0.062587    -0.13047      2.5498      1.1889    0.089098
-0.062262    -0.11618    -0.11683    -0.27469      1.9636      1.2172  -0.0018481
-0.11391     -0.1623    -0.18374     -0.4686     0.72832      1.0258    -0.11196
-0.18342    -0.21525    -0.25325     -0.6716    -0.65276     0.69292     -0.2042
-0.25098    -0.25552    -0.30749    -0.83011     -1.5557     0.35089    -0.25195
-0.29125    -0.26332     -0.3299    -0.89669     -1.7311     0.11476     -0.2448
-0.28151    -0.22921    -0.31756    -0.85966     -1.2673    0.015692    -0.20258
-0.21882    -0.16588    -0.28216    -0.73851    -0.40331   0.0017248    -0.15516
-0.12592   -0.093444    -0.23733    -0.58033     0.77314   -0.018738    -0.13534
-0.035628   -0.030756    -0.19283    -0.42962      2.3397   -0.097991    -0.14996
0.027385    0.016341    -0.15386    -0.30587      4.2174    -0.21752    -0.17757
0.059216    0.047523    -0.12463    -0.20615      4.9589    -0.33055    -0.19056
0.053044    0.065387    -0.10838    -0.12722      4.9593    -0.41663    -0.18666
-0.007045    0.065387    -0.10644   -0.073955      4.9589    -0.49523    -0.17627
-0.11748    0.045574    -0.10806   -0.044398      1.5212    -0.60177     -0.1753
-0.2461    0.013418    -0.10384   -0.022311     -2.8202    -0.74826    -0.18536
-0.35134   -0.022961   -0.084674    0.009845     -4.9698    -0.90709    -0.19738
-0.40753   -0.051219   -0.055441    0.064088     -4.9698     -1.0169    -0.19868
-0.39746   -0.062912   -0.020687     0.13782     -4.9701     -1.0325    -0.18407
-0.31983   -0.059014    0.014717     0.21447     -4.9701    -0.96328      -0.161
-0.19186   -0.041799    0.041676     0.27911     -4.9698    -0.86908    -0.13015
-0.044723   -0.011267    0.054993     0.32004     -4.4816    -0.79145   -0.095717
0.080003    0.024786    0.057267     0.33368     -3.0875    -0.74046   -0.057065
0.14854    0.053694     0.05207     0.31484     -1.9598    -0.71513   -0.026533
0.14042    0.060515    0.038103      0.2593     -1.2439    -0.70733   -0.012892
0.053369    0.039402    0.016016      0.1651    -0.84212    -0.68882   -0.021661
-0.080776  -0.0054209   -0.014516    0.038428    -0.44424    -0.62678   -0.050244
-0.21427   -0.062912   -0.052193   -0.095717     0.27716     -0.5092   -0.089221
-0.30294    -0.11261   -0.092794    -0.20453       1.426    -0.34582    -0.12463
-0.32211    -0.13599    -0.12398     -0.2552      2.8893      -0.161    -0.14541
-0.26689     -0.1269    -0.13502    -0.23279      4.4168    0.032582    -0.14379
-0.14996   -0.084999     -0.1178    -0.13957      4.9586     0.24111     -0.1204
0.0056225   -0.019388   -0.078178   0.0023744      4.9589     0.47984   -0.079802
0.16965    0.058566   -0.028157     0.15536      4.9589     0.76795   -0.033679
0.30639     0.13002    0.023162     0.28203      4.9586      1.0999   0.0046481
0.37915     0.17517    0.065712     0.36064      4.9589      1.4211    0.030633
0.36778     0.18102    0.095269     0.38987      4.9589      1.6446    0.041676
0.27261     0.14724     0.10696     0.37265      4.8206      1.7063    0.041351
0.10891    0.082602    0.095594     0.30282      2.4865      1.5761    0.031932
-0.096042  -0.0041217    0.058566     0.17485     0.16835      1.2639    0.011794
-0.29742   -0.094418   0.0039985    0.013418     -1.5726     0.82381   -0.017764
-0.44521     -0.1688   -0.054792    -0.13924     -2.4717     0.35609   -0.048296
-0.49945     -0.2055    -0.10319    -0.24026     -2.6935   -0.029457   -0.064536
-0.44586    -0.19608    -0.12657    -0.26851     -2.5376    -0.26916   -0.051868
-0.30035    -0.14996    -0.11878    -0.22759     -2.1693    -0.33185  -0.0099683
-0.11228   -0.082076     -0.0824    -0.13145     -1.6035    -0.19641    0.056617
0.064413   -0.014516   -0.027833  0.00075039    -0.85609     0.11638     0.13165
0.19628    0.037129    0.028034     0.13814   -0.022961      0.5003     0.19693
0.27554     0.06896    0.074157     0.25118     0.69941     0.80465     0.23526
0.31451    0.080978     0.10242     0.32361      1.1233     0.91736     0.23883
0.32458    0.080328     0.11216     0.32913      1.2237     0.79685      0.2096
0.30769     0.06961     0.10047     0.24306      1.0642      0.4675     0.16088
0.25865    0.053369    0.067986    0.071558     0.66563   0.0052977     0.10891
0.17517    0.032582    0.025761    -0.13469   -0.085973    -0.48256    0.066686
0.073832    0.016016   -0.017439    -0.29872     -1.2881    -0.89604    0.036479
-0.030106   0.0091954   -0.050569    -0.36726     -2.7874     -1.1695    0.012768
-0.1295    0.015042   -0.069733    -0.33802     -4.1639     -1.2761   -0.008669
-0.21265    0.029983   -0.077853    -0.25292     -4.9678     -1.2306   -0.028482
-0.26397    0.053694   -0.078178    -0.16035     -4.9207      -1.077   -0.039201
-0.27241    0.081303   -0.077853   -0.096692     -4.0057    -0.87298   -0.035628
-0.23311     0.10436   -0.075255   -0.071032     -2.4996    -0.66705   -0.021337
-0.15841     0.11606   -0.068758    -0.06551    -0.80412    -0.49003  0.00042559
-0.067784     0.11606   -0.053817   -0.057065     0.68025    -0.35719    0.021213
0.015042     0.11183   -0.032055   -0.025234      1.6829    -0.27599    0.036154
0.076755     0.10631  -0.0031473    0.031932      2.2289     -0.2435    0.043625
0.11801     0.10112    0.033231     0.10242      2.5209    -0.23701    0.046548
0.14432    0.097218    0.070259     0.17355      2.8428     -0.2172    0.047847
0.16478    0.089748     0.10079     0.23461      3.3846    -0.13762     0.05272
0.18589    0.079029      0.1232     0.28691      4.2122    0.037778    0.064737
0.20863    0.067986     0.13944      0.3405      4.9593     0.31094    0.090397
0.23429     0.06084     0.15146     0.40351      4.9589     0.64387     0.13295
0.26352    0.063438     0.16608     0.47692      4.9589     0.97322     0.18816
0.29373    0.074157     0.18199     0.54643      4.9593      1.2204     0.24273
0.31679    0.088448     0.19239     0.58346      4.9589      1.3175     0.27749
0.32069    0.098517     0.18654      0.5552      4.0401      1.2376     0.27911
0.3038     0.10047     0.16056     0.44314     0.32946     0.99823     0.25313
0.27034    0.094295     0.11931      0.2502     -4.0873     0.64225     0.20765
0.22292    0.081627    0.071558   0.0091954     -4.9701     0.22909     0.15568
0.16738    0.063113    0.024786    -0.23149     -4.9695     -0.1714     0.10436
0.11216    0.037129   -0.011592    -0.43027     -4.9695    -0.50173    0.057592
0.066037   0.0033489   -0.031081    -0.57189     -4.9701    -0.72325    0.020564
0.036804    -0.03238   -0.034654    -0.65374     -4.9695    -0.82004 -0.00087364
0.023812   -0.059339   -0.023935    -0.64659     -4.9698    -0.79925   -0.012892
0.027709   -0.070382   0.0010752    -0.48256     -4.9695    -0.69759   -0.019388
0.037778    -0.06681    0.034206    -0.14476     -4.9698    -0.56571   -0.029457
0.0433   -0.056416    0.066686     0.28203     -3.1629    -0.45106   -0.047646
0.035505   -0.053492    0.085525     0.65329    -0.46925    -0.37115   -0.074605
0.020239   -0.059664    0.085525     0.86117      1.2659    -0.31789    -0.10481
0.0062721   -0.069733     0.06961     0.87708      2.0876     -0.2591     -0.1269
0.0020496   -0.073955    0.048497     0.74911      2.4066    -0.16328    -0.13275
0.009845    -0.06616    0.036804     0.56364      2.6262   -0.031081     -0.1217
0.026735    -0.04992    0.041351     0.39702      2.9357     0.10664   -0.096692
0.047523   -0.031406    0.057917     0.28821      3.2706     0.21545   -0.064861
0.069934    -0.01549     0.07708     0.23721      3.4457     0.29373   -0.032705
0.091372  -0.0054209    0.090397     0.21967      3.3476     0.37298  -0.0060706
0.11216   0.0010752    0.094295     0.21155      3.0465     0.48276    0.014068
0.13457     0.01017    0.089098     0.20246      2.7454     0.61951    0.030957
0.15698    0.019914    0.081303     0.19401      2.6093     0.74651    0.044599
0.17517    0.027385    0.078704     0.18329      2.6499     0.82641    0.054668
0.19044    0.031282    0.084226     0.17355      2.7538     0.83648    0.064088
0.20018    0.029658    0.094295      0.1651       2.733     0.78516    0.076431
0.19499    0.028034     0.10339     0.16218      2.4329     0.69064    0.091696
0.16965    0.027709     0.10826      0.1638      1.8242     0.57274     0.11638
0.1258    0.029009     0.11118     0.16933     0.98817     0.45158     0.15438
0.071883    0.028034     0.11021     0.17777     0.12905      0.3457     0.19856
0.020239    0.023487     0.10891     0.18394    -0.41923     0.25572     0.24371
-0.014516   0.0078962     0.10566     0.19044    -0.39811     0.18492     0.28333
-0.021012   -0.018088     0.10177     0.19531     0.18589     0.14074     0.31094
0.0046481   -0.051868    0.094945     0.19304      1.1437     0.12613     0.31906
0.050121   -0.090196    0.083576     0.16445      2.2465       0.131     0.30639
0.092996    -0.12625    0.064088     0.10371      3.2469     0.13555     0.27002
0.11183    -0.15841    0.034206    0.021213      3.7955     0.11021      0.2057
0.095919    -0.18082  -0.0057458    -0.06681      3.4414    0.024461     0.11866
0.058566    -0.18342   -0.048945    -0.14964      1.9226      -0.123    0.021538
0.024137    -0.15256    -0.09182    -0.21817    -0.42507    -0.27956   -0.056416
0.0017248   -0.093119    -0.12755    -0.26299     -2.6321     -0.3809   -0.093769
-0.034004   -0.033354    -0.15548     -0.2906     -3.8865    -0.41338   -0.089871
-0.1178  -0.0076946    -0.18471    -0.32243     -3.7459    -0.40818   -0.069083
-0.2487   -0.030756    -0.21979    -0.37668      -2.207    -0.39714   -0.063561
-0.38674   -0.082076    -0.25585    -0.45268     0.18069    -0.38642   -0.084999
-0.48354    -0.12138    -0.28118    -0.53648      2.3806    -0.37375     -0.1256
-0.51862    -0.11131    -0.28898    -0.61086      3.5275    -0.36173    -0.16588
-0.50205    -0.04115    -0.28053    -0.65569      3.3356    -0.35329    -0.18634
-0.4543    0.069934    -0.26072    -0.65439      2.1432    -0.35069    -0.18114
-0.39649     0.18751    -0.23311    -0.60696     0.71695    -0.36466    -0.15451
-0.34127     0.27489    -0.20128    -0.52674    -0.26267    -0.40883    -0.12138
-0.2971     0.30899    -0.17042    -0.42702    -0.60664    -0.47542   -0.096692
-0.26104     0.28723    -0.13469    -0.31951    -0.62418    -0.52804   -0.080127
-0.21135     0.23201   -0.089871    -0.20258    -0.70181    -0.52901   -0.054467
-0.12138     0.16803   -0.034978   -0.073631    -0.94152    -0.46502   -0.010943
0.023487     0.12093    0.026735    0.067011     -1.1796    -0.34549     0.04395
0.2174     0.10112    0.088448     0.20505     -1.2618    -0.20713    0.098517
0.4269     0.10729     0.13912     0.32069     -1.2293   -0.094418     0.14172
0.60522     0.12515      0.1716     0.39702     -1.3163   -0.027833     0.17225
0.70493     0.13814     0.18102     0.42235     -1.6447  0.00042559     0.18881
0.70363     0.13067     0.16478     0.39799     -2.0306   0.0039985     0.18589
0.60749    0.097868     0.12905     0.33075     -2.1745  -0.0083442     0.15893
0.44476    0.043625    0.079354     0.22584     -1.8948   -0.032705     0.10501
0.25215   -0.021661    0.014392    0.074482     -1.1893   -0.069083    0.024786
0.065712   -0.086298   -0.060638    -0.12917    -0.18926    -0.11975    -0.07428
-0.090845    -0.14152    -0.13437    -0.35556     0.88325    -0.17724    -0.17854
-0.20615    -0.17724    -0.19446    -0.55824       1.809    -0.20972    -0.26916
-0.28151    -0.19283    -0.23441    -0.69824      2.4547    -0.18407     -0.3351
-0.32178    -0.19381    -0.25292    -0.75573      2.7554   -0.096692    -0.37213
-0.33737    -0.18309    -0.25487    -0.74046      2.7749    0.023162    -0.38934
-0.3416    -0.16782    -0.25195    -0.68524      2.7272     0.12223    -0.40136
-0.33672    -0.15938    -0.25065    -0.61833      2.8295     0.16023     -0.4137
-0.31724     -0.1597    -0.25227    -0.55857      3.0919      0.1362    -0.41858
-0.27339    -0.16263    -0.25098     -0.4988      3.3846    0.081303    -0.40104
-0.19836    -0.16035    -0.23668     -0.4228      3.6025     0.04395    -0.34874
-0.10416    -0.15581    -0.20518    -0.32341      3.6136    0.049472    -0.26916
-0.019063    -0.15548    -0.16165    -0.20908      3.2975    0.079354    -0.18569
0.023162    -0.16393    -0.11943   -0.097017      2.6804     0.10112    -0.12463
0.0065969    -0.17789   -0.086948  -0.0057458      1.9772    0.098842   -0.095393
-0.060963    -0.18342   -0.069083    0.053044      1.4799    0.083251   -0.091495
-0.14736    -0.17367   -0.061613    0.078704      1.3195    0.063763   -0.097666
-0.21849    -0.14899   -0.059989    0.080653      1.2928    0.042001    -0.10319
-0.25585    -0.11878   -0.060638    0.063438     0.96965    0.009845    -0.10319
-0.25877   -0.088896   -0.056091    0.039727    0.081303   -0.034978   -0.093769
-0.23149   -0.062912   -0.040825    0.019914     -1.2969   -0.093119   -0.080776
-0.18666   -0.038227   -0.021012   0.0069217     -2.8774    -0.15905   -0.071032
-0.13404    -0.01614  -0.0063954   0.0017248     -4.3049    -0.23019   -0.069083
-0.082725   0.0046481   0.0052977   0.0059473     -4.9701    -0.30165   -0.072331
-0.038551    0.030633     0.01894    0.024461     -4.9698    -0.36141   -0.078178
-0.0018481    0.066362    0.040377    0.066686     -4.6755    -0.39584   -0.075904
0.026085     0.10989    0.067986     0.13684     -3.4412    -0.39974   -0.059989
0.040052     0.15049    0.096244     0.22649     -2.0176    -0.36628   -0.035628
0.040052      0.1755     0.11801     0.31322    -0.72552    -0.29547  -0.0076946
0.029658     0.17874     0.13132     0.37525     0.18622    -0.19901    0.015042
0.017965     0.16088     0.13717     0.39702     0.56169    -0.10449    0.029009
0.012768     0.12807     0.13944     0.38013     0.45873   -0.032055    0.032582
0.016991    0.087474     0.14432     0.34667    0.014717     0.01764    0.031932
0.028034    0.047523     0.15081     0.31971    -0.61151    0.054993    0.039402
0.054019    0.019914     0.15763     0.30964     -1.3157    0.077405    0.067661
0.10469    0.013418     0.16315     0.30964     -2.1599    0.072533     0.11995
0.17192    0.031282     0.16998     0.31062     -3.2655    0.029009     0.18687
0.22877    0.068635     0.18232     0.31062      -4.567    -0.04115     0.25637
0.24371     0.11183     0.20246     0.31419     -4.9698    -0.11521     0.31484
0.20895     0.14821     0.22747     0.32978     -4.9701    -0.17952     0.35349
0.14237     0.17062     0.24988     0.35674     -4.9698    -0.21914     0.37168
0.076431     0.17842      0.2606     0.38857     -4.9698    -0.20225     0.37006
0.039402     0.17387     0.25865     0.40838     -2.6292   -0.075904     0.35544
0.040052     0.16315     0.24273     0.40546     0.22617     0.17615     0.34082
0.066362     0.15179     0.21545     0.37785       2.682      0.5055     0.32978
0.097218     0.14464     0.18719      0.3353      4.2463     0.82511     0.32361
0.11833     0.13944     0.15861     0.28463      4.7962       1.059     0.31549
0.12418     0.13392      0.1219     0.22065      4.2603      1.1606     0.29275
0.11443     0.12125    0.069934      0.1349      2.6275       1.121     0.24468
0.0865    0.087149  -0.0031473    0.015692     0.20181     0.96868     0.16056
0.0433    0.022837   -0.089221     -0.1334     -2.3093     0.74716    0.041351
-0.0057458   -0.069083    -0.17335    -0.28865     -4.2185      0.4688    -0.10319
-0.051219    -0.16847    -0.24058    -0.42182     -4.9701     0.12255    -0.25227
-0.096367    -0.24805    -0.28118    -0.51277     -4.9701    -0.29807    -0.38642
-0.14899    -0.28865    -0.29482    -0.55759     -4.3049    -0.73949    -0.49101
-0.21752    -0.28508      -0.288    -0.56669     -2.7617     -1.1059    -0.55694
-0.30197     -0.2474    -0.26851    -0.55759    -0.63717       -1.33    -0.58423
-0.39162    -0.19316    -0.24545     -0.5407      1.8236     -1.4125     -0.5813
-0.47314    -0.13924    -0.22694    -0.51667       4.104      -1.404    -0.55694
-0.52836   -0.095393    -0.21557    -0.47639      4.9589     -1.3699    -0.51992
-0.54265   -0.069408    -0.20745    -0.41403      4.9589     -1.3397    -0.47087
-0.51017   -0.060638    -0.19316    -0.33055      4.9589     -1.2891    -0.40558
-0.43449   -0.059989    -0.16782    -0.22304      4.9593      -1.165    -0.31983
-0.32633   -0.047646      -0.123   -0.095393      4.1843    -0.93827    -0.21135
-0.212  -0.0080194   -0.055766    0.042975      3.2417    -0.64237   -0.082076
-0.12105    0.056292    0.021538     0.17907      2.5969    -0.35199    0.049796
-0.071032     0.12385    0.093321     0.29178      2.1731   -0.097991     0.15893
-0.062587     0.17452     0.14464     0.36876      1.8067     0.13912     0.23201
-0.077528     0.19726     0.17355     0.40838       1.363     0.37655     0.27294
-0.10059     0.19336     0.17874     0.41033     0.82544     0.60002     0.29243
-0.11586     0.16933     0.16315     0.37915     0.38662     0.76372     0.30055
-0.11163     0.13652      0.1323     0.32458     0.26027     0.82836     0.30315
-0.075579     0.10339    0.095269     0.25865     0.36518     0.79036     0.30282
-0.0076946    0.075456    0.063763     0.18687     0.31224     0.68934     0.29373
0.087149    0.057592    0.042326     0.11411    -0.19251     0.57436     0.27781
0.19336    0.048822     0.03518    0.044924      -1.063     0.47205      0.2619
0.29633    0.045249    0.037778  -0.0093186     -1.9764     0.38467     0.25605
0.3746      0.0433    0.045899   -0.038876      -2.638     0.32036     0.25832
0.41196    0.038103    0.056617   -0.036278     -2.9209     0.30087     0.26157
0.40189    0.028034    0.073182    0.003024     -2.7965     0.35512     0.25475
0.34927    0.016016    0.087474    0.062789     -2.3057     0.48861     0.23234
0.27002  0.00010078    0.091696     0.11151     -1.6035     0.64874     0.19271
0.17842   -0.019388    0.079029     0.12288    -0.86389       0.753     0.14042
0.089098    -0.04115    0.047847    0.089748    -0.10514     0.75106    0.087474
0.012443   -0.063561   0.0043233    0.023162     0.76535     0.66271    0.047198
-0.045047   -0.086948   -0.046347   -0.061613      1.7677     0.53408    0.016991
-0.085648    -0.11326   -0.092794    -0.14866      2.7779     0.40903    -0.01614
-0.11131    -0.14119    -0.13047    -0.22629      3.5503     0.29503   -0.061288
-0.123     -0.1649    -0.15581    -0.28573      3.8276     0.17777    -0.12463
-0.11163    -0.17984    -0.16782    -0.32406      3.4522    0.045574    -0.19348
-0.06681    -0.17952    -0.16945    -0.33672       2.505    -0.09182    -0.24513
0.012768    -0.16458    -0.16263    -0.31789      1.3591    -0.20583    -0.26429
0.10859    -0.14184    -0.14996    -0.26689     0.45548    -0.27923    -0.25325
0.19661     -0.1178    -0.13047    -0.19056    0.044924    -0.31561    -0.22402
0.25962   -0.097017    -0.10416   -0.098965    0.072858    -0.32893    -0.18536
0.28918   -0.076554   -0.072006  -0.0044465     0.25832    -0.33023    -0.13437
0.28723   -0.055116   -0.039526    0.081952      0.2619    -0.32146   -0.068109
0.27034   -0.030756  -0.0057458     0.15341   -0.079152    -0.29905    0.012443
0.26222  -0.0015233    0.030957      0.2122    -0.68167    -0.26072     0.09462
0.27976    0.031607    0.065712     0.26092     -1.3384    -0.20583     0.15926
0.31159    0.063763    0.091696     0.30055      -1.851    -0.13404     0.19336
0.32556    0.093321     0.10794     0.33368     -2.1121   -0.047321     0.19304
0.27944     0.11541     0.11671     0.36226     -2.1349     0.05142     0.16803
0.15373     0.13295      0.1232     0.38597     -1.9939     0.17939     0.13977
-0.031406     0.14659     0.14009     0.40416     -1.7659     0.34992     0.12743
-0.22629     0.15666     0.16413     0.41098     -1.5486     0.54675     0.13522
-0.3783     0.15828     0.18037      0.3889     -1.4245      0.7163     0.15049
-0.4569     0.14854     0.17517     0.32328     -1.3755     0.79555     0.15601
-0.45463     0.13035     0.14821      0.2187      -1.293     0.75041     0.13944
-0.38382     0.10989     0.11476     0.10696     -1.0822     0.59612     0.10826
-0.27404    0.096244    0.090722    0.024461    -0.72325     0.39117    0.079029
-0.15191    0.089423     0.08585  -0.0067202    -0.26819     0.20343    0.062139
-0.039526    0.087149    0.096893    0.016341     0.17062    0.080978    0.065062
0.050121      0.0852     0.11638     0.07708     0.49251    0.049796    0.091047
0.11736    0.084226     0.13295     0.14854     0.64614     0.11995     0.14367
0.1703    0.090722     0.14042     0.21642     0.61626     0.27002        0.22
0.21642     0.10826     0.14042     0.27684     0.39019     0.43924     0.30412
0.25118     0.13295     0.13652     0.33563   -0.069408     0.55065     0.37655
0.26807     0.15341     0.13295     0.39442    -0.73819     0.55032     0.41878
0.26709     0.15926      0.1271     0.43339     -1.5064     0.42332     0.42105
0.2567     0.14529     0.11606      0.4308     -2.1628     0.19726     0.38467
0.25053     0.11378    0.097218     0.37818     -2.3642   -0.072006     0.31776
0.2541    0.073507    0.074157     0.29015     -1.8377    -0.33218     0.23916
0.26319    0.036804    0.053044     0.19401    -0.58098     -0.5459     0.15731
0.26807   0.0078962    0.036154     0.10209      1.0817    -0.69759    0.082602
0.25475    -0.01484    0.022188    0.017965      2.5521    -0.78301    0.018615
0.21512   -0.032055   0.0043233   -0.067459      3.4223    -0.80997   -0.039526
0.14821   -0.048945   -0.025884    -0.15905      3.6094    -0.78788   -0.093769
0.066362   -0.067134   -0.066485    -0.24903      3.2937    -0.73591    -0.14866
-0.0096434   -0.084999    -0.10806    -0.32308      2.6668    -0.68102    -0.20583
-0.069733    -0.10254    -0.14574    -0.37018      1.8681    -0.64107    -0.26397
-0.11391    -0.11586    -0.17594    -0.38804      1.0967    -0.60859    -0.31821
-0.14184    -0.12527    -0.19543     -0.3835     0.59677    -0.56474    -0.36206
-0.15288    -0.13015    -0.20323    -0.36726     0.50323    -0.48224    -0.38772
-0.14996    -0.13112    -0.19933     -0.3429     0.77672     -0.3351    -0.38837
-0.13989    -0.13145    -0.18439    -0.31204      1.2133    -0.12105    -0.36466
-0.13015    -0.13047    -0.16035    -0.28183      1.5257      0.1297    -0.32406
-0.11943     -0.1269    -0.13307     -0.2578      1.5936      0.3746    -0.27923
-0.10774    -0.11748    -0.11488    -0.24188      1.5218     0.57241    -0.23766
-0.091495    -0.10124    -0.10741    -0.23798      1.2422     0.69616    -0.20355
-0.068434   -0.082076    -0.10871     -0.2435     0.43664      0.7254    -0.17302
-0.037577   -0.070707    -0.11423    -0.26104      -1.074     0.64842    -0.14314
-0.011592   -0.073955    -0.12138    -0.28476     -2.9219     0.46523    -0.10968
-0.0044465   -0.088896    -0.12625    -0.30132     -4.4579     0.20018   -0.077203
-0.020037    -0.10644    -0.12333    -0.29515     -4.9701   -0.099615   -0.055766
-0.051544     -0.1178    -0.11228     -0.2565     -4.5556      -0.377   -0.050894
-0.079477     -0.1191   -0.095717    -0.18796     -3.0138    -0.59819   -0.062587
-0.084349    -0.11293   -0.072656   -0.098641     -1.0792    -0.74176   -0.081426
-0.055766    -0.10351   -0.043748 -0.00087364     0.64614    -0.78886   -0.097341
-0.00022403   -0.094418   -0.012567    0.095919      1.8843    -0.71058   -0.097991
0.071558   -0.084999    0.019264     0.18362      2.8149    -0.47477    -0.07493
0.14561   -0.069733     0.05207     0.26125      3.6548   -0.076554    -0.03238
0.2044   -0.041475      0.0852     0.32458      4.3343       0.423    0.015367
0.23299  -0.0015233     0.10956     0.36389      4.5231     0.90729    0.050446
0.20668    0.037454     0.11346     0.35219      3.8637       1.249    0.054668
0.11508    0.059216    0.089098     0.26677      2.1055       1.349    0.027385
-0.021986    0.054668    0.034855     0.11086    -0.70441      1.1636   -0.027183
-0.15905     0.03518   -0.032705   -0.087922     -3.8089     0.73059   -0.092469
-0.25942    0.015367   -0.094743    -0.28248     -4.9701     0.15731    -0.15386
-0.30457   0.0046481    -0.13924    -0.43417     -4.9701    -0.42117    -0.20583
-0.30002   0.0023744    -0.16295    -0.52089     -4.9698    -0.88078    -0.24935
-0.26916  -0.0050961    -0.16977    -0.54265     -4.9698     -1.1549    -0.28443
-0.22921   -0.021337    -0.16523    -0.50887      -2.826     -1.2283    -0.30749
-0.18471   -0.037252    -0.14866      -0.428    -0.18049     -1.1322    -0.31204
-0.13469   -0.043423    -0.12235    -0.31821      2.0009    -0.94574    -0.29288
-0.081101   -0.038227   -0.092794     -0.2094      3.3534    -0.76547    -0.25422
-0.028807   -0.031081   -0.072981    -0.13697      3.7185     -0.6664     -0.2068
0.0059473   -0.038551   -0.073631    -0.13177      3.1462    -0.67193    -0.16847
0.0020496   -0.072006    -0.10286    -0.20745      1.9519    -0.78301    -0.15613
-0.056741     -0.1269    -0.16133    -0.35394     0.47529    -0.99381    -0.17854
-0.16165    -0.18244    -0.23571    -0.54005     -1.0208     -1.2735    -0.22824
-0.27858    -0.21362    -0.30002    -0.72357     -2.2346     -1.5447    -0.27793
-0.37408    -0.20485    -0.33348    -0.86778     -3.0378     -1.6964    -0.29612
-0.43124    -0.15808    -0.33348    -0.95223     -3.4877     -1.6441    -0.27144
-0.45463   -0.089871    -0.30977    -0.97789     -3.6878     -1.3725     -0.2146
-0.4569    -0.02361    -0.27923    -0.95808     -3.6082    -0.94119    -0.15678
-0.44164    0.023162    -0.24805    -0.89767     -3.1674    -0.44781    -0.12008
-0.40786    0.045899     -0.2133    -0.79665     -2.3716    0.015367    -0.10449
-0.35037     0.05272    -0.17594    -0.66478     -1.3319     0.38954   -0.098641
-0.27176    0.051096    -0.13729    -0.51082    -0.25098     0.66336   -0.084349
-0.18049    0.046223   -0.094418     -0.2997     0.67408     0.84265   -0.055441
-0.088247    0.046223   -0.042449    0.016991      1.3669     0.92223    -0.01549
-0.0063954    0.055968    0.013418     0.40871      1.8752     0.90404    0.022837
0.056617     0.07773     0.06831     0.74586      2.2497     0.81439    0.048822
0.095919     0.10371     0.11476     0.90956       2.505     0.70981    0.055643
0.11346     0.11801     0.14107     0.88228       2.608     0.65784    0.047198
0.10794     0.10924     0.14529     0.74911      2.5086     0.69844     0.03453
0.088124     0.07773     0.13652     0.62113      2.2218     0.81959    0.033556
0.075456    0.042651     0.12775     0.56851      1.8323     0.96478     0.05207
0.090722    0.022188     0.12418     0.60197      1.4172      1.0548    0.085525
0.13652     0.02706     0.12255     0.67375      1.0125      1.0265      0.1232
0.20538    0.054019     0.12028     0.73417     0.63088     0.86864     0.15926
0.28593    0.096893     0.12418     0.77217     0.30087     0.62178     0.20246
0.35999     0.14821     0.14269      0.8053    0.081627     0.35641     0.26157
0.40643     0.20311     0.18492      0.8485    0.021863      0.1362     0.33465
0.41358      0.2541     0.24728     0.88942     0.10014   -0.011267     0.41066
0.3863     0.29438     0.31192     0.89462     0.23526   -0.088572     0.47205
0.34245     0.31289     0.35122      0.8394     0.36713    -0.10514      0.5016
0.29535     0.29925     0.34992     0.72247     0.48926   -0.081426     0.49186
0.2476     0.25832     0.31159     0.56462     0.61594   -0.051219     0.44931
0.20116     0.19823     0.25507     0.40773     0.73806   -0.046996     0.38825
0.15471     0.13782     0.20083     0.28658     0.81244   -0.081101     0.32621
0.11378    0.092671     0.16413     0.22389     0.80627    -0.14639     0.27846
0.079679    0.069285     0.14659     0.21447      0.7569    -0.22889     0.24695
0.062464     0.06831     0.14691     0.23786     0.75885    -0.31561     0.23104
0.06896    0.080653     0.15731     0.27229     0.87578    -0.38577     0.22747
0.10209    0.092346      0.1677     0.30152       1.069     -0.4176     0.23461
0.16315    0.095919     0.17452     0.32166      1.2376    -0.39162     0.25313
0.25118     0.09462     0.18102     0.33952      1.2746    -0.29028     0.28333
0.35382    0.095594     0.19174     0.35999      1.0992   -0.093444     0.32653
0.45126     0.10306     0.20148     0.38695     0.68382     0.21415     0.37428
0.52304     0.12028     0.20928     0.42235     0.13847     0.61918     0.41326
0.5513     0.13977     0.21512      0.4597    -0.34614      1.0551     0.43404
0.52661     0.15926     0.21642     0.47919    -0.59105       1.428     0.43015
0.45808     0.17095     0.20538     0.46555    -0.53031      1.6732     0.39896
0.36356     0.17485     0.18427     0.41553    -0.25552      1.7849     0.34537
0.2619     0.17062     0.15893     0.34115     0.14432      1.7934     0.27944
0.16478     0.15731     0.13295     0.25572     0.65816      1.7245     0.21025
0.076755     0.13295     0.10274     0.16673      1.2906        1.59     0.14756
0.00010078    0.097868    0.066686    0.076106      1.8593      1.3633    0.095919
-0.057715    0.057917    0.029658  -0.0099683       1.921      1.0174    0.055968
-0.095068     0.01829  -0.0041217   -0.094743      1.1454     0.55877    0.019264
-0.11618    -0.01614   -0.036278    -0.17562    -0.26202    0.045249   -0.018413
-0.1217   -0.042449   -0.057065    -0.24091     -1.7012    -0.42897   -0.052843
-0.11196   -0.056091   -0.063886    -0.27599     -2.7289    -0.77944   -0.073631
-0.085648   -0.054792   -0.051219    -0.27144      -3.223    -0.96523   -0.079477
-0.04992   -0.046022   -0.028807    -0.24091     -3.2061     -1.0178     -0.0824
-0.023935   -0.043099   -0.011592    -0.21525     -2.7302     -1.0409    -0.10189
-0.023935   -0.054792   -0.014516    -0.21817     -1.9172     -1.1325    -0.14801
-0.059014   -0.080776   -0.043423    -0.25552     -1.0347     -1.3147    -0.21427
-0.123    -0.11748   -0.092145    -0.32406    -0.37343     -1.5271    -0.28605
-0.20745    -0.16003    -0.15158    -0.41695  -0.0063954     -1.7025    -0.34972
-0.29775    -0.20128    -0.21362    -0.52414     0.24046     -1.8081    -0.39357
-0.3731    -0.23831    -0.26949    -0.62613     0.54935     -1.8435    -0.41663
-0.41565    -0.26722    -0.30619    -0.70246     0.89235     -1.7912    -0.42052
-0.41793    -0.28248    -0.31659    -0.73689      1.1077     -1.5931    -0.39909
-0.38285    -0.28411    -0.29937     -0.7213      1.0967     -1.1981    -0.34777
-0.32666    -0.27371    -0.26592    -0.66575     0.82641    -0.62938    -0.27469
-0.26624     -0.2552    -0.22824    -0.59072     0.26612   -0.008669    -0.20096
-0.2146    -0.23149    -0.20128    -0.51667    -0.46827     0.49316    -0.15646
-0.17952     -0.2068    -0.18991     -0.4543     -1.1471      0.7608    -0.15841
-0.16523    -0.18374    -0.19024    -0.40948     -1.6554     0.79296    -0.19998
-0.1688     -0.1623    -0.19283      -0.377     -1.9166     0.69032    -0.25682
-0.19089    -0.14379    -0.18634    -0.34679     -1.8149      0.5854    -0.30392
-0.22921    -0.12852    -0.16458    -0.31042     -1.2653      0.5422    -0.32958
-0.27501    -0.11651    -0.13437    -0.26332    -0.36076      0.5539    -0.33218
-0.31301    -0.10611    -0.10221     -0.2081     0.53279     0.57566    -0.30912
-0.3286   -0.096042   -0.075904    -0.15093       1.032     0.55877    -0.25845
-0.31074    -0.08305   -0.056416    -0.10026      1.0661     0.47302    -0.18569
-0.26072   -0.067134   -0.041799   -0.067784     0.80108     0.30964    -0.11066
-0.18699   -0.047971    -0.03173    -0.05739       0.423    0.078704   -0.048945
-0.10774   -0.031406   -0.027183   -0.067784    0.033881    -0.19219   -0.015165
-0.043423   -0.027833    -0.03173    -0.10026     -0.3325    -0.46665   -0.018088
-0.012567     -0.0405   -0.048296    -0.15873    -0.66218    -0.70213   -0.059664
-0.018088    -0.06551   -0.077528    -0.23344    -0.91618    -0.85252    -0.12917
-0.049595   -0.092794    -0.11293    -0.30132      -1.061    -0.89312    -0.20388
-0.10124    -0.11391    -0.14411    -0.33835     -1.0737    -0.82296    -0.26039
-0.16035    -0.12722    -0.16165    -0.35296    -0.92138    -0.66446    -0.28411
-0.21232    -0.13567    -0.16133    -0.37733     -0.5865     -0.4673    -0.27404
-0.2435    -0.14314    -0.14606    -0.43319    -0.10026    -0.28216    -0.23766
-0.23928    -0.14899     -0.1256    -0.51017     0.44151    -0.15613    -0.18342
-0.19413    -0.14899    -0.10644    -0.57286     0.90794    -0.12365    -0.12138
-0.10936    -0.14087   -0.093444    -0.59235      1.2363    -0.18407   -0.051868
0.0033489    -0.12105   -0.085973    -0.55532      1.4569    -0.29417    0.019589
0.1284   -0.092794   -0.076554    -0.46502      1.6225    -0.39746      0.0852
0.24598    -0.05804    -0.05739     -0.2919       1.743    -0.44586     0.13522
0.33303   -0.020037   -0.017114    0.014717      1.7612    -0.41695      0.1729
0.36518    0.025436      0.0433     0.44216      1.6284    -0.30782     0.20765
0.33595    0.080328     0.11411     0.89754      1.3435    -0.12495      0.2567
0.25767     0.14172     0.18199       1.263     0.95503     0.11541     0.32426
0.15601     0.19369     0.23494      1.4565     0.48536     0.38695     0.40254
0.053369     0.21805     0.25962      1.4497    0.011794     0.65231     0.46263
-0.03303     0.20408      0.2528      1.2714    -0.32601     0.86246     0.47335
-0.095717     0.15503     0.21188     0.98557    -0.52446     0.97712     0.42268
-0.13404    0.088448     0.14724     0.66596    -0.76385     0.97712     0.31841
-0.15418    0.025761    0.075781     0.36746     -1.1364     0.86961     0.18362
-0.16328   -0.016464   0.0088706      0.1284     -1.4219     0.69616    0.049147
-0.16328   -0.031081   -0.041799   -0.024909     -1.2783     0.51362   -0.054142
-0.15158   -0.022311   -0.065835   -0.090521    -0.55694     0.36064    -0.10968
-0.12917  -0.0034721   -0.055116    -0.09117     0.46165     0.24013    -0.11878
-0.10514    0.016016   -0.019712   -0.062912       1.197     0.14334   -0.096042
-0.081101    0.031932    0.017965   -0.039851      1.2418    0.079679   -0.056741
-0.054792    0.037778    0.040052   -0.041799     0.54708    0.065062   -0.010943
-0.021337     0.03518    0.042975   -0.062587     -0.5943    0.097868    0.040052
0.020564    0.029983    0.034855   -0.077528     -1.7305     0.15503    0.094295
0.067011    0.028359    0.028684   -0.068758     -2.5025     0.20408     0.14529
0.11281    0.031607    0.030633   -0.031406     -2.7267     0.22714     0.18329
0.15016     0.03453    0.039078    0.020239     -2.4866     0.23071     0.20473
0.17257    0.034206     0.04395    0.061489     -2.0517     0.23559     0.20278
0.17907    0.030308    0.039727    0.068635     -1.6779     0.24501     0.17647
0.17127    0.025761    0.026085    0.045899     -1.5008     0.24208     0.13002
0.15503    0.023812    0.010495    0.013418     -1.5034     0.21382    0.075131
0.13717    0.026735   0.0062721  0.00010078     -1.5307     0.16056    0.023162
0.11931    0.034855    0.012119    0.014392     -1.4515    0.088773   -0.021986
0.09462    0.040377    0.017965    0.046223     -1.2225    0.011794   -0.060313
0.058241    0.039402    0.013743    0.072858    -0.86681   -0.047321   -0.094093
0.014392    0.032906  -0.0031473     0.07773     -0.4582   -0.078178    -0.12235
-0.030106    0.022837   -0.025234    0.053044   -0.084024   -0.088896    -0.14216
-0.064861   0.0085458    -0.04927   0.0023744     0.17257    -0.10189    -0.15581
-0.086623   -0.011267   -0.069408   -0.061937     0.30412    -0.13924    -0.16847
-0.089871   -0.031081     -0.0824      -0.123     0.40254    -0.20388    -0.18147
-0.075579   -0.045697   -0.089221    -0.16977     0.58346    -0.28995    -0.19641
-0.04862   -0.054467   -0.095068    -0.20778     0.93457    -0.37473    -0.21167
-0.023285   -0.059989    -0.10351    -0.25065      1.4809    -0.43417    -0.23181
-0.01484   -0.064536    -0.11651    -0.31009      2.1568    -0.45366    -0.25715
-0.026209   -0.067784    -0.13242    -0.38545      2.8256    -0.42962    -0.28281
-0.046347   -0.067134    -0.14314    -0.46048      3.3245    -0.37083    -0.30262
-0.060638   -0.060963    -0.14346    -0.50497      3.5298    -0.27793    -0.31074
-0.060638   -0.046996    -0.12852    -0.48938      3.4177    -0.14899    -0.29905
-0.041799   -0.028807    -0.10189    -0.40948       3.063   0.0075714    -0.26462
-0.007045   -0.007045   -0.069733     -0.2893      2.5901     0.16835    -0.21232
0.03453    0.016666   -0.034654    -0.16977      2.1097     0.30639    -0.14866
0.065062    0.037454 -0.00054884   -0.085648      1.6787     0.40091   -0.086298
0.073832    0.051745    0.031282   -0.046671      1.3013     0.44704   -0.033354
0.063438     0.06084    0.055643   -0.044073     0.96316     0.45581    0.011144
0.041351    0.064088    0.072208   -0.059664     0.66271     0.43924    0.053044
0.014717    0.064737    0.080978   -0.071032     0.41326     0.40546    0.092996
-0.010943    0.062139    0.088773     -0.0405     0.22032     0.35771     0.12515
-0.021661    0.057267    0.096244    0.061489    0.074157     0.29243     0.14919
-0.0031473    0.054668     0.10501     0.23396   -0.052518     0.20895     0.16445
0.058891    0.061165     0.11541     0.44151    -0.18796      0.1258     0.17745
0.15666    0.076106     0.12223      0.6299    -0.35264    0.071558     0.18849
0.26157    0.095919     0.11898     0.75106     -0.5537    0.063438     0.19856
0.33693     0.11671     0.10566     0.79198    -0.77197    0.097218     0.20473
0.36226     0.13457      0.0865      0.7608    -0.94639     0.15114     0.20148
0.32946     0.14432    0.065387     0.67278     -1.0581     0.19921     0.19044
0.24533     0.14009    0.047847     0.55455     -1.1572     0.23104     0.18069
0.13944     0.11931    0.037129     0.44054     -1.2991     0.25605     0.18946
0.053694    0.089423    0.044599     0.36583     -1.4456     0.29892     0.22422
0.025111    0.064737    0.079029     0.34667     -1.4888     0.37623     0.27846
0.064413    0.063763     0.12937     0.37103     -1.3706     0.47302     0.32816
0.15666    0.090397     0.17615     0.40384     -1.0929     0.54838     0.35349
0.26644     0.13814     0.20343     0.41131    -0.67647     0.55715     0.34732
0.35771     0.19076      0.2057     0.37201    -0.14801     0.47757     0.31159
0.40871     0.23656     0.18524      0.2895     0.46165     0.32718      0.2567
0.42008     0.26287     0.15536     0.19206      1.1031     0.15276     0.19726
0.40319     0.26514     0.12548     0.10306      1.6147  -0.0063954     0.14594
0.36421      0.2463    0.099167    0.033556      1.7554    -0.13632     0.10761
0.3051     0.21188    0.078055   -0.013866      1.5114    -0.23928    0.076755
0.22129       0.169    0.060515    -0.04115      1.1766    -0.32795    0.044924
0.1206     0.12483    0.042326   -0.050894      1.0203    -0.40656    0.012443
0.008221    0.082277    0.020239   -0.059339     0.95828    -0.47899   -0.020687
-0.11423    0.045249  -0.0054209   -0.084674     0.45061    -0.55629   -0.055116
-0.23766     0.01764   -0.036278    -0.14054     -1.0172    -0.65244   -0.093119
-0.34484  -0.0080194   -0.069083    -0.22174      -3.145     -0.7528    -0.13502
-0.4124   -0.037577   -0.097991    -0.30424     -4.9695    -0.80867    -0.17302
-0.42865   -0.068758    -0.11748    -0.35296     -4.9698    -0.76482    -0.19771
-0.39227   -0.096367     -0.1217    -0.34257     -4.9704    -0.60242     -0.2016
-0.32243    -0.11261    -0.10319    -0.27631     -4.1808    -0.35881    -0.18374
-0.23961    -0.11553   -0.063561    -0.17692     -2.1085    -0.11033    -0.14834
-0.14801    -0.10059   -0.011592   -0.068109    0.042001    0.079679    -0.10286
-0.041475    -0.06616    0.046873    0.044924      1.6872     0.19369   -0.051219
0.085525   -0.013541     0.10469     0.16868      2.5528      0.2515   0.0043233
0.2148    0.049472     0.15373     0.30217       2.695     0.29113    0.063438
0.31029     0.10339     0.18557     0.42592       2.341     0.32621     0.12288
0.34082     0.13067     0.19401      0.5094      1.7144     0.33433     0.17647
0.31062     0.12515     0.18362     0.53831     0.95081     0.30477     0.23201
0.24663    0.096569     0.17062     0.52596     0.24533     0.26287      0.3025
0.17615    0.061814     0.16738     0.48634    -0.12105     0.24143     0.39019
0.10469    0.025761     0.16543     0.39929   -0.037252     0.22909     0.46847
0.018615   -0.017764     0.14107      0.2057     0.31516     0.16478     0.49706
-0.09182   -0.080451    0.074806      -0.123     0.61659   -0.028157     0.44054
-0.22012    -0.16328   -0.027833    -0.52869     0.48666    -0.38545     0.29373
-0.33348    -0.25195    -0.14152    -0.90254    -0.45041    -0.85252     0.08585
-0.40169    -0.33218    -0.24545     -1.1601     -2.2209     -1.3008    -0.13892
-0.41565    -0.39681     -0.3312      -1.277     -4.3543     -1.6132    -0.34257
-0.3809    -0.44878    -0.40201     -1.2839     -4.9698     -1.7363    -0.50238
-0.31691    -0.48711     -0.4608     -1.2238     -4.9698     -1.6831    -0.60956
-0.2539    -0.51342    -0.50497     -1.1293     -4.9698     -1.5148    -0.66705
-0.21817    -0.52316    -0.52998     -1.0217     -4.9701      -1.303    -0.68264
-0.22012    -0.51212    -0.53518    -0.91521     -3.7524     -1.0841    -0.66933
-0.25162    -0.47477    -0.51959    -0.81484     -1.0825     -0.8392    -0.63717
-0.28995    -0.40818    -0.48744    -0.72357      1.8057    -0.52836    -0.59917
-0.31106    -0.31724    -0.44099    -0.63262      4.3457    -0.13697    -0.55597
-0.31139    -0.20583    -0.37862    -0.52706      4.9589     0.29892    -0.49815
-0.31301   -0.090196    -0.29872    -0.39357      4.9593     0.70428    -0.42085
-0.34062   0.0078962    -0.20518    -0.23701      4.9589      1.0005    -0.33218
-0.39389    0.065712    -0.11293   -0.085648      4.9589      1.1379    -0.24513
-0.44943    0.075456   -0.042774    0.029009      4.9593      1.1122     -0.1701
-0.47314    0.050121  -0.0063954    0.084876      4.9593     0.95439    -0.11293
-0.44521    0.015367  0.00075039    0.087799      4.1193      0.7137   -0.076879
-0.37018   -0.007045  -0.0073698    0.058566       2.431     0.43989   -0.062262
-0.27826   -0.010943   -0.021986    0.025111     0.55877      0.1716   -0.063886
-0.19641  0.00042559   -0.036927    0.003024     -1.2884    -0.06616   -0.076554
-0.1269     0.02706   -0.044073   0.0065969     -2.7046    -0.25195   -0.092469
-0.060638    0.078379   -0.030106    0.045574     -3.5007    -0.37018   -0.096692
0.0065969      0.1625   0.0046481     0.10989     -3.7011     -0.4228   -0.079477
0.06019     0.26742    0.051745      0.1651     -3.3584    -0.42962   -0.047971
0.079029     0.37201    0.095594     0.18134     -2.5331     -0.4137   -0.013216
0.057592     0.45483     0.12223     0.15893     -1.3751    -0.37862    0.020239
0.012768     0.49933      0.1284     0.11931    -0.14541    -0.32146    0.053694
-0.02426     0.50258     0.11801      0.0852     0.84005    -0.25487    0.084551
-0.03173     0.46847    0.096893    0.067336      1.3315    -0.21232     0.10501
-0.010293     0.40156    0.071883    0.059216      1.2262    -0.23928     0.10371
0.023812     0.31322    0.049147    0.053694     0.65102    -0.36238    0.079354
0.055643     0.21415    0.033556    0.053694     -0.1243    -0.55597    0.039727
0.081952     0.12028    0.032906    0.063113    -0.78041    -0.75053  -0.0024977
0.10599    0.043625    0.048822    0.091372     -1.0789    -0.87655   -0.038227
0.1323  -0.0093186    0.076755     0.13749    -0.93469    -0.89442   -0.063561
0.15926   -0.037252     0.10664     0.19239    -0.42345     -0.7999   -0.068109
0.17745   -0.046996     0.13457     0.24371      0.2895    -0.60469   -0.050569
0.18232   -0.045372     0.15666     0.28496     0.99986    -0.32893   -0.010943
0.17322   -0.042124      0.1703     0.31549      1.5157   0.0033489    0.042975
0.15049   -0.045372      0.1742     0.33498      1.6946     0.34764    0.095919
0.11898   -0.058365     0.16965      0.3444      1.4841     0.63348     0.13522
0.082602    -0.07493     0.15828     0.34115     0.89397     0.79978     0.15406
0.049796   -0.084999     0.14237     0.31841   0.0075714     0.82219     0.15146
0.026735   -0.084999     0.12125     0.28301    -0.94769     0.73482     0.14172
0.019589   -0.072006    0.099167     0.25897     -1.6925     0.60976     0.14009
0.032582   -0.048945    0.079029     0.26872     -2.0342     0.52434     0.15309
0.064413   -0.025234    0.064413     0.30672     -1.9104     0.51037     0.17485
0.10794  -0.0063954    0.053694      0.3418     -1.4011     0.54383     0.18946
0.15633   0.0062721    0.036804     0.33725    -0.69499     0.56949     0.18232
0.20148    0.014068    0.010819     0.27651   -0.038227     0.53149     0.15179
0.23656    0.019264   -0.015165     0.16965     0.34797     0.41196     0.10534
0.25183    0.023487   -0.029457    0.057592     0.44476     0.23818    0.055318
0.24598    0.025761   -0.029132   -0.014516     0.43989    0.078704    0.020888
0.22909    0.024786    -0.01614   -0.020362     0.51849   0.0043233    0.022512
0.21935    0.021863   0.0046481    0.034206     0.73059    0.042326    0.074806
0.23818    0.014392    0.029333     0.11898     0.99953     0.16608     0.17062
0.28918   0.0036737    0.055968     0.20668      1.2048     0.32588     0.28821
0.36356  -0.0076946    0.082927      0.2895       1.261     0.48017     0.39669
0.43859   -0.016464     0.10664     0.36453      1.1337     0.57956     0.46717
0.48666   -0.022961     0.12255     0.42495     0.83843      0.5867     0.48179
0.48666   -0.029132     0.12678     0.46523     0.39637     0.49511     0.43924
0.42105   -0.034329     0.12223     0.47497    -0.13047     0.33043     0.35641
0.28431   -0.039851     0.11118     0.45646    -0.53518     0.14204     0.25962
0.092021   -0.047321    0.095269      0.4152     -0.6388  -0.0096434     0.17485
-0.10286   -0.052518    0.073182     0.35512    -0.53486   -0.076554     0.11801
-0.23181   -0.043748    0.046548     0.27944     -0.5433   -0.037252     0.09397
-0.24968   -0.010943    0.019589     0.19563    -0.88045    0.099492    0.096893
-0.16263    0.047523  0.00042559     0.11801     -1.4187     0.29892     0.10794
-0.023285     0.12255  -0.0037969    0.055643     -1.8549     0.49641     0.11118
0.10047     0.19466   0.0059473    0.022512     -1.9598      0.6325     0.10242
0.16608     0.24468    0.024461    0.028359     -1.7107     0.69519    0.089748
0.16998      0.2619    0.045574    0.066686     -1.1546     0.70201    0.080003
0.12483     0.23559    0.061165     0.10534    -0.30652     0.67667    0.072208
0.049796       0.169    0.059216     0.10566      0.8066     0.62308    0.056617
-0.036278    0.081303    0.039402    0.050446        2.06     0.53441    0.022512
-0.11293  -0.0028225    0.012443   -0.044723      3.1787     0.41033   -0.030106
-0.1714   -0.060313  -0.0050961    -0.14379      3.7529     0.26125   -0.084024
-0.21849   -0.080776  -0.0067202    -0.20713      3.4921     0.11931    -0.12008
-0.25845   -0.072331    0.003024    -0.22109      2.5063    0.012443    -0.13242
-0.29677   -0.056741    0.014392     -0.2016      1.2997   -0.062262    -0.12885
-0.33965   -0.047971     0.01829    -0.18017     0.47659    -0.12463     -0.1256
-0.37765   -0.051544    0.013743      -0.174     0.38207    -0.14639     -0.1308
-0.39844    -0.06616  -0.0011985    -0.17887     0.93457   -0.070382    -0.15029
-0.38934   -0.084349   -0.019712    -0.17432      1.7888     0.11703    -0.17302
-0.34322    -0.10026   -0.034654    -0.13892      2.5914     0.35999    -0.17302
-0.2474    -0.10936   -0.036927   -0.063886      3.0949     0.57793    -0.13697
-0.10286    -0.11228   -0.023285    0.042001      3.1611     0.71987   -0.073306
0.072533    -0.10903   0.0039985     0.15438      2.6577     0.80075  -0.0057458
0.25702    -0.10026     0.03583      0.2463      1.4267     0.86766    0.050121
0.42592   -0.084349    0.063763      0.3051    -0.51699     0.94756    0.096893
0.55455   -0.062587    0.078704     0.33303     -2.7455       1.021     0.14302
0.62146   -0.037902    0.080978     0.33887     -4.6898       1.044     0.19596
0.61788  -0.0080194    0.077405     0.33985     -4.9701      0.9742      0.2541
0.55227    0.025436    0.078379      0.3431     -4.9698     0.78191     0.30347
0.44281    0.062464    0.080978     0.33011     -4.9701     0.43794     0.32848
0.30964    0.091696    0.076755     0.26612     -4.3322   -0.077528     0.31322
0.1742     0.10469    0.054019     0.14139     -3.4175    -0.72877     0.25572
0.058241    0.096893    0.017965   -0.024585      -2.474     -1.4122     0.17582
-0.018738    0.073182   -0.023935    -0.18991     -1.1923     -1.9958     0.10664
-0.04992    0.044275   -0.056416    -0.31171     0.53863     -2.3827    0.069934
-0.043748    0.022837   -0.068434    -0.36531      2.3079     -2.5487    0.073182
-0.017439    0.011794   -0.059664    -0.35232      3.4824     -2.5425     0.10144
0.0069217   0.0078962   -0.042449    -0.30782      3.5467     -2.4532      0.1232
0.003024   0.0020496   -0.032705    -0.27274      2.3079     -2.3525     0.10242
-0.039851   -0.013541   -0.041475    -0.27339     0.16803     -2.2567    0.021538
-0.10871   -0.037577    -0.06551    -0.30587     -1.9325     -2.1225    -0.10449
-0.17692   -0.062262   -0.096692    -0.35556     -3.1801     -1.8961    -0.24123
-0.22726   -0.081101     -0.1269    -0.41435     -3.3724     -1.5619    -0.35784
-0.25747   -0.093119    -0.15158    -0.48808     -2.7692     -1.1637    -0.43871
-0.27599    -0.10449    -0.16718    -0.56799     -1.8185    -0.76222    -0.47899
-0.28833    -0.11748    -0.17822    -0.63652    -0.83206    -0.39811    -0.48191
-0.29158    -0.13112    -0.18959    -0.68037     0.05207    -0.10124    -0.46243
-0.28735    -0.14509    -0.20453    -0.71513     0.74748    0.099817    -0.43579
-0.28151    -0.16523    -0.22467    -0.77262      1.1866     0.18589     -0.4137
-0.27469    -0.19121    -0.25195    -0.85447      1.3273     0.16803    -0.40363
-0.2565    -0.21849    -0.27469    -0.89377      1.1951     0.10534    -0.39974
-0.21037    -0.23376    -0.28281    -0.82394     0.85987     0.07773    -0.39032
-0.12463    -0.22824    -0.27404    -0.63912      0.4243     0.12515    -0.36693
-0.0067202    -0.20648    -0.25292    -0.39129    0.022837     0.24078    -0.32536
0.11183    -0.18147    -0.22239    -0.14964    -0.23181     0.38207    -0.27664
0.19434     -0.1701    -0.19121    0.029009      -0.288     0.48991     -0.2435
0.2083    -0.17724    -0.16523     0.11248   -0.035303     0.51395    -0.23506
0.14042    -0.19771    -0.14671     0.11671     0.73482     0.44444    -0.24318
0.0075714    -0.21655     -0.1321     0.12125      2.1052     0.31939     -0.2487
-0.15353    -0.21785    -0.11066     0.21805      3.8741     0.19044    -0.24026
-0.30132    -0.18991   -0.072981     0.42722      4.9589    0.095594    -0.21655
-0.41046    -0.13534   -0.021337     0.64517      4.9589    0.059541    -0.18244
-0.47217   -0.069408    0.029333     0.73676      4.9589    0.092346    -0.14574
-0.48321  -0.0083442    0.064088     0.66108      4.9589     0.18264    -0.10416
-0.45041    0.036479     0.07773     0.48764      4.2496     0.31646   -0.051219
-0.37895    0.070584    0.074482     0.31939       2.593     0.47205    0.022837
-0.27436     0.10047    0.061489     0.23201     0.98005     0.62471     0.11606
-0.14866     0.12775    0.048497     0.24825    -0.44001     0.75495     0.21382
-0.025234     0.15309    0.041676      0.3431     -1.5846     0.85272     0.29795
0.074806     0.17907    0.046223      0.4727     -2.4769     0.91541     0.35544
0.14237     0.20635    0.063438     0.58833     -3.1937     0.94107     0.38565
0.17874     0.23136    0.090722     0.65719      -3.959     0.92418     0.39312
0.18881     0.24306     0.12093     0.66596     -4.9701     0.85694     0.38207
0.18004     0.23656     0.14237     0.61886     -4.9698     0.73741     0.35739
0.17127     0.20895     0.15114     0.53311     -4.9698     0.57761     0.32913
0.17095     0.17225     0.15179     0.43307     -4.9698     0.40481      0.2973
0.16965     0.13944     0.14919      0.3327     -4.9698     0.25215     0.26222
0.15276     0.11671     0.14399     0.23883     -4.9698     0.14139     0.22682
0.11443    0.098842      0.1362     0.15796     -4.9701     0.08585     0.19369
0.059216    0.081627      0.1219    0.088124     -4.9701      0.0852      0.1664
-0.0031473    0.062789    0.097543    0.022188     -3.1018     0.13035     0.14561
-0.053817    0.043625    0.065712   -0.046022     0.17485     0.21805      0.1258
-0.0837    0.032257    0.028684    -0.11488      2.9328      0.3353    0.097543
-0.096692    0.032257  -0.0060706    -0.18049        4.83     0.44769    0.054668
-0.10384    0.042326   -0.033679    -0.24448      4.9586     0.51525   0.0052977
-0.11196    0.055643    -0.04992    -0.30684      4.9589      0.5029   -0.047321
-0.1256    0.065062   -0.060638    -0.36791      4.9593     0.39539   -0.098316
-0.14704    0.062464   -0.072656    -0.42605      4.9589     0.20148    -0.14769
-0.174    0.044924   -0.089546    -0.47184      4.3106   -0.047971    -0.19446
-0.19836    0.014392    -0.11066    -0.50043      2.3592    -0.32276    -0.23701
-0.21622    -0.02426     -0.1334    -0.50952    -0.04927     -0.5943    -0.27404
-0.2172   -0.060963    -0.14834    -0.49653     -2.1732    -0.81549     -0.2958
-0.18829   -0.085973    -0.14769    -0.45073     -3.4091    -0.91456    -0.29353
-0.12755   -0.089546    -0.12592    -0.37018     -3.6189     -0.8405    -0.26462
-0.04992   -0.071682   -0.089871    -0.26202     -2.9868    -0.59332    -0.21687
0.021863   -0.041799   -0.047321    -0.14184     -1.8974    -0.22954    -0.16588
0.070584   -0.013866  -0.0044465   -0.014191    -0.70246      0.1677    -0.11813
0.096569    0.010495    0.039402     0.11703     0.40903     0.52142   -0.071357
0.10956    0.034206    0.087474     0.24533      1.3721     0.78743   -0.018413
0.12158    0.061814     0.13782     0.36291      2.2065     0.95763    0.045899
0.14172    0.092996     0.18557     0.46328      2.8776      1.0531     0.11931
0.17062     0.12613     0.22682     0.53766      3.2979      1.0918     0.19531
0.20343     0.15861     0.25183     0.56981       3.368      1.0638      0.2606
0.22941     0.18102     0.25443     0.54026      3.0098     0.95341     0.30152
0.23916     0.18784     0.23039     0.44931      2.2741     0.76892     0.30867
0.22584     0.17939     0.18719     0.31874      1.2808     0.53408     0.28138
0.18881     0.15698     0.13165      0.1677     0.18297     0.27229     0.22487
0.13392     0.12515    0.071234    0.020239    -0.76742   0.0033489     0.15438
0.078704     0.09397    0.015692   -0.099615     -1.2939    -0.23181    0.087474
0.037129    0.066037   -0.030756    -0.17465     -1.2286     -0.3757    0.039727
0.009845    0.037778   -0.063561    -0.20583      -0.542    -0.38447    0.014392
-0.0063954   0.0033489   -0.086623    -0.20908     0.59807    -0.26689    0.003024
-0.017114   -0.040825    -0.10221     -0.2133      1.8713   -0.084024   -0.008669
-0.026533   -0.089221    -0.11488    -0.23928      2.9477    0.072858    -0.03173
-0.035953    -0.12852    -0.12755    -0.28573      3.5262     0.14496   -0.068758
-0.040825    -0.14574    -0.13892     -0.3351      3.3252     0.13555    -0.11066
-0.034978    -0.13827    -0.14314    -0.36661      2.1783    0.090072    -0.14411
-0.016464    -0.11715    -0.13697    -0.37018     0.31192    0.059865    -0.15483
0.0091954   -0.096367      -0.123    -0.35524      -1.493    0.060515    -0.14769
0.030308   -0.086623    -0.10481    -0.34225     -2.3986    0.057592    -0.13632
0.034206   -0.092794   -0.091495    -0.34939     -2.1839  -0.0063954    -0.13047
0.012768    -0.10838   -0.085648    -0.37862      -1.266    -0.15418     -0.1308
-0.024909     -0.1191   -0.085324    -0.41078    -0.38902    -0.36271    -0.13437
-0.061288    -0.10968   -0.084024    -0.41955   -0.020687    -0.57643    -0.13145
-0.077853   -0.075255   -0.074605    -0.38317   -0.064861    -0.73786    -0.11488
-0.073955   -0.029132   -0.059339    -0.30165   -0.075255    -0.82296   -0.086948
-0.062262   0.0069217   -0.048296    -0.19154     0.39084    -0.84537   -0.059989
-0.056091    0.011794   -0.046022   -0.078503      1.5062    -0.83595   -0.043099
-0.056416   -0.014191   -0.045697    0.023812      3.1728    -0.81127   -0.034004
-0.051219   -0.049595   -0.037902     0.11573      4.9593    -0.74988   -0.019712
-0.026858   -0.070058   -0.020037     0.19856      4.9589    -0.61119   0.0085458
0.016666   -0.064211   0.0072465     0.27229      4.9589    -0.36985    0.048497
0.07708   -0.034329    0.041027     0.34017      4.9589   -0.030431    0.093645
0.14367    0.013743    0.077405     0.40806      4.9593     0.37753     0.14691
0.2083    0.069934     0.11833     0.48114      4.9593     0.80887     0.20928
0.2619     0.12613     0.15666     0.54123      4.9596      1.1895     0.27326
0.29178     0.17127     0.17842     0.54123      4.9593      1.4143     0.31257
0.28268     0.19076      0.1638     0.43567      4.9589      1.3971     0.30704
0.22714     0.17355     0.10859     0.21577     -1.3719      1.1158     0.24825
0.1336     0.12125    0.024137   -0.070707     -4.9701     0.60522     0.13977
0.027385    0.048497   -0.069733    -0.34809     -4.9698   -0.069733  -0.0089938
-0.073631   -0.028807    -0.15711    -0.56084     -4.9695    -0.81484    -0.17757
-0.16035    -0.10741    -0.23149    -0.70668     -4.9695     -1.5356    -0.34517
-0.24286    -0.18829    -0.29645    -0.80737     -4.9695     -2.1618    -0.49523
-0.32795    -0.26689    -0.35589    -0.88403     -4.9698     -2.6412    -0.61931
-0.40493    -0.32763    -0.40331     -0.9321     -4.9695     -2.9371    -0.71025
-0.44976    -0.34939    -0.42507    -0.93047     -4.9698     -3.0287    -0.76255
-0.43871    -0.32666    -0.40981    -0.85966     -4.9698     -2.9173    -0.77262
-0.3744    -0.26981    -0.35979    -0.72195     -4.9695     -2.6269    -0.73754
-0.27501     -0.2029    -0.28313     -0.5433     -4.5193     -2.2044    -0.66056
-0.16977    -0.14574    -0.19608    -0.35556     -2.2154     -1.7168    -0.55045
-0.080451    -0.10416    -0.11391    -0.18114    -0.17205     -1.2325    -0.41825
-0.017439    -0.07493   -0.044073    -0.03173      1.3948    -0.79893    -0.27858
0.0091954   -0.048296   0.0072465    0.090072      2.3972    -0.42897    -0.13957
-0.00087364   -0.019388    0.042001     0.18589      2.9114    -0.11131  -0.0093186
-0.039526    0.013418    0.067986     0.25572      3.0611      0.1768     0.10891
-0.089871    0.047847    0.094295     0.30607      3.0075     0.45223       0.207
-0.13437    0.079029     0.12125     0.34635      2.8776     0.71273     0.27846
-0.1636    0.098193     0.14432     0.38175      2.7567     0.93197     0.32101
-0.17627    0.099167     0.15601     0.40643      2.6398      1.0755     0.33855
-0.17302     0.08585     0.15601      0.4191      2.4212      1.1265     0.33855
-0.15353     0.06961     0.15049     0.42657      2.0087      1.0898     0.33043
-0.11553    0.061489     0.15016     0.43502      1.3906     0.99011     0.31809
-0.056416    0.067661     0.15893     0.44866     0.69032     0.86084     0.30899
0.016341    0.084226     0.17615     0.46263     0.11703     0.73222     0.30672
0.093645     0.10144     0.19499     0.47984    -0.14314     0.63867     0.31062
0.1638     0.11216     0.20863     0.50128   -0.045697     0.61659     0.31744
0.21935     0.11606     0.21382     0.52272     0.30704      0.6718     0.32491
0.26384     0.12288     0.20863     0.54123     0.71857     0.77509     0.33205
0.30185     0.13684     0.19921     0.55065     0.97257     0.86441     0.34082
0.33628     0.15991     0.19304     0.54935     0.94984     0.89137      0.3457
0.35934     0.18492     0.19304     0.54026     0.67635     0.83518     0.34959
0.36583      0.2057     0.19628     0.52726     0.27424      0.7189     0.35187
0.35512     0.21837     0.19661     0.50972    -0.11358       0.588     0.35219
0.33368     0.22324     0.19109     0.47952    -0.39129     0.47724     0.34927
0.3038     0.21837     0.17907     0.43339    -0.51992     0.39344     0.34017
0.27196       0.207     0.16056      0.3785    -0.51959     0.32621     0.32198
0.24695     0.19953     0.14042     0.32946     -0.4621     0.27132     0.30412
0.23883     0.20278     0.12775     0.31224    -0.42572     0.24241     0.29827
0.25637     0.21545     0.13457     0.34505    -0.47087     0.25248     0.30834
0.296     0.22909     0.16121     0.42365    -0.62418      0.3012     0.33433
0.34829     0.23526     0.19986     0.52077    -0.88208     0.37103     0.36746
0.40189     0.23331     0.24273     0.60684     -1.2309     0.43859     0.39734
0.44574     0.22617     0.27944     0.66238     -1.6028     0.48634     0.41878
0.46652     0.21642     0.30315     0.68869      -1.836     0.51135     0.42592
0.45646     0.20343     0.31159     0.69259     -1.7162     0.51979     0.41488
0.40838     0.18232      0.2999     0.66466     -1.1088     0.52142      0.3863
0.32231     0.14626     0.26222     0.58248   -0.046996      0.5107     0.33823
0.20181    0.087149     0.19336     0.42105      1.3156     0.48244     0.26514
0.058891   0.0069217    0.094945     0.18004      2.7772     0.43242     0.17647
-0.086298   -0.079802   -0.019063    -0.10319      4.1239     0.37136    0.087799
-0.20323    -0.15191      -0.123    -0.36856      4.9589     0.31159    0.015692
-0.27728    -0.19219    -0.19608    -0.56994      4.9589      0.2528   -0.037577
-0.31204    -0.20518    -0.23441    -0.68622      4.9589      0.1781     -0.0837
-0.32211    -0.20355    -0.24805    -0.73007      4.0849    0.075131    -0.13534
-0.31951     -0.2029    -0.25617    -0.73429      2.7847   -0.059339    -0.20388
-0.31074     -0.2068    -0.26884    -0.72812      1.7446      -0.212    -0.28476
-0.29482    -0.21297    -0.28898    -0.72584      1.2493    -0.35719    -0.36011
-0.26787    -0.21525    -0.30717    -0.72097      1.2971    -0.45983    -0.41988
-0.23116     -0.2146    -0.31594    -0.70018      1.6975    -0.49101     -0.4582
-0.18959     -0.2107    -0.31334    -0.65016      2.1675    -0.45236    -0.47055
-0.15093     -0.2042    -0.29612    -0.57059      2.4053    -0.37375     -0.4582
-0.12008    -0.19543    -0.26364      -0.466      2.2143     -0.2971    -0.41793
-0.092145    -0.18244     -0.2146     -0.3429      1.6342    -0.23961    -0.34874
-0.061613     -0.1649    -0.15386    -0.20875     0.84005    -0.19056    -0.25942
-0.027508    -0.14476   -0.088572   -0.073306   -0.046996    -0.13177    -0.16653
0.0085458    -0.12073   -0.027183    0.050771    -0.96718   -0.054467     -0.0837
0.038753   -0.087597    0.022512     0.15698     -1.8243     0.03453   -0.018413
0.056617   -0.046022    0.059865     0.24208     -2.4895     0.12223    0.030957
0.056942   0.0049729    0.087474     0.30282     -2.8556     0.19563    0.066362
0.036154    0.055318     0.10534     0.33238     -2.9193     0.22779    0.088448
-0.0099683    0.092346     0.10989     0.31224     -2.7728     0.19174    0.091372
-0.076229     0.10794    0.094945     0.23689     -2.4649      0.0865    0.074157
-0.14834     0.10209    0.059865     0.11963     -1.9504   -0.058365    0.046873
-0.2094    0.083576    0.013093   -0.011592     -1.2014    -0.19836    0.016991
-0.24448    0.062139   -0.031081    -0.11618    -0.29223    -0.29288   -0.011592
-0.24903    0.045249   -0.061937    -0.15483     0.56754    -0.32763   -0.036927
-0.22272     0.03583   -0.071682    -0.12008      1.1041    -0.32341   -0.054467
-0.16945    0.037778   -0.058365    -0.04862      1.1746    -0.32763   -0.067459
-0.10189    0.044275    -0.03303  -0.0034721     0.82219    -0.38057   -0.084349
-0.035303    0.041676   -0.015165   -0.032055     0.15536    -0.49718    -0.11878
0.015367     0.01829   -0.019063    -0.13534    -0.68394     -0.6651    -0.18082
0.039727   -0.023935   -0.052518    -0.27631     -1.4937    -0.84895    -0.26332
0.021538   -0.075904    -0.10903    -0.40786      -2.078    -0.99868    -0.35329
-0.039851    -0.12917    -0.17107     -0.4962     -2.2908     -1.0659    -0.42865
-0.13729    -0.17627    -0.21947    -0.52836     -2.0897     -1.0165    -0.47509
-0.24838    -0.21167    -0.24286    -0.51147     -1.5567    -0.85447    -0.48906
-0.34614    -0.22661    -0.23961     -0.4556    -0.86941    -0.62678    -0.47217
-0.40363    -0.21914    -0.21395    -0.37083    -0.28021    -0.40006    -0.43189
-0.41111    -0.19478    -0.17854    -0.27436   -0.012892    -0.22499    -0.37245
-0.3731    -0.16393    -0.14509    -0.17919    -0.11748     -0.1178    -0.30522
-0.30782    -0.13502    -0.11651   -0.092145    -0.46015   -0.059339    -0.23636
-0.23701    -0.10903   -0.089871   -0.012892    -0.81159   -0.017114     -0.1662
-0.18666   -0.081101    -0.05804    0.063763    -0.95711    0.037778   -0.092794
-0.17497    -0.04992   -0.015815      0.1362    -0.72227     0.12353   -0.026533
-0.19998   -0.017114     0.03453     0.19921   -0.061613     0.24046    0.021538
-0.23701    0.012443    0.078379     0.24468      0.8472     0.36713     0.05142
-0.26137    0.032906     0.10631      0.2619      1.5455     0.47042    0.062139
-0.25975    0.038428     0.11021      0.2476      1.5436     0.52759    0.058566
-0.22174    0.030633    0.092996     0.20895     0.72247      0.5461     0.05272
-0.14704    0.010819     0.06961     0.16315    -0.56052     0.55357    0.055643
-0.044073   -0.018413    0.053694     0.12937     -1.7889     0.57306    0.074482
0.080978    -0.04927    0.054019     0.12775     -2.6338     0.61204     0.11671
0.22747   -0.073955    0.067336     0.15926     -2.9492     0.65719     0.18004
0.3772   -0.083375    0.086824     0.21415       -2.79     0.68739      0.2528
0.5055   -0.073631     0.10631     0.27294     -2.3768      0.6783     0.31419
0.58865   -0.045047     0.12548     0.32101      -2.014     0.61594     0.35219
0.61788   0.0065969     0.14432       0.347      -1.874     0.49446     0.36421
0.59515    0.072533     0.16283     0.34505     -1.8533     0.32913     0.34894
0.52921     0.13717      0.1729     0.31192     -1.8136     0.14756     0.31257
0.43924     0.18557     0.16673     0.25053     -1.7772   -0.008669     0.27294
0.35576      0.2057     0.14561     0.17874     -1.8393   -0.090845     0.24533
0.30445     0.20213     0.11931     0.11736     -2.0225   -0.074605     0.23559
0.29535     0.19141    0.097543    0.086824     -2.2151    0.025436     0.24046
0.32198     0.19271    0.097868     0.10047     -2.2534     0.17192     0.25183
0.36713     0.21837     0.12223     0.15146     -2.0926     0.33303     0.26157
0.40416     0.26319     0.15438      0.2148     -1.8786     0.48634      0.2567
0.40936     0.30445     0.17192      0.2619     -1.8058     0.63088     0.23624
0.37233     0.31971     0.15991     0.28008     -1.9192       0.766     0.20928
0.30087     0.29795     0.11801      0.2606     -2.0247     0.87156     0.18914
0.21317     0.23851    0.056942      0.2057     -1.6766     0.91184      0.1781
0.11671     0.15633  -0.0089938     0.11443    -0.46178     0.85467      0.1664
0.014717     0.06961   -0.069408   -0.022961      1.5299     0.66661      0.1349
-0.092794   -0.010618    -0.12268    -0.21037      3.5541     0.32458    0.063763
-0.2016   -0.075904    -0.17822    -0.43709      4.8566    -0.14314   -0.052193
-0.30554    -0.12527    -0.24221    -0.67323      4.9586    -0.65569    -0.20096
-0.40136    -0.16198    -0.31269    -0.87493      4.7602     -1.1244    -0.36141
-0.48646    -0.19121    -0.38057     -1.0003      4.3782     -1.4706    -0.50725
-0.5537     -0.2159    -0.42767     -1.0253      4.4389     -1.6473    -0.61216
-0.59852    -0.23344    -0.43969    -0.95613      4.9122     -1.6379    -0.66186
-0.61411    -0.23084    -0.41468    -0.81971      4.9589     -1.4622    -0.65309
-0.60014    -0.20518    -0.36563    -0.65146      4.9586      -1.179      -0.593
-0.55662    -0.16263      -0.301    -0.48906      4.9586    -0.86973    -0.49556
-0.49003    -0.11228    -0.23246    -0.35719      4.7605    -0.61216     -0.3757
-0.40493   -0.063561     -0.1662    -0.26462      3.7919    -0.44911    -0.24643
-0.30262   -0.020037    -0.10774     -0.2055      2.6791    -0.37408    -0.12105
-0.18894    0.019589   -0.057715    -0.16523      1.5511    -0.35426   -0.012567
-0.078178    0.054993   -0.019388    -0.11845      0.5159    -0.35361    0.067011
0.014392    0.083576   0.0078962   -0.046671    -0.23766    -0.35069     0.10826
0.075781    0.098193    0.028034    0.051745    -0.47509    -0.33575     0.11606
0.10306    0.097218     0.04395     0.16835    -0.17822    -0.30359     0.10242
0.10534    0.088773    0.059541     0.28626     0.44411    -0.23961    0.081627
0.095594    0.083576    0.080653     0.38922      1.1642    -0.11423     0.06961
0.087799      0.0865     0.10631      0.4649      1.8135     0.10047    0.070259
0.091047    0.090072     0.13197     0.49641      2.2049     0.38045    0.079354
0.10144    0.086824     0.14237     0.47367      2.0863      0.6338     0.08585
0.10924    0.069285      0.1284     0.39604      1.2886     0.74846    0.080653
0.10079    0.039727    0.093645     0.28398     -0.2133      0.6705    0.061165
0.067661   0.0010752    0.046223     0.15796     -2.3349     0.41163     0.02706
0.011794     -0.0405 -0.00054884    0.037129     -4.7872    0.045899   -0.014191
-0.050894   -0.077203   -0.034654   -0.055116     -4.9698    -0.31724   -0.051868
-0.10156    -0.10481   -0.048296   -0.093444     -4.9698    -0.57578   -0.071357
-0.12527     -0.1178   -0.032055   -0.069083     -4.9701    -0.67615   -0.065186
-0.11391    -0.11845   0.0043233   0.0069217     -4.9698     -0.6271   -0.035628
-0.062912    -0.11228    0.044275     0.10436     -4.4335    -0.46762    0.008221
0.025436    -0.10481    0.072533     0.19141     -1.8172    -0.24415    0.053694
0.13717   -0.093769    0.082927     0.24436     0.47984  -0.0080194    0.087149
0.24566   -0.079477     0.07708     0.25702      1.9837     0.18134    0.095594
0.32198   -0.062262    0.067336     0.24273      2.6902     0.27261     0.07708
0.35544   -0.047971    0.063113     0.22162      2.8227     0.25118    0.045249
0.34927   -0.036602    0.063113     0.20603       2.569     0.13977    0.013743
0.31322   -0.025559    0.059541     0.19141      1.8944   -0.019063   -0.014516
0.26125   -0.012567    0.047523     0.16348     0.71208    -0.17757   -0.037902
0.2109   0.0072465    0.029009     0.11963     -0.7645    -0.28898   -0.045372
0.17874    0.038428    0.018615    0.080978     -1.9897    -0.30359   -0.028157
0.1768    0.084551    0.029333    0.085525     -2.5094    -0.18601    0.020239
0.19628     0.13587    0.067336     0.15373      -2.168    0.063438     0.10177
0.21967     0.18167     0.12548     0.27164     -1.1396     0.40741     0.20408
0.23006     0.21447     0.18654     0.40773     0.23006     0.79003     0.30477
0.2135     0.23039     0.23461     0.52499      1.5537      1.1619     0.38402
0.17387     0.22877     0.25962     0.59612       2.505      1.4867     0.43047
0.1284     0.20993     0.26027     0.61139      2.6414      1.7125     0.43502
0.096244      0.1781     0.23656     0.56202        1.63       1.769     0.39572
0.073507     0.13295     0.19076     0.44379    -0.36466      1.5832     0.31711
0.047523    0.074806     0.12645     0.26125     -2.6952      1.1373     0.20895
0.0036737   0.0062721    0.048822    0.035505     -4.7707     0.49933    0.083251
-0.061288    -0.06551   -0.037577    -0.19478     -4.9701     -0.1701   -0.047646
-0.14119    -0.13372     -0.1269    -0.39941     -4.9698    -0.67355    -0.17692
-0.22207    -0.19056    -0.20745    -0.55759     -4.9695     -0.8902    -0.29385
-0.29223    -0.22726    -0.26819    -0.65634     -4.4871    -0.82199     -0.3835
-0.34257    -0.23993    -0.30132    -0.69109     -2.6451    -0.58065    -0.43189
-0.37992    -0.23474    -0.30652    -0.67842     -1.0412    -0.32373    -0.44001
-0.41078    -0.22597    -0.29093    -0.64724    0.031607    -0.17172    -0.42637
-0.43644    -0.22077    -0.26559    -0.62126      0.6796    -0.14444    -0.40591
-0.44521    -0.21849    -0.23733    -0.59852      1.2288    -0.16815    -0.38512
-0.42345    -0.21167    -0.20745    -0.55889      1.8671    -0.14769    -0.35881
-0.36368    -0.19771    -0.17659    -0.48873      2.5278   -0.043099    -0.31691
-0.27046    -0.17887    -0.14639    -0.39292      3.0185     0.10469    -0.25617
-0.15808    -0.15353    -0.12138    -0.28443      3.1933     0.19823    -0.18374
-0.035953    -0.11975    -0.10189    -0.17984      3.1111     0.16868    -0.11293
0.092671   -0.077853   -0.085324   -0.095717       2.974    0.017316    -0.04927
0.22194   -0.029457   -0.071032   -0.034329       3.025     -0.2094   0.0043233
0.32783    0.012768    -0.05804   0.0069217      3.4203    -0.46957    0.044275
0.37558    0.034206   -0.047321    0.035505      4.1154    -0.75475    0.063438
0.34992    0.032906   -0.030106    0.064413      4.7995      -1.051    0.064737
0.26157    0.023162 -0.00054884     0.10177      4.9586     -1.3076    0.061165
0.14756    0.021538    0.038103     0.14496        4.46     -1.4697    0.066686
0.048497    0.026735    0.078704     0.18232       3.102     -1.5067    0.087474
-0.011917    0.029333     0.11118      0.2044      1.0853     -1.4265     0.11866
-0.027833    0.017316     0.13035     0.21415      -1.293      -1.254     0.15373
-0.0089938  -0.0096434     0.13457     0.22032     -3.4874     -1.0182     0.18427
0.02641   -0.043099     0.12743     0.22097     -4.9698    -0.75962     0.19661
0.058241   -0.072981     0.10989     0.20343     -4.9698    -0.51732     0.17712
0.072208   -0.082725    0.084551     0.15471     -4.9701    -0.31204       0.131
0.069934   -0.065186    0.058891    0.072533     -4.9701    -0.14574    0.075456
0.063113   -0.022961    0.044599   -0.025884     -4.8938   -0.019712    0.029983
0.06019    0.031282    0.045899    -0.10774     -3.7647    0.054344 -0.00087364
0.058891    0.083251    0.057267    -0.14509     -2.7273    0.080003   -0.023935
0.044924     0.11963    0.066686    -0.13112     -1.7496    0.084876   -0.046671
0.0059473     0.13749    0.064088    -0.07493    -0.66186     0.10826   -0.064211
-0.054467     0.14042    0.043625   0.0069217     0.64225      0.1651    -0.06616
-0.11878     0.13067   0.0095202    0.098842      2.0636     0.24793   -0.045372
-0.16523     0.11281   -0.021661     0.19434      3.3628     0.34245  -0.0034721
-0.17789    0.097868   -0.031406     0.29957      4.2661     0.44314    0.056617
-0.15158    0.097218   -0.010943     0.40773      4.5877     0.53701     0.12678
-0.098965     0.11606    0.027385     0.49478      4.2807     0.60002     0.19336
-0.052193     0.14464    0.061489     0.52596      3.4853     0.59742     0.23786
-0.041475     0.16835    0.075456     0.48569      2.5401     0.51979     0.24046
-0.073306      0.1768    0.066362     0.38402      1.8197     0.40351     0.20473
-0.12203     0.17225    0.045899     0.25637      1.5234     0.29373     0.14984
-0.15061     0.16088    0.029658     0.14561      1.5221     0.20376    0.094295
-0.14281     0.14821    0.030308    0.078704      1.4663      0.1284     0.05207
-0.10806       0.131    0.040377    0.051096      1.1606    0.062139    0.026735
-0.074605     0.10274    0.046873    0.028034     0.75658 -0.00087364   0.0078962
-0.062262    0.057592    0.036479   -0.026209     0.52856    -0.04992   -0.017114
-0.078503  -0.0044465    0.003024    -0.12592     0.63542   -0.064536   -0.056741
-0.11748   -0.074605   -0.049595    -0.26072      1.0356   -0.038227    -0.10968
-0.16815    -0.13697    -0.11033    -0.39584      1.5286  -0.0031473    -0.16458
-0.21979    -0.17822    -0.16523    -0.49913      1.8716   0.0046481    -0.21005
-0.26007    -0.19121    -0.20063    -0.54947      1.9522  -0.0096434    -0.23863
-0.27274    -0.17854    -0.20875     -0.5433      1.7947   0.0023744    -0.24903
-0.25455    -0.15256    -0.19511     -0.4975      1.4127    0.078055       -0.25
-0.21687    -0.12982    -0.17692    -0.43839     0.83421     0.22259    -0.24805
-0.18049     -0.1217    -0.16523    -0.38804     0.20116     0.42625    -0.24675
-0.15548    -0.12722    -0.16393    -0.35004    -0.27014     0.67083     -0.2474
-0.13762    -0.13599    -0.16685    -0.30879    -0.41728     0.91021    -0.23961
-0.11586    -0.13469    -0.16555    -0.24838    -0.21005      1.0915    -0.21427
-0.081101    -0.11488    -0.15256    -0.15905     0.21707       1.183    -0.15841
-0.034978   -0.076554    -0.12105   -0.051868     0.64809      1.1886   -0.073306
0.015367   -0.025884   -0.072981    0.056617     0.95568      1.1282    0.019264
0.063438    0.030633   -0.017114     0.15633      1.1509      1.0288     0.09397
0.10599    0.083576    0.034855     0.24436      1.3091     0.92158     0.14464
0.14269     0.12418    0.078055     0.31971      1.4549      0.8485     0.18394
0.17452     0.14919     0.11476     0.38337      1.5845     0.84428     0.22552
0.20181     0.16185     0.14691     0.43372      1.6618     0.91443     0.27684
0.22324     0.16478      0.1716     0.46652      1.6761      1.0219     0.32848
0.23071     0.15503     0.18264     0.47497      1.6267      1.0967     0.36064
0.21317     0.13132     0.17355     0.45613       1.478      1.0687     0.36324
0.17095     0.10112     0.15438     0.42592      1.1535     0.90469     0.34245
0.12385    0.080978     0.14269     0.40221     0.39312     0.62438     0.31224
0.098842    0.077405     0.14367      0.3837    -0.99089     0.27002     0.28041
0.11346    0.087799     0.14789     0.35252     -2.8537    -0.14054     0.24306
0.15926    0.097218     0.14074     0.28528     -4.9685    -0.60891     0.18946
0.21188    0.095594     0.11313     0.17387     -4.9701     -1.1221     0.11703
0.23948    0.074806    0.067661    0.032906     -4.9695     -1.6197    0.031932
0.2187    0.044599    0.019589    -0.11131     -4.9701     -2.0053   -0.047971
0.14432    0.019589    -0.01614    -0.23051     -4.9701     -2.1784    -0.10091
0.033881    0.010819   -0.032055    -0.30294     -3.6644     -2.0819    -0.11391
-0.075579    0.023162   -0.025884    -0.31529    -0.58293     -1.7275   -0.078503
-0.14379    0.053694      0.0014    -0.26916       2.036      -1.191  -0.0015233
-0.13794    0.094295    0.047523    -0.17562      3.6928    -0.59202    0.092346
-0.054142     0.13132     0.10177   -0.053492      4.4799   -0.057715     0.17745
0.082927     0.15568     0.14886    0.065387      4.5724     0.31614     0.23591
0.22097     0.16185     0.17647     0.14659      4.0063     0.49121     0.25767
0.30704     0.14854     0.17485     0.16185      2.6788     0.48861     0.24436
0.31029     0.11995     0.14529     0.11216     0.62568     0.35934     0.20668
0.22877    0.082277     0.09462     0.02706     -1.6925     0.16283     0.15796
0.089748    0.037778    0.036154   -0.050569     -3.5929   -0.045697     0.10371
-0.063237  -0.0080194   -0.016789   -0.087922     -4.7479    -0.23181     0.04395
-0.18894   -0.052843   -0.054142   -0.084999     -4.9701    -0.38285   -0.021661
-0.26332   -0.091495   -0.078827   -0.071032     -4.6053    -0.49588   -0.088572
-0.27664    -0.11878   -0.097341   -0.086623     -3.6264    -0.56117    -0.14704
-0.24318    -0.13502    -0.11488    -0.15841     -2.4269    -0.55759    -0.19121
-0.18634    -0.14281    -0.13502    -0.28833     -1.3043    -0.45983    -0.21622
-0.12463    -0.14736    -0.15581     -0.4569    -0.43839    -0.26137    -0.22174
-0.070707    -0.15093    -0.17107    -0.62158     0.15536    0.009845     -0.2094
-0.028157    -0.15093    -0.17205    -0.71025     0.56786     0.29568    -0.18374
0.011469    -0.14346    -0.14736    -0.62548     0.91931     0.53343    -0.15256
0.055318    -0.12495   -0.096367    -0.30782       1.286     0.67505    -0.12398
0.10729    -0.10319   -0.027508     0.17712      1.6586     0.69681    -0.10936
0.16153   -0.084024    0.042975     0.66498       1.971     0.60229    -0.11488
0.21025   -0.072006    0.097868      1.0018      2.1305      0.4191    -0.13957
0.24793   -0.068434     0.12353      1.1181      2.0555      0.2057    -0.16945
0.26839   -0.068109      0.1206      1.0346      1.7216    0.030633    -0.18601
0.26482   -0.068434     0.09462     0.83063      1.2006   -0.052843     -0.1727
0.23721   -0.063561    0.060515     0.59775     0.63413   -0.045372    -0.12852
0.19174   -0.052518    0.029983     0.39214      0.1664   0.0010752   -0.069733
0.14042   -0.038876   0.0069217     0.23169   -0.066485    0.023812   -0.017114
0.080328    -0.02361  -0.0034721     0.11541   -0.027508  -0.0024977    0.016341
0.0085458  -0.0054209   0.0017248    0.036804     0.14691   -0.055766    0.033231
-0.073631    0.019589    0.016991  -0.0089938     0.26092    -0.09929    0.046548
-0.15223    0.053044    0.031932   -0.022961     0.22162    -0.10579     0.06896
-0.20745    0.098193    0.044924  -0.0034721    0.029983   -0.062262     0.11086
-0.22044     0.15763    0.066037    0.049472    -0.27793    0.027709     0.16965
-0.18049     0.22877    0.099492      0.1284    -0.66705     0.14204     0.23071
-0.097666     0.29762     0.14139     0.21252     -1.1205     0.25443     0.27944
-0.0015233     0.34862     0.18199     0.28301     -1.6165     0.34407     0.30997
0.081952     0.37136      0.2109     0.33205     -2.0845     0.40351     0.32523
0.15244     0.36226     0.22389     0.36291     -2.3281     0.42885     0.33238
0.22519     0.32946     0.22194     0.38078     -2.1118     0.41488     0.33563
0.30152     0.28333     0.20538      0.3759      -1.316     0.37525     0.33011
0.36194     0.22779     0.17387     0.33985    0.038103     0.35024     0.30639
0.3798     0.16413     0.12937     0.26904      1.8122     0.36843      0.2606
0.34082    0.092346    0.074482     0.16933      3.7591      0.4165     0.19336
0.24793    0.019264     0.01764    0.053694      4.9589     0.45873     0.11281
0.12288   -0.044723    -0.03303   -0.057065      4.9589     0.47789    0.034855
