-0.034329   -0.021012   -0.076229     0.10047    0.094945     0.21902    0.039078
-0.012567    -0.02361   -0.076554    0.066362     0.15926     0.21058    0.051745
-0.0044465   -0.028482   -0.076879      0.0014     0.17647     0.19434    0.062789
-0.011917   -0.034978   -0.084999   -0.082725     0.15991     0.17615    0.069934
-0.029132   -0.043748    -0.10156    -0.17205      0.1232     0.15796    0.067336
-0.042774   -0.053817     -0.1178     -0.2487    0.081952     0.14269    0.055643
-0.042774   -0.061613    -0.12463    -0.29937     0.04395     0.13555    0.039727
-0.029782   -0.062262    -0.12073    -0.31756   0.0078962     0.13814    0.026085
-0.012567   -0.054792    -0.10741    -0.30782   -0.034978     0.14561    0.016991
0.0010752   -0.047971   -0.088572    -0.28053   -0.096692     0.15244    0.016991
0.0095202   -0.044723    -0.06551    -0.24935    -0.17854     0.15666    0.022188
0.015367   -0.045047   -0.041475    -0.22272    -0.27631     0.15731    0.030308
0.019589   -0.043423   -0.021661    -0.20518    -0.37473     0.15601    0.038753
0.022837   -0.039201   -0.008669    -0.19413    -0.44294     0.15406    0.042975
0.023812    -0.03238 -0.00022403    -0.18342    -0.44911     0.15049    0.044599
0.022512   -0.023935   0.0062721    -0.16977     -0.3835     0.14594      0.0433
0.017316    -0.01484    0.014717    -0.15451    -0.26299     0.14139    0.042651
0.0095202  -0.0037969    0.022188    -0.13924     -0.1217     0.13782    0.044599
0.0026992   0.0088706    0.029333    -0.12365   0.0069217     0.13587    0.051096
0.0017248    0.021863    0.033556    -0.11066     0.10404     0.13522    0.058566
0.009845    0.030308    0.037454    -0.10124     0.16445     0.13425    0.065062
0.02641    0.033881    0.042651   -0.089546     0.19206     0.13392    0.069285
0.0433    0.035505    0.048822   -0.069408     0.19693     0.13587     0.06831
0.053369    0.035505    0.046223   -0.038876     0.19466     0.14009    0.061165
0.05272     0.03518    0.036479  -0.0034721     0.19693     0.14886    0.050446
0.046873    0.031282    0.022837    0.028684     0.20408     0.15958    0.036804
0.041351    0.025111    0.012443    0.050771     0.21707     0.16998    0.024461
0.036804     0.01894   0.0049729    0.058241     0.23364     0.18037    0.016991
0.032257    0.015042   0.0062721    0.057592     0.25053     0.19076    0.018615
0.030308    0.012768    0.015042    0.055968     0.26514     0.20473    0.029333
0.031932    0.010495    0.028684    0.057592     0.27651     0.21512    0.046873
0.031932   0.0078962    0.040377    0.063113     0.28561      0.2148    0.064088
0.028684   0.0062721    0.049796    0.068635     0.28788     0.20408    0.075456
0.021213   0.0075714    0.055318    0.073182     0.27586     0.18849    0.078379
0.009845    0.010819    0.056292    0.080003     0.25865     0.17387    0.076755
-0.0031473    0.013093    0.056292    0.091696      0.2463     0.15731    0.073832
-0.0099683    0.017316    0.060515     0.10761     0.23786     0.13132     0.06961
-0.0063954    0.021213    0.070259     0.12223     0.22552    0.088448    0.062789
0.0049729    0.025436    0.079679     0.12775     0.20765     0.03518    0.052395
0.01894    0.028034    0.084551      0.1258     0.19401   -0.018413    0.040052
0.026085    0.025436    0.084226     0.11768     0.18784   -0.062912    0.024786
0.026085    0.021213    0.079354     0.10794     0.17874   -0.096367   0.0085458
0.022188    0.016016    0.070909    0.098517     0.15081    -0.11651  -0.0011985
0.017965    0.013418    0.062139    0.091696     0.10177    -0.12527  -0.0011985
0.01764    0.010495    0.057267    0.090722    0.048822    -0.12268   0.0085458
0.024786   0.0085458    0.055318    0.096569    0.016666    -0.10903    0.027709
0.037454    0.013093    0.054344     0.10631    0.023162   -0.086623    0.045249
0.050771    0.019589    0.046548     0.11054     0.06896   -0.061288     0.05272
0.055318    0.017965    0.028684     0.10599     0.14204   -0.010943   -0.007045
0.045899   0.0020496   -0.011592     0.10534     0.22324     0.10924    -0.22142
0.029658   -0.022311   -0.067459     0.11443     0.29308     0.27684    -0.51829
0.016341   -0.039526    -0.10319     0.12613     0.33303     0.39734    -0.68427
0.014717   -0.041475   -0.097017     0.12937     0.33693     0.41358    -0.61476
0.021863   -0.028157   -0.060638     0.12223     0.30802      0.3418    -0.37213
0.023812  -0.0076946   -0.017114     0.11086     0.26027     0.24501   -0.092145
0.015367    0.010495    0.015042    0.099492     0.20473     0.17874     0.12125
-0.0028225    0.023162    0.030957    0.087474     0.15146     0.18004     0.23006
-0.024909    0.033881    0.034206    0.071883     0.10924      0.2489     0.26092
-0.037577    0.042326    0.030308     0.05207    0.086175     0.36291     0.25475
-0.035303    0.046548    0.026085    0.036804    0.091696     0.49153     0.24598
-0.017764    0.049147    0.022512    0.032582      0.1232     0.59872     0.24728
0.0036737    0.049147    0.022188    0.042975     0.16218     0.66141     0.25702
0.020564    0.044924    0.022837    0.058566       0.169     0.67278     0.26677
0.023812    0.036154    0.024461    0.070909     0.11086     0.63867     0.26644
0.012119    0.023812    0.023162    0.071558   -0.019712     0.57274      0.2515
-0.0060706    0.012443     0.01829    0.056942    -0.19966     0.48959     0.22389
-0.024909   0.0023744   0.0062721     0.03453    -0.38674     0.41261     0.16803
-0.039201  -0.0089938   -0.020037    0.023162    -0.52706     0.40026   0.0049729
-0.044723   -0.022636   -0.061613    0.028034     -0.5917     0.49251    -0.27274
-0.037902   -0.035303   -0.095717    0.037778    -0.59105     0.63542    -0.49101
-0.021012   -0.041475   -0.098641    0.038103     -0.5485     0.73936    -0.47867
-0.0031473   -0.038876   -0.072656    0.025436    -0.47672     0.75983    -0.24318
0.0091954   -0.028157   -0.034654   0.0043233     -0.3783     0.70591    0.082927
0.016016   -0.016464  -0.0076946   -0.017439    -0.26202     0.61399     0.36129
0.01764  -0.0083442  -0.0034721    -0.03303    -0.14996     0.51557     0.51719
0.015042  -0.0076946   -0.021337   -0.037252    -0.05804       0.423     0.54838
0.010819   -0.011917   -0.051219   -0.032705    0.018615      0.3314     0.49933
0.0095202   -0.014516   -0.082076   -0.025559    0.097868     0.23331     0.42852
0.013418   -0.010618    -0.10611   -0.020037     0.18004     0.12905     0.38175
0.023487  0.00010078    -0.11456   -0.021012     0.24403    0.021213     0.37688
0.034206    0.011144    -0.10709   -0.029457     0.26612   -0.087597     0.39961
0.03453    0.019264   -0.088896     -0.0405     0.23981    -0.19413     0.42625
0.021538    0.020888   -0.070058   -0.053817     0.16868    -0.29742     0.43404
-0.0031473    0.014717   -0.055441   -0.065835    0.071558    -0.40006     0.41553
-0.033679   0.0049729   -0.045047   -0.070707   -0.034978    -0.50465     0.36941
-0.062912  -0.0089938   -0.037902    -0.06551    -0.13924    -0.56019     0.26742
-0.0824   -0.028807    -0.04862   -0.055441    -0.23831    -0.48711    0.070909
-0.083375   -0.050244   -0.070382   -0.045047    -0.33413    -0.29775    -0.15548
-0.067784   -0.065835   -0.078178   -0.041475     -0.4163    -0.11715    -0.26364
-0.046022   -0.069083   -0.058689   -0.047646    -0.47022   -0.034654    -0.20063
-0.029132   -0.059014   -0.016464   -0.062587    -0.48451    -0.04862   -0.026533
-0.020687   -0.040175    0.036154   -0.078178    -0.45755    -0.10416     0.16413
-0.020362   -0.023935    0.088448   -0.092469    -0.40396    -0.15158     0.29892
-0.021337   -0.014516      0.1271    -0.10059    -0.33802    -0.16263     0.35479
-0.017439   -0.012567     0.14626   -0.096367    -0.26819    -0.13599     0.35479
-0.0083442   -0.012242     0.14594   -0.082725    -0.20258   -0.090521     0.33303
0.0043233   -0.011267     0.13425    -0.06616    -0.14476   -0.045047     0.31289
0.014068   -0.007045     0.12125   -0.050894   -0.098641   -0.010618     0.29957
0.021538  0.00075039     0.11216   -0.031406   -0.060313    0.011144      0.2908
0.030308   0.0088706     0.11378   0.0039985   -0.021012    0.027385     0.28236
0.040377     0.01829     0.12158    0.057917    0.021863    0.044275     0.27424
0.048172    0.028359     0.12743     0.11898    0.064413    0.059216     0.26807
0.050771     0.03583      0.1206     0.17127    0.096244    0.065712     0.25865
0.043625    0.041351    0.091696      0.2057     0.11054    0.080978     0.22974
0.026735    0.040052    0.037778     0.22357     0.11054     0.19531     0.14042
0.0023744    0.029983   -0.029132     0.23006     0.10794     0.44411  -0.0080194
-0.016789    0.015692   -0.080127     0.22487     0.11606     0.69616    -0.12495
-0.019388   0.0065969   -0.086623     0.20538     0.14691     0.79848    -0.13242
-0.0073698   0.0059473   -0.051868     0.16998     0.19758     0.71857    -0.03238
0.012443    0.010495   0.0020496     0.12385      0.2502     0.52921     0.11118
0.030633    0.015692    0.052395    0.081627      0.2921     0.32491     0.23169
0.039402    0.017965    0.087149     0.05207     0.31257     0.17485     0.29308
0.039402    0.014068     0.11313    0.041676     0.30282     0.10014      0.2921
0.034206   0.0039985     0.14009    0.047523     0.26287    0.086175      0.2541
0.024137   -0.010618     0.16803    0.066362     0.20051     0.10534     0.20733
0.01017   -0.024909     0.19141    0.090722      0.1284     0.13067     0.17517
-0.0050961    -0.03238      0.2057     0.11151     0.06084     0.14984     0.16056
-0.01484    -0.03238     0.20895      0.1219    0.015042     0.16153     0.15893
-0.014516   -0.025234      0.2044     0.11801  -0.0034721     0.16445     0.16445
-0.0080194    -0.01549     0.19531     0.10047 -0.00022403     0.15568     0.16965
-0.0021729   -0.011267     0.18557    0.082927    0.016991     0.13392     0.17062
-0.0011985    -0.01614     0.17745    0.078055    0.042326     0.10436     0.16348
-0.0054209   -0.024909     0.17062      0.0865    0.073832    0.076431     0.15179
-0.010943   -0.031406     0.15861    0.097543     0.11346    0.054668     0.13782
-0.010293   -0.031081     0.13555     0.10014     0.16738    0.039402      0.1219
-0.0054209   -0.021337     0.10339    0.092996     0.23526     0.03583     0.10534
0.0036737  -0.0050961     0.06961    0.077405      0.3051    0.042651    0.089748
0.015042    0.015367    0.042326    0.062464     0.36161    0.051745    0.077405
0.027709     0.03453    0.019914    0.058241      0.3824    0.049472     0.06961
0.036479    0.048822  -0.0011985    0.066362     0.35382    0.026735    0.062139
0.038103    0.054993   -0.021012    0.075781     0.28333   -0.010618    0.053044
0.037454    0.054993   -0.037252    0.074157     0.18881   -0.052193    0.044599
0.036154    0.052395   -0.052843    0.054668    0.089098   -0.090196    0.035505
0.031607    0.049147   -0.070707    0.019589   0.0010752     -0.1256    0.023812
0.019914    0.046873   -0.089546   -0.027508   -0.057715    -0.15808   0.0085458
0.0056225    0.044924    -0.10351   -0.084349   -0.081751    -0.18342   -0.010618
-0.0076946    0.041676    -0.10838    -0.14379   -0.085973    -0.19966   -0.031081
-0.015165    0.036154    -0.10611    -0.19251   -0.098965    -0.20518   -0.045047
-0.01614    0.029009    -0.10026    -0.22142    -0.14087    -0.20258   -0.050244
-0.012892    0.023812   -0.095068    -0.22207    -0.21557    -0.19641   -0.052843
-0.010618    0.021863   -0.094743    -0.19771    -0.31431    -0.19154   -0.056741
-0.013216    0.023812    -0.10189    -0.15223    -0.42117    -0.19024   -0.060313
-0.019063    0.023812    -0.11098   -0.093769    -0.52674    -0.19673    -0.06551
-0.02426    0.019589    -0.11683    -0.03303     -0.6297     -0.2094   -0.073306
-0.024585    0.014717    -0.11715    0.020888    -0.71935    -0.22661   -0.084999
-0.016464    0.009845    -0.11098    0.058241    -0.77619     -0.2435    -0.09994
-0.0037969   0.0052977    -0.09994     0.07773    -0.77521    -0.25812    -0.11358
0.0036737  0.00010078     -0.0837      0.0852    -0.70863    -0.26819    -0.12268
0.0059473  -0.0057458   -0.069408    0.081303     -0.5826    -0.27599    -0.13145
0.0023744  -0.0099683   -0.054467    0.068635    -0.42182    -0.28216    -0.13924
-0.0041217   -0.011592   -0.041799    0.048822    -0.25975    -0.28638    -0.14509
-0.013541   -0.010943   -0.034978    0.014717    -0.11943    -0.29093    -0.15223
-0.022311   -0.012567   -0.039526   -0.039851   -0.011917    -0.29677     -0.1597
-0.025559   -0.017114   -0.053168    -0.10838    0.058891    -0.30359    -0.16847
-0.026533   -0.020687   -0.069733     -0.1753     0.10144    -0.31301    -0.17984
-0.026533   -0.021986   -0.084674    -0.22629     0.11898    -0.32795    -0.19446
-0.028807   -0.019388   -0.097991     -0.2487     0.11768    -0.34744    -0.20875
-0.034329   -0.015165    -0.11033    -0.24221     0.10599    -0.36661    -0.22239
-0.036602  -0.0093186     -0.1178    -0.20908    0.095594     -0.3783    -0.23116
-0.029132  0.00042559    -0.11293    -0.15223    0.092996    -0.37992    -0.23344
-0.0089938    0.014392   -0.090845   -0.068758    0.095919    -0.37343    -0.23149
0.018615    0.033556   -0.056741    0.033556    0.089098    -0.36336    -0.22889
0.043625    0.050121    -0.02361     0.13782    0.055968    -0.35102    -0.22856
0.056942    0.054019 -0.00087364     0.22454 -0.00087364      -0.339    -0.23084
0.054668    0.042001   0.0069217     0.28041   -0.065835    -0.33023    -0.23831
0.036479    0.023162    0.003024     0.30639    -0.12333    -0.33672       -0.25
0.0088706   0.0049729  -0.0067202     0.31257    -0.16068    -0.36303    -0.26267
-0.018413   -0.007045   -0.019712     0.30932     -0.1753    -0.40818    -0.27501
-0.040825   -0.012567   -0.033679     0.30055    -0.16977    -0.46437    -0.28508
-0.057065   -0.013866   -0.047971     0.28041    -0.14736    -0.52771    -0.29223
-0.066485   -0.012892   -0.062912     0.23883     -0.1178    -0.59754    -0.29905
-0.065186   -0.010943   -0.074605     0.16705   -0.085648    -0.66705    -0.30489
-0.057065  -0.0034721   -0.086948    0.067986   -0.052843    -0.73007    -0.30684
-0.044073   0.0033489   -0.098641   -0.037577   -0.021986    -0.77846    -0.30489
-0.028482   0.0065969    -0.10644     -0.1321   0.0091954     -0.7986    -0.30035
-0.014191   0.0056225    -0.10611    -0.20972    0.049147    -0.78171    -0.29353
-0.0021729   0.0020496   -0.097666    -0.27534     0.10339    -0.72779    -0.28735
0.003024  -0.0037969   -0.085648    -0.33478     0.16998    -0.65276    -0.28605
0.0014   -0.011267   -0.071682    -0.38837     0.23786    -0.57091    -0.28833
-0.0041217    -0.01484   -0.058689    -0.42994     0.29925    -0.49231     -0.2893
-0.00087364   -0.011917   -0.041475    -0.44651     0.34829    -0.42475      -0.288
0.014717  -0.0034721   -0.017114    -0.43027      0.3876    -0.37278    -0.28346
0.03518   0.0046481    0.013743    -0.38869     0.42917    -0.33283    -0.27599
0.05272   0.0075714    0.045574    -0.33023     0.48504    -0.29905    -0.26267
0.057917   0.0078962    0.068635    -0.26722     0.55715    -0.26462     -0.2448
0.049472   0.0056225    0.076431    -0.20875     0.64387    -0.22272    -0.22012
0.033556   0.0043233    0.071234    -0.16133     0.74423    -0.17465    -0.19543
0.017316   0.0039985    0.057592    -0.12625      0.8485    -0.12365    -0.17432
0.0049729   0.0043233    0.039402    -0.10254     0.93197   -0.080451    -0.15451
-0.0034721   0.0078962    0.020564   -0.083375     0.96868   -0.048296    -0.14216
-0.014516    0.011794   0.0049729   -0.062912     0.94432    -0.03173    -0.13892
-0.03303    0.016341  -0.0037969   -0.036278     0.85045   -0.026209    -0.14346
-0.062587    0.020239  -0.0041217  -0.0050961     0.66985   -0.028157    -0.15223
-0.10091    0.023487 -0.00087364    0.028359     0.38402   -0.034978    -0.16133
-0.13827    0.023487  0.00010078    0.058241   0.0043233   -0.043099     -0.1688
-0.16328    0.019914  -0.0067202    0.083251    -0.40851   -0.046347    -0.18017
-0.16945    0.010819   -0.025559     0.10501    -0.75995    0.028684    -0.23311
-0.15743  -0.0060706   -0.064211     0.12905    -0.99446     0.25118    -0.35037
-0.13567   -0.024585    -0.10546     0.14724     -1.1124     0.54318    -0.47379
-0.10871   -0.036602    -0.11845     0.15276      -1.152     0.74683    -0.50855
-0.0837   -0.036927    -0.09117     0.14724     -1.1536      0.7962    -0.43644
-0.063237   -0.029782   -0.038227     0.13847      -1.126     0.73027    -0.30262
-0.049595   -0.023285    0.013418     0.12613     -1.0477     0.62471    -0.17075
-0.045372   -0.023285    0.040702     0.10534    -0.90579     0.54091   -0.082725
-0.048296   -0.030431    0.034206    0.076431     -0.7174     0.49803   -0.044073
-0.050894   -0.039526   0.0059473    0.050446    -0.51829     0.48601   -0.035628
-0.04927   -0.048296   -0.029132    0.038103    -0.33607     0.48731   -0.034654
-0.042449   -0.052193   -0.053817    0.039402    -0.18601     0.48504   -0.027508
-0.035628   -0.047971   -0.060963    0.045574   -0.071357     0.46523   -0.010618
-0.036927   -0.036602    -0.04992    0.051745   0.0052977     0.42073    0.011144
-0.045372   -0.021986   -0.029782    0.056942    0.039402     0.35544    0.031282
-0.055766  -0.0057458   -0.010943    0.059216     0.03583     0.27132    0.044599
-0.059989    0.011794  0.00075039    0.059541   0.0078962      0.1651    0.055318
-0.053168    0.029983   0.0026992    0.059865   -0.025559    0.044599    0.058566
-0.039201    0.040702  -0.0037969    0.062464   -0.046022   -0.058365   0.0075714
-0.022636     0.03518   -0.030431    0.074157   -0.044073   -0.084674    -0.19478
-0.010293    0.017316   -0.072981    0.095594   -0.020037   -0.028157     -0.5053
-0.0037969  0.00042559    -0.10481     0.11054    0.011144    0.029333    -0.70506
-0.00022403  -0.0093186    -0.10189     0.10599    0.024461    0.010819    -0.66348
0.00075039   -0.012892   -0.070707    0.079354  -0.0041217   -0.089221    -0.42994
0.0014   -0.010943    -0.03303    0.039727     -0.0837    -0.22986    -0.14184
0.00010078  -0.0031473  -0.0034721   0.0033489    -0.19803    -0.35589    0.080653
-0.0067202   0.0065969    0.009845   -0.018413    -0.29288    -0.43449     0.18881
-0.018413    0.013093   0.0072465   -0.019388    -0.30782    -0.46145     0.20116
-0.03173    0.014068  -0.0047713  -0.0015233    -0.20615    -0.44683     0.16965
-0.037577    0.009845   -0.012892    0.021863    0.011144    -0.40948     0.13912
-0.033679   0.0056225   -0.011917    0.036804     0.30217    -0.36661     0.13295
-0.013541   0.0056225  -0.0050961    0.035505      0.5958    -0.32666     0.14724
0.016341   0.0078962   0.0010752    0.019264     0.83226    -0.28476      0.1716
0.045574    0.010495   0.0017248  -0.0024977     0.97907    -0.23766     0.19466
0.065062    0.013743 -0.00087364   -0.018738      1.0349    -0.18342      0.2135
0.072858    0.016666  -0.0054209   -0.020362        1.02    -0.12203     0.22682
0.072208    0.015367   -0.013541   -0.007045     0.95698   -0.047321     0.22227
0.066686   0.0072465   -0.035303    0.018615     0.86961    0.082277     0.10989
0.057592  -0.0093186   -0.079802    0.041676     0.77444     0.28983    -0.15061
0.049472   -0.024909    -0.13112    0.038103     0.67018     0.50972    -0.40753
0.040377   -0.033354    -0.16068  -0.0031473        0.55     0.64647    -0.45788
0.031607   -0.029782    -0.15483   -0.068109     0.41975     0.66433    -0.27501
0.024786   -0.019388    -0.12008     -0.1269     0.29633     0.59515    0.027385
0.023812  -0.0063954   -0.070707     -0.1597     0.19434     0.49803     0.30964
0.024786   0.0069217   -0.020362      -0.161     0.12223     0.41813     0.48634
0.02706    0.019914     0.02641    -0.13599     0.06896     0.37525     0.54805
0.032257    0.027385    0.066037   -0.092469   0.0075714     0.36518     0.53214
0.036804    0.025436    0.093645   -0.035303   -0.088896     0.36876     0.48894
0.037454    0.013418     0.10664    0.029333    -0.22597     0.36811     0.45386
0.036479  -0.0050961     0.10599    0.094945    -0.38739     0.35739     0.44021
0.033231   -0.021986    0.095269     0.16056    -0.55467      0.3392     0.44346
0.033231   -0.034004    0.083901     0.22617    -0.71285     0.32263     0.45516
0.03583     -0.0405    0.082277     0.28626    -0.85025     0.31289      0.4701
0.0433   -0.040825    0.095269     0.33075     -0.9688     0.31419     0.48894
0.055968   -0.033679     0.12223     0.35901     -1.0685     0.32978     0.51102
0.067336   -0.023285     0.14919     0.37428     -1.1312     0.37753     0.48244
0.071234   -0.019388     0.14951     0.38532     -1.1293     0.49543     0.30412
0.066686   -0.026533     0.11963     0.39149     -1.0494     0.66303    0.021863
0.057917   -0.038551    0.088773     0.38078    -0.90351     0.78743    -0.15483
0.049472   -0.046347    0.082277     0.35284     -0.7174      0.7988    -0.10871
0.038753    -0.04927    0.096244     0.32653    -0.51407     0.70363     0.10339
0.029658    -0.04115     0.11508     0.31257    -0.31236     0.55682     0.35284
0.025436   -0.027183      0.1258     0.31127    -0.12625     0.41845     0.53473
0.02641    -0.01484     0.12515     0.30997    0.038103     0.32069     0.61171
0.031932   -0.007045     0.11573     0.29113     0.18134     0.27196     0.60359
0.037454  -0.0067202     0.10371     0.24728     0.29925     0.25637     0.55682
0.040377   -0.007045    0.093321     0.17452     0.38175     0.25507     0.51005
0.041027  -0.0031473    0.085525    0.084226     0.42982      0.2541     0.48244
0.042001   0.0043233    0.082277   -0.011267     0.44931     0.24566     0.47659
0.041027    0.010495    0.079679    -0.10189     0.44379     0.22617     0.48406
0.039402    0.012768    0.074806    -0.18082       0.423     0.19888     0.49446
0.039078     0.01017    0.067661    -0.24123     0.39117     0.16835     0.49673
0.036804   0.0036737    0.063763    -0.28086     0.35252     0.13912     0.48861
0.029658  -0.0060706    0.064088    -0.30262     0.31159     0.11054     0.47205
0.015692   -0.013541    0.067011    -0.31529     0.26742    0.082602     0.45288
0.0014   -0.013216     0.06831    -0.32925     0.21545    0.056617     0.43599
-0.0034721  -0.0080194    0.065712    -0.34744     0.14854    0.031607      0.4217
-0.0015233  -0.0044465    0.061165    -0.36888    0.065387   0.0088706     0.40773
0.0033489  -0.0047713    0.055968    -0.38707   -0.019712  -0.0099683     0.39247
0.009845  -0.0054209    0.046548    -0.39389   -0.084999   -0.027508     0.37428
0.015692  -0.0063954    0.031282     -0.3848     -0.1178   -0.038227     0.35414
0.021213  -0.0067202    0.009845    -0.36791    -0.11521   -0.038551     0.32978
0.026085  -0.0060706   -0.011592    -0.34907   -0.085648   -0.025884      0.3051
0.027385  -0.0024977   -0.024909    -0.32763   -0.046022  -0.0015233     0.28236
0.023812    0.003024   -0.024585    -0.29775   -0.008669    0.031282     0.26125
0.016016    0.010819   -0.013541    -0.25455    0.016666    0.064088     0.24143
0.0078962    0.019914  -0.0037969    -0.19966    0.022188    0.088773     0.22227
0.00042559    0.027709  0.00010078    -0.13567    0.010495    0.097218     0.20148
-0.0063954    0.030957  -0.0011985   -0.072006   -0.012892    0.088448     0.18329
-0.012242    0.032906  -0.0063954   -0.015165   -0.034978    0.061165      0.1638
-0.01484    0.037129   -0.014516    0.030308   -0.047321    0.011469     0.14302
-0.014516    0.042651   -0.023935     0.06019   -0.048296   -0.061613     0.12158
-0.011267    0.048497   -0.031081    0.072533     -0.0405    -0.15418     0.10404
-0.0037969    0.054344    -0.03238    0.076106   -0.025559     -0.2552    0.088773
0.0072465    0.055968   -0.025234    0.074482  -0.0015233    -0.35621    0.074157
0.016991    0.053369   -0.015165    0.068635    0.029983    -0.44911    0.058891
0.024786    0.048497  -0.0089938    0.056942     0.05142    -0.52869    0.044275
0.028684    0.042651   -0.015815    0.037129    0.042001    -0.59949    0.030308
0.026085    0.036804   -0.034329   0.0069217 -0.00087364     -0.6664    0.014068
0.021863    0.032257   -0.056416   -0.032055   -0.053492    -0.73072  -0.0024977
0.021538    0.028034   -0.074605   -0.076554   -0.087922    -0.78853   -0.020687
0.028359    0.025436   -0.078503    -0.11975   -0.092145    -0.83173   -0.040175
0.040702    0.021538   -0.070707    -0.15451   -0.068109    -0.85544   -0.060963
0.051096     0.01894   -0.058365    -0.17205   -0.025234    -0.86129   -0.076879
0.050771    0.016341   -0.046671    -0.17302    0.022512    -0.85414   -0.087597
0.041027    0.015042   -0.033354    -0.16458    0.065387    -0.84277   -0.094418
0.02641    0.014717   -0.016464    -0.15613    0.092671    -0.83433    -0.10189
0.013418     0.01764   0.0049729    -0.15093     0.10761    -0.82816    -0.11228
0.0078962    0.021863    0.025436    -0.14704     0.11995    -0.81679    -0.12787
0.0056225    0.024461    0.039727    -0.14509     0.13717    -0.78561    -0.14834
0.00042559    0.019914    0.037778    -0.14476     0.16056    -0.72357    -0.17075
-0.0083442   0.0091954    0.010819    -0.14509     0.19174    -0.64204    -0.19283
-0.017114  -0.0057458   -0.045697    -0.14509     0.23136    -0.55564    -0.21492
-0.02426   -0.021337    -0.12365    -0.13957     0.27554    -0.48159    -0.23993
-0.029782   -0.033354    -0.19738    -0.12722     0.31906    -0.42994    -0.26397
-0.036927   -0.039851    -0.24156    -0.10124     0.36291    -0.40461    -0.28281
-0.043099   -0.037902    -0.23993   -0.058365     0.40936    -0.40234    -0.29872
-0.043099   -0.027833    -0.19706 -0.00087364     0.45288    -0.40526    -0.31171
-0.033679   -0.012892     -0.1334    0.061489     0.48341    -0.37148    -0.31951
-0.018738   0.0017248   -0.068434     0.12158     0.48861    -0.26592    -0.32048
-0.007045    0.011794   -0.022311     0.17322     0.46165   -0.090196    -0.31918
0.00075039    0.017316  -0.0050961      0.2109     0.39961     0.12678    -0.32048
0.0078962    0.014392   -0.012892     0.22941     0.30412     0.34472    -0.32438
0.015367   0.0072465   -0.038227     0.22747     0.17485     0.52174    -0.32958
0.024137 -0.00087364   -0.071032     0.20863     0.01017     0.62665    -0.32633
0.028034  -0.0099683    -0.09994      0.1729    -0.18796     0.64484    -0.31139
0.021863   -0.021012    -0.12105     0.11118    -0.41305     0.58865     -0.2906
0.0033489    -0.03238    -0.13437    0.013093    -0.64074     0.47497    -0.27144
-0.019063   -0.040825    -0.14379    -0.11521    -0.85025     0.32393    -0.25682
-0.041475   -0.045697    -0.15029    -0.25033     -1.0253     0.15438    -0.24838
-0.058689   -0.046347    -0.15516    -0.36109     -1.1614   -0.021661    -0.24513
-0.069083   -0.040175    -0.15158    -0.42897     -1.2543    -0.19706    -0.24415
-0.081101   -0.030756    -0.14022    -0.45268     -1.2936    -0.36823     -0.2435
-0.096692   -0.022311    -0.12073    -0.44294     -1.2705    -0.52901    -0.24123
-0.10774   -0.013866   -0.095393    -0.39194     -1.1682    -0.66023    -0.23993
-0.10351  -0.0037969   -0.063561    -0.26169    -0.97367    -0.74858    -0.24383
-0.086948    0.010495   -0.025884    -0.02361    -0.70376    -0.78788     -0.2552
-0.069083    0.025761    0.013093     0.27879    -0.40331    -0.78528    -0.27079
-0.060313    0.037454    0.049147     0.54708    -0.11975     -0.7541    -0.28833
-0.062587    0.041027    0.077405     0.70396     0.10371    -0.71318    -0.30424
-0.07428    0.037454     0.09397     0.72832     0.24793    -0.68329    -0.31821
-0.088896    0.028359     0.09397     0.64712     0.31159     -0.6807    -0.32828
-0.10124    0.017316     0.07708     0.51265     0.30477    -0.71253     -0.3325
-0.10611    0.008221    0.049147     0.37948     0.25118    -0.77034     -0.3286
-0.09929   0.0033489    0.019589     0.27684      0.1755    -0.82816    -0.31496
-0.0824    0.003024  -0.0018481     0.21188    0.088773    -0.85804    -0.29255
-0.064211   0.0043233  -0.0099683     0.17485 -0.00054884    -0.84212    -0.26754
-0.04992   0.0065969  -0.0093186     0.15049   -0.084674    -0.78691    -0.24545
-0.040825    0.010495  -0.0034721     0.12353    -0.16133      -0.707    -0.23181
-0.034654    0.014068   0.0065969    0.090397    -0.24415    -0.61541    -0.22986
-0.031081    0.016341     0.01894    0.054344    -0.34225    -0.51245    -0.23116
-0.032705     0.01829    0.031282    0.023812    -0.43774    -0.39909    -0.23376
-0.038227    0.015042    0.046223   0.0062721    -0.49133    -0.27826    -0.23311
-0.039526    0.008221    0.064413    0.003024    -0.46762    -0.15386    -0.23149
-0.034329 -0.00022403    0.084876    0.012443    -0.36433   -0.032705    -0.22856
-0.021337  -0.0093186     0.10306    0.030957    -0.20063    0.075131    -0.22044
-0.0041217   -0.018738     0.11508    0.051745  -0.0083442     0.16608    -0.20745
0.013418    -0.02361     0.11768    0.071234     0.18037     0.23689    -0.19446
0.02641    -0.02426     0.11118    0.084876       0.347     0.28788    -0.18569
0.030957   -0.017764    0.095919    0.090072     0.48439     0.31581    -0.18049
0.022512  -0.0047713    0.077405    0.087149     0.59352     0.32296    -0.17659
0.0043233    0.010495     0.06084    0.080328     0.66855     0.31062      -0.174
-0.011917    0.022188    0.047847    0.074157     0.70071     0.28236    -0.17562
-0.017764    0.026085    0.035505    0.073182     0.68512     0.24403    -0.18504
-0.013866    0.023162    0.023162    0.078704     0.60847       0.207    -0.19738
-0.0015233    0.016991   0.0091954    0.090397     0.45191      0.1755    -0.20388
0.013418    0.011144  -0.0050961     0.10209     0.20148     0.15666    -0.20453
0.01829   0.0049729   -0.021986     0.11021    -0.11943     0.14821    -0.20225
0.011469   0.0017248   -0.039526     0.11086    -0.43384     0.14496    -0.19836
-0.0021729  0.00042559   -0.056416     0.10534    -0.64204     0.14724    -0.19478
-0.014191 -0.00054884   -0.069733    0.099492    -0.68589     0.15568    -0.19316
-0.022311  -0.0024977   -0.075255    0.097868    -0.56831     0.16705    -0.19283
-0.026533  -0.0054209   -0.078178    0.093321    -0.34517     0.17745    -0.19413
-0.023935  -0.0093186   -0.082076    0.076106    -0.09929     0.18557    -0.18829
-0.017439  -0.0096434   -0.084349    0.041676     0.10242     0.18881    -0.17367
-0.010293  -0.0031473   -0.082725  -0.0093186     0.23039     0.18784    -0.15483
-0.0057458   0.0072465   -0.076879   -0.068109     0.29633     0.18622    -0.13989
-0.0024977    0.016341   -0.067134    -0.12333     0.32686     0.18751    -0.13112
0.0014    0.022188   -0.054467    -0.16555     0.34602     0.19206     -0.1269
0.0043233    0.024137    -0.04115    -0.18926     0.36908     0.19693     -0.1243
0.0052977    0.025111   -0.030431    -0.20355     0.39929     0.20148    -0.11813
0.0056225    0.025761   -0.021337    -0.20908     0.43989     0.20928    -0.10838
0.0078962    0.025761   -0.017114    -0.20453     0.48569     0.22162    -0.09929
0.008221    0.023487   -0.018738    -0.19154     0.52726     0.23104   -0.093444
0.0095202    0.019264   -0.026209    -0.17659     0.55585     0.23331   -0.084674
0.009845    0.011469   -0.034978     -0.1636     0.57176     0.22682   -0.070707
0.0088706  0.00042559   -0.045697    -0.15386     0.58378     0.21415   -0.054142
0.008221  -0.0093186   -0.055116    -0.14314     0.60099     0.19628   -0.038551
0.0065969   -0.015165   -0.060963    -0.12495     0.61918     0.17485   -0.029132
0.0023744   -0.013541   -0.059989   -0.097991     0.61691     0.15471   -0.027833
-0.0031473  -0.0063954   -0.051219   -0.070707     0.57111     0.13977   -0.031081
-0.010943   0.0023744   -0.039851   -0.053168      0.4636     0.13295   -0.033679
-0.018413   0.0078962   -0.032055   -0.059014     0.30964     0.13132    -0.03303
-0.022636   0.0088706    -0.03173   -0.090521     0.14854     0.13262   -0.028157
-0.022636    0.011144   -0.038551    -0.13534    0.019589     0.13457   -0.016789
-0.019712    0.014717   -0.048296    -0.17465   -0.060313     0.14204  -0.0018481
-0.015815    0.020239   -0.057065    -0.18894   -0.097341     0.15309    0.014717
-0.014191    0.022837   -0.056416    -0.16847    -0.12398     0.16348    0.031282
-0.013216    0.020239   -0.046022     -0.1204    -0.17822     0.16673    0.045574
-0.0096434    0.011794   -0.026858   -0.060313    -0.27891      0.1638    0.056617
0.00042559 -0.00054884  -0.0054209  -0.0021729    -0.41663     0.15373    0.066037
0.013418   -0.011267    0.009845    0.042001    -0.55759     0.13814     0.06961
0.022188   -0.017114     0.01764    0.065712    -0.64919     0.11736    0.070259
0.021538   -0.018738    0.013743    0.070909    -0.63587    0.090722    0.073507
0.015042   -0.021337  -0.0057458    0.063438    -0.49523    0.060515     0.07773
0.0052977   -0.022961   -0.036927    0.052395    -0.25942    0.029333    0.082927
-0.0037969   -0.023285   -0.072006    0.036479  -0.0031473  -0.0018481    0.080653
-0.010618   -0.021337    -0.10286    0.015367     0.19823   -0.030756    0.072858
-0.016464   -0.017114    -0.12365  -0.0096434     0.29892   -0.052518    0.062789
-0.025234   -0.011267    -0.13534   -0.028157     0.29438    -0.06551    0.052395
-0.035953  -0.0034721    -0.13924   -0.038551      0.2135   -0.069083    0.046548
-0.041799   0.0010752    -0.14119   -0.039851    0.087799   -0.072656    0.048822
-0.039201  -0.0028225    -0.14736   -0.031081    -0.04992   -0.084024    0.055968
-0.030106   -0.013866    -0.15548   -0.011267    -0.17594    -0.10319    0.062464
-0.019063   -0.022961    -0.15808    0.015692    -0.27436    -0.11975    0.065712
-0.011917   -0.025884    -0.14606    0.043625    -0.33283    -0.12365    0.067661
-0.011267   -0.022961    -0.12527    0.066686    -0.34842    -0.10968     0.06896
-0.01614   -0.019063    -0.09994    0.081303    -0.32925   -0.078178    0.070259
-0.023285   -0.020037   -0.075255    0.083901     -0.2893   -0.034654    0.073507
-0.029132   -0.027183   -0.052193     0.07708     -0.2461   0.0072465    0.076106
-0.033354   -0.038876   -0.026858    0.066362    -0.21167    0.040702    0.079029
-0.033679   -0.050244   0.0020496    0.050771    -0.18796    0.067011    0.080328
-0.032055   -0.054792    0.031932    0.020564    -0.17172    0.088124    0.082277
-0.028482    -0.04992    0.056292   -0.029457      -0.161     0.10144     0.08585
-0.021012   -0.038227    0.069285   -0.093444    -0.15613     0.10047    0.091696
-0.011592   -0.024909    0.074806    -0.16133    -0.16328    0.080653    0.090722
-0.0044465   -0.014191    0.076755    -0.22759    -0.18829    0.041676    0.082927
-0.0044465  -0.0089938    0.076106    -0.28638    -0.22174   -0.012242    0.070584
-0.014516  -0.0099683    0.073507    -0.32763    -0.23538   -0.073306    0.059541
-0.031406    -0.01549    0.073832    -0.34322    -0.19836    -0.13599    0.052395
-0.051219   -0.022311    0.077405    -0.33413   -0.097991    -0.19738    0.049147
-0.06681   -0.025884    0.084226    -0.29905    0.056942    -0.24968     0.05142
-0.070382   -0.023935    0.093321    -0.24253     0.23559    -0.28118    0.060515
-0.059989   -0.017439    0.099492     -0.1727     0.40124    -0.28281    0.075456
-0.04115  -0.0093186    0.099167    -0.10319     0.51525     -0.2552    0.086175
-0.021661  0.00042559    0.090397   -0.050569     0.54155    -0.20583    0.087149
-0.0067202   0.0069217    0.078379   -0.017114     0.47237    -0.14606    0.084226
0.0026992   0.0088706    0.070259   0.0036737     0.34732   -0.084349    0.083576
0.0059473   0.0078962    0.066686    0.020564     0.22357   -0.026209    0.087799
0.0010752   0.0062721    0.065712    0.044275     0.15179    0.024786    0.095269
-0.0050961   0.0085458    0.063763    0.072533     0.14529    0.071883     0.10274
-0.0063954    0.015042    0.057267    0.099817     0.18037     0.11313     0.10794
0.00042559    0.022188    0.048822     0.11638     0.21025     0.14237     0.11086
0.01017    0.028034    0.040377     0.11995     0.19921     0.15244     0.11151
0.018615    0.030957    0.029009     0.11573     0.14139     0.14561     0.10956
0.022837    0.031282    0.014068     0.11638     0.06084     0.13327     0.10014
0.022512    0.028359 -0.00087364     0.12645   -0.014191     0.12548    0.084876
0.016666    0.022837   -0.010943     0.14496   -0.068434     0.12288    0.068635
0.009845     0.01829   -0.013216     0.16575   -0.099615     0.12515    0.059216
0.0046481    0.011469   -0.010618     0.18199    -0.11553     0.12937    0.056942
0.0014   0.0036737  -0.0073698     0.18557    -0.13015     0.13425    0.061814
-0.00022403  -0.0037969  -0.0034721      0.1729    -0.16003     0.13977    0.070259
0.0036737  -0.0054209  -0.0050961     0.14334    -0.21557     0.14237    0.077405
0.015692  -0.0021729  -0.0096434     0.10696    -0.29515     0.13749    0.082277
0.029009   0.0026992   -0.014191    0.069285    -0.37668     0.12125    0.079029
0.038428   0.0072465   -0.012892    0.033231    -0.42345     0.09397    0.066362
0.040702   0.0062721  -0.0089938  -0.0054209    -0.41013    0.066037    0.049147
0.03583   0.0020496  -0.0057458   -0.050569     -0.3351    0.043625    0.032582
0.030633  -0.0021729 -0.00022403   -0.092794    -0.21752    0.031607    0.023487
0.029333  -0.0021729    0.016991    -0.11131   -0.081426    0.032906    0.021863
0.031607   0.0026992    0.049147   -0.086948     0.05142    0.044275    0.023162
0.031932    0.014068    0.090072   -0.022961     0.16315    0.056292    0.021538
0.029658     0.02641      0.1297    0.060515     0.23591    0.054344    0.019914
0.028359    0.036154     0.15958     0.13912     0.25735     0.02706    0.016991
0.028034    0.041027     0.17387     0.19693     0.23266   -0.029132    0.011144
0.028359    0.038103     0.16608     0.22844     0.17842    -0.10871   0.0010752
0.029658    0.031607     0.13847     0.23104     0.11086     -0.2042   -0.012242
0.03453    0.025436    0.099492     0.20863    0.038428    -0.30262   -0.022636
0.0433    0.022188    0.061165     0.17127   -0.036602    -0.38577   -0.025559
0.054668    0.022837    0.031607     0.13327    -0.11618    -0.43904   -0.026209
0.067011    0.025436    0.015042     0.10079    -0.20778    -0.45333   -0.025884
0.077405    0.029983    0.010819    0.073832    -0.32016    -0.43449   -0.020362
0.0852     0.03453    0.012768    0.050121    -0.45463    -0.39487  -0.0099683
0.086175    0.040377    0.014068    0.029333    -0.60339    -0.34484   0.0017248
0.077405    0.045249   0.0088706    0.009845    -0.76417    -0.29417    0.014717
0.059865    0.048497  -0.0047713  -0.0099683    -0.92073    -0.25195    0.027385
0.033881    0.044924   -0.018738   -0.029132     -1.0354    -0.21849    0.040377
0.00042559    0.036804    -0.02361     -0.0405     -1.0636    -0.19413    0.051096
-0.030431    0.025111   -0.018413   -0.039201    -0.98439    -0.17205    0.057592
-0.051219    0.013418  -0.0073698   -0.025234    -0.81094    -0.14606     0.06084
-0.055441   0.0059473   0.0033489  -0.0015233    -0.57124    -0.11651    0.062789
-0.045372   0.0017248    0.011794    0.027709    -0.30359   -0.086623    0.067011
-0.027508   0.0010752    0.016666    0.055643    -0.04992   -0.064536    0.071558
-0.011267   0.0036737     0.01829     0.07773     0.16056   -0.056416    0.073507
-0.00022403   0.0049729     0.01764    0.092996     0.31322   -0.061288    0.072208
0.003024   0.0036737    0.017316     0.10242     0.41033   -0.070382     0.06831
0.0020496  0.00010078    0.019589     0.10436     0.46912   -0.072006    0.059865
-0.00022403  -0.0041217    0.020888    0.098842     0.50648   -0.058689    0.049147
-0.00054884   -0.010293    0.017316    0.089423     0.53701   -0.033354     0.04395
0.0014   -0.017114   0.0059473    0.078704     0.56721   0.0017248    0.044275
0.0049729   -0.025234   -0.011917    0.067336     0.59028    0.041027    0.047523
0.010819   -0.032705   -0.028157    0.057917     0.59872    0.083251    0.048497
0.014392   -0.038551   -0.044398    0.053044     0.58963     0.11931    0.044275
0.013743   -0.039526   -0.058365    0.048497     0.56364     0.13944    0.033881
0.013743   -0.036278   -0.064861    0.048172     0.51979     0.14399    0.020888
0.012119   -0.031081   -0.061288     0.05272     0.46198     0.13587    0.009845
0.0091954   -0.023935   -0.048296    0.059541     0.38922     0.12255   0.0075714
0.0069217   -0.017439   -0.035303    0.063763      0.2921     0.10989   0.0088706
0.0049729  -0.0093186   -0.032055    0.061489     0.15601     0.10177   0.0091954
0.0046481  -0.0031473   -0.037577    0.052395   -0.029457     0.10079     0.01017
0.0046481   0.0017248   -0.046022    0.042001    -0.26722     0.10079    0.013418
0.003024   0.0059473   -0.055116    0.033881    -0.53908    0.097868    0.015367
-0.0018481   0.0072465    -0.06616    0.027709    -0.81224    0.092996    0.011794
-0.0093186   0.0046481   -0.079152    0.021538     -1.0432      0.0852    0.003024
-0.018413  -0.0011985   -0.092145    0.010495     -1.1913    0.076106  -0.0073698
-0.026858  -0.0067202   -0.097666   0.0036737     -1.2241    0.065712   -0.015165
-0.030431  -0.0076946   -0.084674    0.015367     -1.1358    0.056292   -0.018738
-0.021986  -0.0018481   -0.051868    0.047523    -0.95548    0.050771   -0.018088
-0.0034721    0.010819  -0.0067202    0.090072    -0.73396    0.050446   -0.012567
0.015692    0.025436    0.036154      0.1271    -0.51407    0.053694  -0.0018481
0.028359    0.039402    0.061165     0.14464    -0.32048    0.054993    0.010495
0.030633    0.045574    0.064737     0.13782     -0.1623    0.049147    0.015367
0.024137    0.042001    0.047523     0.10989   -0.031406    0.036479    0.008221
0.01017    0.033231    0.017965    0.070259    0.078055    0.021538  -0.0057458
-0.0050961    0.021213   -0.007045    0.028359     0.16543   0.0085458   -0.016789
-0.019063     0.01017   -0.020687  -0.0060706     0.22909  -0.0041217   -0.023935
-0.029132      0.0014   -0.022961   -0.029132     0.26937   -0.015815   -0.030106
-0.03238  -0.0031473   -0.020037   -0.039526     0.29438   -0.024585   -0.036602
-0.025234  -0.0018481   -0.016789   -0.041475     0.31094   -0.029132   -0.042124
-0.008669  0.00042559   -0.014191   -0.044723     0.32134   -0.029457   -0.041475
0.01017 -0.00022403    -0.01484   -0.055766     0.32231   -0.030106   -0.035628
0.023812  -0.0041217   -0.018738   -0.072331     0.31192    -0.03303   -0.028482
0.028034  -0.0034721    -0.02426   -0.090196     0.29243   -0.035953   -0.021661
0.025111   0.0033489   -0.029132    -0.10709     0.27229   -0.035303   -0.018738
0.016991    0.013093   -0.034978    -0.12138     0.26709   -0.027183   -0.022961
0.0091954    0.018615    -0.04115    -0.12885     0.28853   -0.012242   -0.029132
-0.0024977    0.016666   -0.045047    -0.13275     0.34147   0.0020496   -0.036278
-0.018088   0.0065969   -0.046022    -0.13275     0.41228   0.0065969   -0.043748
-0.038227  -0.0093186   -0.046347    -0.13177     0.48634  -0.0034721   -0.048945
-0.056416   -0.024585   -0.046347    -0.12917     0.54773   -0.024909   -0.051544
-0.068109   -0.033354   -0.044723    -0.12008     0.58768   -0.045047   -0.051219
-0.068109   -0.033679   -0.044723    -0.10286     0.59905   -0.052193   -0.048296
-0.056091   -0.028482   -0.046671   -0.076879     0.58281   -0.046347   -0.043423
-0.0405   -0.021012   -0.047321    -0.04862     0.53636   -0.028807   -0.038551
-0.026533   -0.010943   -0.046347   -0.027508      0.4649  -0.0060706   -0.031406
-0.018738   0.0020496   -0.046022    -0.01549      0.3863    0.016016   -0.021986
-0.015815    0.013418   -0.048296   -0.014516     0.33043    0.029658   -0.013541
-0.015165     0.01894   -0.052518   -0.023935     0.31646    0.036479  -0.0063954
-0.013866    0.019589   -0.059014   -0.039526     0.34732    0.041676  -0.0096434
-0.0060706    0.015042   -0.063237   -0.054792     0.40838    0.048172   -0.022311
0.0065969    0.010819   -0.062587   -0.063237     0.47854    0.054993   -0.039526
0.020888    0.011469   -0.056416   -0.061937     0.53571    0.054019   -0.055116
0.030308    0.014392    -0.04927   -0.053817     0.56234    0.045249   -0.064536
0.029658    0.016341   -0.046671   -0.043748     0.54773    0.032257    -0.06551
0.022837    0.013418   -0.050244   -0.036602     0.49706    0.019264   -0.060963
0.015042    0.010819   -0.057715   -0.034654     0.41845   0.0065969   -0.055116
0.010495    0.012768   -0.061937   -0.037902     0.32653  -0.0080194   -0.052193
0.011144     0.01764   -0.065186   -0.045697     0.23591   -0.023285   -0.052843
0.015042    0.023162   -0.069408   -0.060313     0.15471   -0.036602   -0.051868
0.015042    0.022512   -0.077203     -0.0837    0.084876   -0.047646   -0.051544
0.0072465    0.016016   -0.084349    -0.11261    0.023812   -0.056416   -0.052518
-0.0063954   0.0088706   -0.085648    -0.13892   -0.028157   -0.060638   -0.056091
-0.019712    0.003024     -0.0824    -0.15223    -0.07493   -0.062262    -0.05804
-0.025559  0.00042559   -0.073631    -0.14834    -0.12008   -0.061288   -0.052843
-0.022636  -0.0011985   -0.060963    -0.12917     -0.1662   -0.065186   -0.041475
-0.014516  -0.0034721   -0.045697    -0.10091     -0.2159   -0.075255   -0.029457
-0.007045   -0.007045   -0.030106   -0.067134    -0.26722   -0.088896   -0.025559
-0.0067202   -0.011592   -0.020687   -0.028482    -0.32146   -0.098641   -0.034329
-0.014516    -0.01614   -0.019388    0.016666    -0.38772    -0.10449   -0.050894
-0.02361   -0.018088   -0.020687    0.064737    -0.47055    -0.10806   -0.065835
-0.030756   -0.019063   -0.023935     0.11313    -0.55564    -0.11163   -0.073306
-0.034004   -0.018088   -0.024909     0.15341    -0.60859    -0.11391   -0.070382
-0.035628   -0.018738   -0.022311     0.17517    -0.59852    -0.10871   -0.060313
-0.04115   -0.021012   -0.017114     0.17095    -0.51342   -0.094418   -0.047646
-0.052518   -0.025559   -0.013866     0.14496     -0.3744    -0.07493   -0.038876
-0.064536   -0.031081   -0.012892     0.10534    -0.22369   -0.055116   -0.037252
-0.068758   -0.034329    -0.01549    0.059216    -0.09994   -0.039851   -0.039201
-0.064211   -0.035628   -0.018088    0.014717   -0.019388    -0.03238   -0.043748
-0.056741   -0.037902   -0.021012   -0.027183    0.019264   -0.027508   -0.050894
-0.046671   -0.041475   -0.021661   -0.068109    0.032257   -0.011592   -0.061937
-0.034329   -0.044073    -0.02426    -0.11391    0.037778    0.022512   -0.071357
-0.023935   -0.038551   -0.035628    -0.16263    0.052395    0.073507   -0.074605
-0.016789   -0.025234   -0.055116    -0.20843    0.079029     0.13392   -0.072656
-0.007045  -0.0057458   -0.076554    -0.23603     0.11248     0.19628   -0.066485
0.0078962    0.015692   -0.086623    -0.23246     0.14659     0.25767   -0.057065
0.023812    0.032582   -0.077528    -0.20031      0.1742     0.31516   -0.043423
0.036154    0.041351   -0.046671    -0.15061     0.18719     0.36324   -0.028807
0.04395     0.04395   0.0010752   -0.093119     0.18459     0.40676   -0.015165
0.046548     0.04395    0.054993   -0.039851     0.17225     0.44866  0.00075039
0.045249    0.042651     0.10501   0.0072465     0.15276     0.48471    0.020888
0.048497    0.038753     0.13977    0.049472     0.12028     0.50842    0.044275
0.057267    0.032906     0.15926    0.081952    0.064413     0.51427    0.074482
0.067986    0.029009     0.16543     0.10306   -0.016464     0.49381     0.10826
0.071883     0.02706     0.15471     0.11118    -0.11163     0.44736     0.13847
0.067986    0.024137     0.13132     0.10339    -0.19868     0.37753     0.15666
0.055968     0.01894     0.10274    0.080003    -0.26397     0.28821      0.1625
0.041676    0.014392    0.077405    0.048822     -0.2984     0.18232     0.15503
0.02706    0.012443    0.055318    0.019589    -0.30522    0.065387     0.13587
0.011794    0.012768    0.034206 -0.00087364    -0.29028   -0.054142     0.11183
-0.0028225    0.013743    0.017965   -0.014191    -0.26494     -0.1636    0.092021
-0.017114    0.014068   0.0078962   -0.029132    -0.24123     -0.2513    0.079029
-0.025559    0.013093  -0.0021729    -0.04992    -0.23019    -0.31951    0.073832
-0.027183   0.0091954   -0.017439   -0.078178    -0.23019    -0.37927    0.074482
-0.023935   0.0036737   -0.034004    -0.11261    -0.22434    -0.43904    0.081303
-0.017114  -0.0011985   -0.048945    -0.15191    -0.18504     -0.4975    0.089748
-0.0096434  -0.0060706   -0.057065    -0.18861    -0.10481     -0.5537    0.092996
-0.0041217   -0.012892   -0.056416    -0.21265   -0.023935    -0.61054    0.087149
-0.0044465   -0.021986   -0.045047    -0.21135   -0.015165    -0.67485    0.074157
-0.0083442   -0.031406   -0.022636    -0.17854    -0.13177    -0.75475    0.055968
-0.018413   -0.037902   0.0033489    -0.11586    -0.35654     -0.8431    0.034206
-0.029457   -0.037902    0.022188   -0.039526    -0.61281    -0.91878    0.010819
-0.035953   -0.033354    0.025111    0.024461    -0.80932    -0.96198   -0.014191
-0.038227   -0.029782    0.012443    0.054019    -0.89182     -0.9649   -0.037902
-0.037902   -0.025559  -0.0047713    0.047198    -0.86421    -0.93502   -0.061613
-0.039851   -0.025884   -0.016789    0.015367    -0.76839     -0.8863    -0.08305
-0.048296   -0.029782   -0.019712   -0.016789    -0.64367    -0.82523    -0.10091
-0.059989   -0.036602    -0.01549   -0.035303    -0.51862     -0.7515    -0.11098
-0.069083   -0.041799   -0.008669   -0.043099    -0.39584    -0.65569    -0.11586
-0.073631   -0.045697  -0.0054209   -0.045697    -0.27469    -0.53713    -0.11553
-0.076879   -0.045372  -0.0034721   -0.051219    -0.16685    -0.40363    -0.10774
-0.081751   -0.042124  0.00042559   -0.063237   -0.087272    -0.27436    -0.09117
-0.087597   -0.037252   0.0091954   -0.081101   -0.039526    -0.16977   -0.069408
-0.093444    -0.03173    0.020888   -0.093769   -0.016789   -0.098965   -0.050244
-0.095717   -0.026858    0.033881   -0.095393   -0.017439   -0.064536   -0.041475
-0.092469   -0.021337    0.042975   -0.081101   -0.041799   -0.056741   -0.044723
-0.083375    -0.01484    0.047847    -0.04862   -0.086298   -0.063237   -0.054792
-0.069733   -0.007045    0.048497  -0.0034721    -0.13697   -0.072656   -0.063561
-0.04927  0.00075039    0.046223    0.049472    -0.17789   -0.077528   -0.067459
-0.024585   0.0075714    0.043625     0.10242    -0.19576   -0.069083   -0.059989
0.00010078    0.011144    0.040702     0.14172    -0.17789   -0.041475   -0.047646
0.024137    0.014717    0.042001     0.15698    -0.11715   0.0017248   -0.035628
0.045249     0.01764    0.044275     0.14724   -0.025884    0.051745   -0.024909
0.06019    0.021213    0.046548     0.11346    0.078379     0.10371   -0.014516
0.064737    0.023487    0.046223    0.071558     0.18297     0.16478  -0.0047713
0.060515    0.028359    0.039078    0.037778     0.27749     0.23883   0.0026992
0.048822    0.033231    0.024137    0.024786     0.35739     0.32134   0.0075714
0.03453    0.037454   0.0072465     0.02706     0.42787     0.40059   0.0069217
0.020239      0.0433 -0.00054884    0.036154     0.49868     0.47075   0.0059473
0.0056225    0.048822    0.003024    0.047847     0.57663     0.53019   0.0072465
-0.010618     0.05207    0.014392    0.062139     0.66011     0.58216    0.016016
-0.026209    0.047523    0.024461    0.078379     0.72962     0.61918    0.029658
-0.038551    0.039402    0.023487    0.092021     0.75333     0.63315    0.042651
-0.047646    0.028034   0.0091954    0.098517     0.71695     0.61756    0.053044
-0.04992    0.020239   -0.011917     0.10014     0.62081     0.57339    0.056942
-0.044398     0.01829   -0.028482    0.099167     0.47984      0.5081    0.054019
-0.029457    0.019264   -0.035303    0.098517     0.31127     0.43404    0.044275
-0.0083442     0.01894   -0.033679    0.096244     0.13977     0.36713    0.031282
0.015367     0.01764   -0.027508    0.092346  -0.0057458     0.31484    0.016341
0.03518    0.015042   -0.017114    0.094945   -0.090196     0.27391   0.0023744
0.044924    0.013093  -0.0034721     0.10696   -0.082725     0.24338  -0.0073698
0.042326    0.009845    0.012768     0.12743    0.013743     0.22194   -0.011592
0.030957   0.0059473    0.028684     0.15309     0.16283      0.2057   -0.011592
0.023487   0.0023744    0.038753     0.18232     0.32296     0.19239  -0.0060706
0.022188 -0.00022403    0.039402      0.2135     0.46815     0.18199   0.0020496
0.024461  -0.0031473    0.031282      0.2476     0.59028      0.1755   0.0072465
0.029983  -0.0047713    0.016991     0.28203     0.68967      0.1703   0.0072465
0.036804  -0.0063954  0.00042559     0.31224     0.76795      0.1638  0.00075039
0.038428   -0.011917   -0.014191     0.33075     0.82219     0.15568  -0.0089938
0.032906   -0.020037   -0.027508      0.3327      0.8407     0.14302   -0.016464
0.020888   -0.025559   -0.042124     0.31646     0.81309     0.12645   -0.020037
0.0046481   -0.024909   -0.058689     0.28691     0.72994     0.11086   -0.020687
-0.0083442   -0.019063   -0.074605      0.2463     0.58475     0.10144   -0.021012
-0.014516   -0.012892     -0.0824     0.19109     0.38402    0.096569   -0.020037
-0.013866  -0.0096434   -0.079152     0.11638     0.15373    0.092996   -0.017114
-0.010293  -0.0076946   -0.064861    0.026735   -0.077528    0.090722   -0.011592
-0.0024977  -0.0063954   -0.043423   -0.053492    -0.28573    0.087149   -0.007045
0.010495  -0.0047713   -0.019063    -0.10449    -0.46502    0.080978  -0.0063954
0.022188 -0.00087364  0.00010078    -0.12527    -0.63555    0.072208   -0.011592
0.029009   0.0023744   0.0052977    -0.13372    -0.83141    0.065712   -0.019063
0.025761   0.0023744  -0.0063954    -0.13859     -1.0721    0.062464   -0.025234
0.014717  -0.0015233   -0.023935    -0.12657     -1.3297    0.057592   -0.027833
-0.0047713  -0.0034721    -0.03303   -0.047971     -1.5375    0.051745   -0.026209
-0.027183  -0.0011985    -0.02361     0.13782     -1.6337    0.045574   -0.020687
-0.042449   0.0059473  -0.0018481     0.40416      -1.583    0.039727   -0.011592
-0.044723    0.015367    0.021538     0.65394     -1.3862    0.028034  -0.0054209
-0.036602    0.024786    0.033556     0.79393     -1.0805    0.012768  -0.0067202
-0.02426    0.031607    0.030308     0.78191    -0.74208   0.0020496   -0.013866
-0.012892    0.032906    0.014392     0.63283    -0.45236  0.00042559   -0.021337
-0.0028225    0.028684   -0.012242     0.40643    -0.26267    0.010495   -0.024909
0.0056225    0.022512   -0.040175     0.17712    -0.17497    0.031607   -0.018413
0.012119    0.016666   -0.059989  -0.0034721    -0.15905    0.067986   0.0023744
0.01894    0.013743   -0.067459    -0.12787    -0.17107     0.11443    0.034206
0.027385     0.01017   -0.066485    -0.21525    -0.17465     0.16445    0.073182
0.034855    0.008221   -0.065186    -0.28378    -0.14996     0.20635     0.11508
0.036154    0.012768   -0.065186    -0.34387   -0.096692     0.23039     0.14951
0.030308    0.019914   -0.061288    -0.40006    -0.02361     0.23656     0.16575
0.021863    0.027385   -0.050894     -0.4543    0.054019     0.22097     0.16478
0.020239    0.033231   -0.034004     -0.4988      0.1206     0.18427     0.15276
0.028034     0.03518   -0.012892    -0.52414      0.1677     0.13327      0.1349
0.039402    0.030957   0.0059473    -0.52251     0.19401    0.079029     0.11476
0.05142    0.020564    0.021863    -0.49231     0.20343    0.029983    0.098517
0.057917   0.0085458     0.03583    -0.44196     0.20213   -0.010943    0.083901
0.057592  -0.0024977    0.046548    -0.38772     0.19336   -0.038551    0.070909
0.053044   -0.010618    0.049472    -0.34907     0.17712   -0.054792    0.058241
0.044275   -0.017114    0.042326    -0.33445     0.15373   -0.065835    0.042975
0.03453   -0.023285    0.029009    -0.34322     0.11703   -0.077203    0.026735
0.022837   -0.029782    0.015367    -0.36011    0.055318   -0.091495    0.011794
0.010819   -0.034978   0.0085458    -0.36791   -0.038227    -0.10806  -0.0054209
-0.00087364   -0.035628   0.0095202    -0.35816    -0.14379    -0.12787   -0.023935
-0.012567   -0.032705    0.018615    -0.32666    -0.22142    -0.15321   -0.042774
-0.026209   -0.025234     0.03453    -0.27728    -0.23863    -0.18536   -0.061613
-0.040825    -0.01549    0.054668    -0.21947    -0.18861    -0.21785   -0.081101
-0.054792  -0.0054209    0.075781    -0.15776   -0.084999    -0.24188   -0.099615
-0.060638      0.0014    0.089098   -0.093444    0.046223     -0.2487    -0.11358
-0.056416    0.003024    0.080653   -0.021986     0.18037    -0.23311    -0.11683
-0.041475    0.003024     0.04395    0.052395      0.3012    -0.19998    -0.10676
-0.020687   0.0046481  -0.0083442     0.12125     0.40643    -0.15873   -0.085648
0.0020496   0.0095202   -0.047646     0.17582     0.49706    -0.12138   -0.059339
0.022837    0.016666   -0.061937     0.21188     0.57988   -0.089871   -0.032705
0.039402    0.022512   -0.050569     0.22877     0.65946   -0.059014   -0.010943
0.049796    0.028034   -0.022961     0.23006     0.73417   -0.026858   0.0052977
0.053694    0.029333   0.0085458      0.2187     0.79328  -0.0031473    0.016341
0.044924    0.027709    0.030633     0.20051     0.82219   0.0043233    0.014717
0.024137    0.025761    0.033231     0.17907     0.81472   -0.011267  -0.0047713
-0.0018481    0.026085    0.022837     0.15763     0.77087   -0.058365   -0.038876
-0.025884    0.025111   0.0085458     0.13067     0.70039    -0.13177    -0.07428
-0.038876    0.024786  -0.0050961     0.10014     0.61594     -0.2107   -0.097666
-0.039851    0.023162   -0.014516    0.074482     0.52986    -0.27274    -0.10351
-0.031081    0.020888   -0.020037    0.059541     0.45028    -0.31009   -0.091495
-0.016464    0.019264   -0.025559     0.05207     0.38013    -0.33218   -0.067459
0.0017248    0.016666   -0.029782    0.047847     0.31581    -0.34939   -0.037252
0.016341    0.014068   -0.027508    0.042651      0.2528    -0.35946  -0.0073698
0.021538    0.014068   -0.015815    0.034855     0.18589    -0.35719    0.013418
0.012443    0.013743 -0.00054884     0.02706     0.11248     -0.3377    0.016991
-0.0050961    0.018615    0.010819    0.024461    0.034855     -0.2997   0.0017248
-0.022961    0.028359    0.012443    0.029009   -0.047321    -0.24805   -0.027508
-0.030106    0.037778   0.0088706    0.040052    -0.13989    -0.18017   -0.056416
-0.024585    0.044924   0.0088706     0.05142    -0.24091   -0.086948   -0.071357
-0.011267    0.048822    0.013743    0.056617    -0.34874    0.036154   -0.067134
0.0026992    0.042001     0.01764    0.050121    -0.45755     0.18037   -0.047321
0.014068    0.029658    0.016666    0.029658    -0.55142     0.32686   -0.018413
0.02641    0.019914     0.01017   0.0036737    -0.59982     0.44801    0.016666
0.039078    0.011144  0.00010078    -0.01614    -0.57546     0.52369    0.052395
0.049147    0.003024   -0.010293   -0.021012    -0.47347     0.54123    0.081627
0.053044  -0.0076946   -0.018413  -0.0093186    -0.31496      0.5016    0.097543
0.046548   -0.021661   -0.027833   0.0056225    -0.14769     0.41131    0.099817
0.027385   -0.038551   -0.041799  -0.0018481   -0.022311     0.27554    0.090072
0.0020496   -0.056741   -0.059989   -0.038227    0.029333     0.10242    0.070259
-0.022311   -0.072981   -0.077853   -0.092794    0.010819   -0.092794    0.043625
-0.036602   -0.084349   -0.087922    -0.14119    -0.04992     -0.2919    0.014717
-0.039201   -0.087597   -0.084999    -0.16685    -0.10644    -0.48321  -0.0083442
-0.033679   -0.081751   -0.070707    -0.16425    -0.12333    -0.65893   -0.018088
-0.025234   -0.069083   -0.047971    -0.13859   -0.092469    -0.81192   -0.017114
-0.018413   -0.050569    -0.02361   -0.095717   -0.034329    -0.93015  -0.0093186
-0.015165   -0.030431  -0.0028225    -0.04115    0.019589     -1.0016 -0.00054884
-0.013541  -0.0093186    0.011469    0.015042    0.044924     -1.0185    0.009845
-0.0096434    0.012443    0.019264     0.06831    0.032582    -0.98179    0.016341
-0.00022403    0.030633    0.021863     0.11898  -0.0099683    -0.90319    0.019264
0.008221    0.038753     0.01894     0.16705   -0.069733    -0.80217    0.017316
0.015367    0.035505    0.012768     0.20863     -0.1282    -0.69531    0.012119
0.016666    0.024461   0.0065969     0.23754    -0.16555    -0.58455   0.0052977
0.011794    0.013743   0.0036737      0.2541    -0.17952     -0.4686  -0.0011985
0.0052977   0.0069217   0.0046481     0.26157    -0.17854    -0.34907  -0.0021729
0.003024   0.0033489   0.0095202     0.26125    -0.16393    -0.23019   0.0010752
0.0052977   0.0010752    0.015692     0.25605    -0.13437    -0.11813   0.0043233
0.0039985  -0.0028225    0.020239     0.24825   -0.088572   -0.020362   0.0046481
-0.007045  -0.0050961    0.023487     0.24273   -0.033354    0.059541   0.0020496
-0.030106  -0.0080194    0.028359     0.23851     0.01764     0.11736  -0.0041217
-0.058689   -0.013216    0.032582     0.23039    0.053044     0.15731   -0.010943
-0.083375   -0.022961    0.032906      0.2174     0.06896     0.18167   -0.022961
-0.094093   -0.033354    0.028684     0.19661     0.06961     0.19304   -0.040825
-0.090196   -0.039201    0.017316     0.16478    0.055968     0.19174   -0.060963
-0.075904   -0.039851 -0.00022403     0.12028    0.032582     0.18329   -0.075904
-0.058365   -0.035303    -0.01614    0.065387  0.00075039     0.17322   -0.084674
-0.042774   -0.027833    -0.02426    0.010819   -0.038876     0.17062   -0.090845
-0.027183   -0.017439   -0.022636   -0.033679   -0.077203     0.17647   -0.091495
-0.0073698  -0.0047713   -0.016464   -0.064536    -0.10644     0.18719   -0.084349
0.0095202   0.0062721   -0.012242   -0.076229    -0.12885     0.21285   -0.070707
0.01894    0.013093   -0.014516   -0.075255    -0.15548     0.25865    -0.05804
0.017316    0.013093   -0.028482   -0.076879    -0.18731     0.31549   -0.052193
-0.00054884   0.0065969   -0.050894   -0.095068    -0.21297     0.36356   -0.053817
-0.027183  -0.0031473   -0.078178    -0.13242    -0.21167     0.38305   -0.061288
-0.050244   -0.011917    -0.10351    -0.17432     -0.1636     0.36226   -0.069408
-0.061288   -0.015815    -0.12333     -0.2094   -0.061613     0.30964   -0.070058
-0.055766   -0.015815    -0.13275    -0.23181    0.070909     0.24728   -0.059989
-0.042774   -0.015165    -0.13112    -0.24383     0.20083     0.19661   -0.041475
-0.03173    -0.01484    -0.12495     -0.2461     0.28821     0.16283   -0.021012
-0.024909   -0.016464     -0.1217     -0.2448     0.30737     0.13782  -0.0044465
-0.023935   -0.018413    -0.12235    -0.24448      0.2541     0.11606   0.0062721
-0.026858   -0.020037    -0.12398     -0.2461     0.14756    0.092996    0.009845
-0.032055   -0.024585    -0.12333    -0.24415    0.026085    0.072858   0.0075714
-0.036602   -0.028157    -0.12008    -0.23311   -0.067784     0.05272  -0.0024977
-0.038551   -0.030756    -0.11683    -0.21297    -0.11521    0.028684   -0.015815
-0.037252   -0.029782    -0.11293    -0.19251    -0.11098   0.0069217   -0.021337
-0.03238   -0.022636    -0.10254    -0.18147   -0.067134 -0.00087364   -0.011267
-0.026858   -0.011917   -0.084674    -0.18569 -0.00054884     0.01017    0.011794
-0.021012  -0.0028225   -0.064211     -0.2042    0.079029    0.044924    0.042326
-0.014191  0.00010078   -0.046022    -0.23668     0.16413    0.097543    0.071883
-0.008669  0.00042559   -0.036278    -0.28216     0.24793     0.14984    0.092996
-0.0060706  -0.0018481    -0.03173    -0.32893     0.32718     0.18394     0.10112
-0.0044465  -0.0031473   -0.026858    -0.35946     0.40449     0.19336    0.098517
0.00010078  -0.0034721   -0.019063    -0.36011     0.47529     0.17972    0.093645
0.0072465  -0.0028225  -0.0073698    -0.32471     0.51622     0.15049    0.091372
0.015692  -0.0047713   0.0056225    -0.25877     0.49413     0.11963    0.092671
0.021213  -0.0099683     0.01764    -0.18277     0.37558    0.094945    0.088448
0.026085   -0.014516    0.027709    -0.11683     0.14626    0.083901    0.079029
0.032257   -0.013866    0.033881   -0.070707    -0.18439    0.085525    0.066686
0.038753  -0.0050961    0.037454   -0.043748    -0.57124    0.095594    0.054344
0.041351   0.0072465    0.040702   -0.026858    -0.94119     0.10566    0.040702
0.041027    0.022188    0.042651   -0.016464      -1.216     0.11411    0.025111
0.037454     0.03518    0.045249  -0.0024977     -1.3349     0.12125    0.012119
0.035505    0.042001    0.049796    0.019264     -1.2826     0.12937   0.0039985
0.032257    0.041676     0.05207    0.050446     -1.1003     0.13197  0.00042559
0.023162    0.035505    0.051096    0.086175    -0.86324     0.12515  -0.0011985
0.0091954    0.025436     0.05207     0.11866    -0.64464     0.10989  -0.0024977
-0.0099683    0.011794    0.058241     0.14269    -0.48419    0.089098  -0.0031473
-0.031081 -0.00087364    0.067336     0.15568     -0.3757    0.071234  -0.0018481
-0.046671  -0.0096434    0.075131     0.15893    -0.28151    0.059865  0.00075039
-0.048945   -0.011917     0.07773     0.15666    -0.15191    0.057917   0.0017248
-0.039201  -0.0063954    0.075456     0.15438    0.052395    0.061489 -0.00087364
-0.024585   0.0026992    0.070259     0.15536     0.32263     0.06896  -0.0089938
-0.012892    0.011469    0.063113     0.16315     0.60717    0.073832   -0.021337
-0.00087364    0.016666    0.055318      0.1729     0.84395    0.074157   -0.031081
0.0085458    0.014392    0.047198     0.18264     0.98784    0.074157   -0.035953
0.012119   0.0059473    0.039402     0.18784      1.0132     0.07708   -0.036278
0.011469   -0.007045    0.031282     0.18557     0.92385    0.081952   -0.032705
0.0072465   -0.024585    0.020888     0.17615     0.74099    0.080978   -0.026858
0.0059473   -0.045047    0.010495     0.16185     0.50648     0.06831   -0.021986
0.0088706   -0.061288   0.0017248     0.15114     0.27099    0.048172   -0.018738
0.013743   -0.065835 -0.00087364     0.15049    0.067011    0.029333   -0.014516
0.019914   -0.058689   0.0039985     0.16088    -0.09182    0.021538  -0.0096434
0.023812   -0.043748    0.015042     0.17745    -0.21427    0.029009   -0.007045
0.020564   -0.027183     0.02641     0.19563    -0.32276    0.050771  -0.0073698
0.0059473   -0.013866    0.030957      0.2044    -0.43677    0.081952  -0.0054209
-0.011592  -0.0015233    0.026085     0.20018    -0.57059     0.11541  0.00075039
-0.024909   0.0078962    0.014717     0.18524    -0.72292     0.14691   0.0065969
-0.035628    0.013093      0.0014     0.16153    -0.86843     0.16965   0.0069217
-0.040175    0.013743  -0.0073698     0.13587    -0.97822     0.17777   0.0017248
-0.036278    0.011794  -0.0096434     0.11378      -1.049      0.1755  -0.0028225
-0.028807    0.010819  -0.0089938    0.097543     -1.1013     0.17127  -0.0050961
-0.020687   0.0085458  -0.0089938    0.086175     -1.1387     0.17517  -0.0044465
-0.013866   0.0075714   -0.010293    0.080328     -1.1315     0.19271  -0.0024977
-0.0031473   0.0095202   -0.013216    0.079679     -1.0425      0.2135 -0.00022403
0.011144    0.014068   -0.011267    0.081952    -0.85187     0.22162  0.00075039
0.025761     0.01764  -0.0028225     0.08585    -0.57773     0.20928    0.003024
0.037129    0.019264    0.010819     0.09462    -0.26624      0.1768   0.0091954
0.042326    0.021863    0.025761     0.11118    0.031607     0.13067    0.015692
0.040377     0.02641    0.039402     0.13814     0.27424    0.075781    0.021538
0.034206    0.030308    0.052395     0.16868     0.44184    0.015367    0.023487
0.030957    0.032582    0.064088     0.19921     0.53343   -0.041475    0.025436
0.032257    0.030957    0.076106     0.22162     0.56559   -0.094418    0.025436
0.036804    0.024461    0.087149     0.23136     0.55455    -0.14606    0.021538
0.039727     0.01764    0.094295     0.22389     0.51752    -0.20031    0.012443
0.039078    0.011144    0.091696     0.20408      0.4688    -0.26039 -0.00054884
0.036804   0.0085458    0.074157      0.1781     0.41358    -0.32081    -0.01484
0.032257     0.01017    0.039078     0.14951     0.35641     -0.3731   -0.023935
0.028034    0.012443  -0.0034721     0.11638     0.30315    -0.41825   -0.024585
0.025111    0.014392   -0.042449    0.074482     0.25378     -0.4569   -0.023285
0.021213    0.014068   -0.069733    0.019589     0.20863    -0.49426   -0.022961
0.016991    0.014717   -0.084999   -0.054467     0.16673    -0.53388   -0.022311
0.0095202     0.01764   -0.095068    -0.14281     0.12483    -0.57481    -0.02361
0.0036737    0.023162    -0.10384    -0.22597    0.083901    -0.61476   -0.030106
0.0049729    0.033231    -0.11033    -0.28378    0.048497     -0.6375    -0.04115
0.013093    0.048172    -0.11423    -0.30294    0.014717    -0.62678   -0.050894
0.021538    0.064737    -0.11521    -0.28638   -0.020037    -0.57546   -0.057065
0.025436    0.075456    -0.10936     -0.2487   -0.042774    -0.48841   -0.058689
0.01894    0.073832   -0.097991     -0.2133   -0.035628    -0.38285   -0.055766
0.003024    0.057917     -0.0837     -0.2016    0.011794    -0.28248   -0.051219
-0.015165    0.032906   -0.072006    -0.22207    0.093645    -0.19511   -0.046996
-0.030431   0.0065969   -0.062587    -0.26592     0.19434    -0.12625   -0.042449
-0.039851   -0.012567   -0.053168    -0.31171     0.28301   -0.075579   -0.034004
-0.041475   -0.020037   -0.044723      -0.339     0.33075   -0.041799   -0.024909
-0.038551   -0.020362   -0.033354    -0.34062     0.33173   -0.019388   -0.016464
-0.033679   -0.017114   -0.019712    -0.31951     0.30867 -0.00022403  -0.0073698
-0.026858   -0.010293  -0.0011985    -0.28443     0.29762    0.021863   0.0062721
-0.01614 -0.00087364     0.01764    -0.25162     0.32653    0.046548    0.027385
-0.0015233   0.0091954    0.027709    -0.23084     0.39669     0.06961    0.050771
0.01017    0.015042    0.027385    -0.21785     0.48569    0.089748     0.06961
0.016341    0.015367    0.019914    -0.20096     0.56397     0.10534    0.079354
0.017316    0.010495    0.015042     -0.1714     0.60197     0.11703    0.078379
0.015692   0.0020496    0.016666     -0.1282      0.5893     0.12125    0.071883
0.014717  -0.0054209    0.022837   -0.077203     0.53538      0.1206    0.058891
0.01764   -0.007045    0.026735   -0.026858     0.46425     0.12093    0.041351
0.020564  -0.0028225     0.02641     0.01764     0.39507     0.12678    0.023487
0.020239    0.003024    0.022188    0.054668     0.33465     0.14009    0.012443
0.014392   0.0052977    0.016991    0.086824     0.27911     0.15568    0.011144
0.0088706   0.0046481    0.012119     0.11931     0.22844       0.169    0.019264
0.0059473   0.0046481    0.011794     0.15114     0.18427     0.17582    0.031282
0.0033489   0.0059473    0.019264     0.17972     0.13847     0.17127    0.040052
0.00075039   0.0059473    0.032257     0.20181     0.07773     0.15731    0.041676
-0.0024977   0.0036737    0.043625     0.22032  0.00010078     0.14269    0.036804
-0.0099683 -0.00087364    0.047523     0.23948   -0.090196      0.1362    0.028684
-0.021337  -0.0083442    0.037778     0.25735    -0.18504     0.13944    0.019589
-0.037252   -0.017764    0.015042     0.26612    -0.27111     0.15081    0.011794
-0.052518   -0.028157   -0.016789       0.258    -0.32016     0.16705   0.0062721
-0.058365   -0.031081   -0.045372     0.23169    -0.30522     0.18492   0.0036737
-0.050894   -0.021012   -0.055441     0.20376    -0.22532     0.19661   0.0046481
-0.031406    0.003024   -0.043099     0.19336    -0.11715     0.19434   0.0088706
-0.0063954     0.03518   -0.017114     0.20798   -0.026533      0.1729    0.014392
0.016991     0.06084    0.011144     0.24273   0.0085458     0.13262     0.01764
0.033556    0.071234    0.030633     0.28106   -0.019063    0.079679    0.017316
0.038753    0.066037    0.040377     0.30282   -0.087597    0.023162    0.011144
0.032257     0.05142    0.043625      0.3012    -0.15678   -0.031406  0.00010078
0.014392    0.033556    0.048172     0.27359    -0.19446   -0.079802   -0.011267
-0.0073698    0.016666    0.054019     0.22519    -0.18991    -0.11683   -0.019388
-0.028807   0.0010752    0.053694     0.16153    -0.15548    -0.14476   -0.022961
-0.04862    -0.01484    0.042651    0.089748    -0.10514     -0.1675   -0.028157
-0.063237   -0.031406    0.023162    0.014717   -0.049595    -0.18374   -0.035953
-0.068758   -0.044723   0.0023744   -0.054792   0.0026992    -0.19154   -0.044073
-0.063561   -0.049595   -0.010943    -0.11066    0.046548    -0.19348   -0.050894
-0.052518   -0.045697   -0.016464    -0.14606    0.077405    -0.19446    -0.05739
-0.042124   -0.035953   -0.013216    -0.16782    0.088773    -0.19738   -0.062587
-0.03238   -0.025234  -0.0080194    -0.18829    0.081952    -0.20713   -0.063561
-0.021337   -0.016464  -0.0024977    -0.21265    0.066362    -0.22239   -0.056741
-0.010618   -0.007045   0.0046481    -0.24058    0.049147     -0.2448   -0.043423
-0.00054884  0.00042559    0.009845    -0.26429    0.030633    -0.27436   -0.027833
0.0043233   0.0046481   0.0085458    -0.27956    0.012119    -0.30749   -0.010943
0.0056225   0.0049729  0.00010078    -0.28216 -0.00022403      -0.339 -0.00022403
0.0010752   0.0039985   -0.012892    -0.27339   0.0026992    -0.35914   0.0036737
-0.0057458   0.0033489   -0.029132    -0.25487    0.029333    -0.34907  0.00010078
-0.011592 -0.00054884   -0.048945    -0.23344     0.08585    -0.29385  -0.0057458
-0.014516  -0.0063954   -0.072006    -0.21102     0.17712    -0.19219  -0.0083442
-0.014191  -0.0099683   -0.094743    -0.19381     0.29373   -0.057715  -0.0060706
-0.012892   -0.012242    -0.11131    -0.17984     0.40286    0.086824   0.0043233
-0.012242   -0.014516    -0.11975    -0.16393     0.47172     0.21545    0.016016
-0.013866   -0.017439     -0.1191    -0.14541      0.4714     0.31257    0.024461
-0.019063   -0.017114    -0.10838    -0.12722     0.38922     0.37233    0.029009
-0.026858   -0.011592   -0.088572    -0.11196     0.23591     0.39669    0.028684
-0.032055  -0.0054209   -0.064536   -0.093444    0.047523     0.39669    0.023162
-0.031406  -0.0028225   -0.036602   -0.068434    -0.13534     0.39344    0.015692
-0.024909  -0.0044465  -0.0054209    -0.03303    -0.28086     0.39896    0.013418
-0.015815  -0.0060706    0.030633    0.011144    -0.37862     0.41423    0.016016
-0.0028225  -0.0054209     0.06831    0.058891    -0.43644      0.4282    0.026085
0.013418  -0.0041217    0.098517     0.10566    -0.46307     0.42592    0.041351
0.029009  -0.0057458     0.11151     0.14789    -0.46892     0.39702    0.054668
0.038103  -0.0076946     0.10404     0.17842    -0.45755     0.33985    0.060515
0.0433  -0.0073698    0.081627     0.19369    -0.43871     0.26417    0.057592
0.044924  -0.0028225    0.053369     0.20343    -0.41468     0.18297    0.045574
0.040052 -0.00054884    0.029658     0.21707    -0.39422     0.11151    0.032906
0.027709   0.0033489    0.010819     0.23916    -0.38187    0.053044    0.025761
0.011144    0.009845  -0.0028225     0.26612    -0.37603  -0.0015233    0.022837
-0.007045    0.016991   -0.010943     0.28723    -0.36758   -0.062912    0.022188
-0.018088    0.021538   -0.013541     0.28561    -0.34484    -0.14281    0.016991
-0.021337    0.022188   -0.015165      0.2476    -0.29255    -0.23993   0.0052977
-0.021337    0.017965   -0.019712      0.1768    -0.20972    -0.34484   -0.011592
-0.019388   0.0091954   -0.030431    0.091047    -0.11553    -0.44229   -0.028482
-0.018088  -0.0037969   -0.046022   0.0069217   -0.035953    -0.51894   -0.043423
-0.018738   -0.017114   -0.067134   -0.064861   0.0088706    -0.56766   -0.060963
-0.022311   -0.027508   -0.085648    -0.12073    0.013743    -0.58228   -0.080776
-0.028482   -0.034654   -0.097991    -0.15841   -0.021012    -0.56734    -0.10091
-0.036278   -0.034654    -0.10319    -0.18017    -0.09117    -0.52771    -0.11586
-0.041799   -0.029457    -0.10026    -0.18796    -0.18179    -0.46567    -0.11943
-0.044073   -0.020687   -0.092794    -0.18504    -0.27014     -0.3783    -0.10968
-0.041799   -0.010618   -0.084349    -0.16945    -0.33445    -0.26559   -0.091495
-0.037902  0.00010078   -0.076879    -0.13762    -0.35784    -0.13599   -0.069408
-0.035303   0.0091954   -0.068758   -0.092794     -0.3364  -0.0089938   -0.044723
-0.032705    0.013743   -0.058365   -0.041799    -0.27566    0.096244   -0.020687
-0.031081    0.015692   -0.046347    0.010495    -0.18634     0.17062  -0.0018481
-0.030106    0.017965   -0.030756    0.060515   -0.077528     0.20895   0.0043233
-0.027833    0.019589   -0.010943     0.10014    0.044599      0.2096  -0.0037969
-0.023285    0.016016    0.014068     0.12093     0.16608      0.1729   -0.018738
-0.017114   0.0072465    0.038753     0.12125     0.26612     0.10599   -0.034329
-0.013866 -0.00054884    0.059541     0.10274       0.334    0.022188   -0.045047
-0.015165  -0.0024977    0.074482    0.075781     0.36681   -0.063561   -0.051219
-0.016789   0.0020496    0.079679    0.046873     0.37006    -0.13794   -0.059339
-0.015165    0.011794    0.074806    0.014717     0.35219    -0.19608   -0.068758
-0.0093186    0.023162    0.059216   -0.020687     0.32426    -0.23246   -0.074605
-0.0031473    0.032906    0.039727   -0.053817      0.2934    -0.24545   -0.072656
0.00042559    0.038103    0.021213   -0.075579      0.2606    -0.23603   -0.065186
0.0017248    0.041027    0.008221   -0.080127     0.22129     -0.2068   -0.055441
0.0036737    0.044599   0.0017248   -0.064536     0.17257    -0.16328    -0.04862
0.011144    0.048822  0.00042559    -0.03303     0.11573    -0.11261   -0.045372
0.022837    0.052395   0.0023744   0.0062721    0.059865   -0.060963   -0.045047
0.032257     0.05272   0.0049729    0.038428    0.011469   -0.013866   -0.041799
0.036154    0.048497   0.0043233    0.055643   -0.045047    0.025761   -0.032705
0.034206    0.040052   0.0039985    0.057267    -0.13112    0.055968   -0.018738
0.025761    0.030308   0.0046481    0.050446    -0.23733    0.078055  -0.0028225
0.015367     0.01894   0.0059473     0.04395    -0.32471    0.092346    0.011794
0.0078962   0.0075714   0.0052977    0.041027    -0.36856    0.099492    0.023487
0.0056225  -0.0018481   0.0069217    0.041027    -0.37213     0.10144    0.029009
0.0043233  -0.0073698    0.015367    0.038428    -0.35199    0.098517    0.031607
0.00042559  -0.0093186    0.032582    0.036154    -0.32925    0.089748    0.029983
-0.0073698   -0.012892     0.05207    0.036804    -0.31756    0.080003    0.026085
-0.018088   -0.017764    0.066362    0.043625    -0.31886    0.071234    0.019589
-0.029782   -0.025234    0.072533    0.054993    -0.32016    0.062789    0.016341
-0.039851    -0.03303    0.072858    0.066686    -0.30652    0.051745    0.016341
-0.047646   -0.040825    0.067661    0.073507    -0.26332    0.038753     0.01829
-0.049595   -0.048945    0.058566    0.074806    -0.19966    0.025761    0.016991
-0.047321   -0.054467    0.049147    0.074806    -0.13404    0.016991    0.014717
-0.038551   -0.053817    0.042001    0.078055    -0.08305    0.014392    0.014717
-0.023935   -0.045372     0.03583    0.083901    -0.05804    0.017316     0.01894
-0.007045   -0.033679     0.02641     0.09397   -0.058365    0.029009    0.025111
0.0020496   -0.022636    0.011469     0.10729   -0.074605    0.053044    0.026735
0.0017248    -0.01549  -0.0047713     0.12385    -0.10351    0.080978    0.024137
-0.0015233   -0.014191   -0.017439     0.14269    -0.15029     0.10469    0.020888
-0.0031473    -0.01484    -0.02426     0.16348    -0.22174     0.12255    0.019589
-0.0011985   -0.012242   -0.026858     0.18427    -0.31983     0.13555    0.019589
0.0062721  -0.0054209   -0.029782     0.20311    -0.43547     0.14789    0.021213
0.011794   0.0043233   -0.035953     0.21447    -0.56701     0.16315    0.021863
0.014068   0.0065969   -0.045697     0.21902    -0.69499     0.17615     0.01894
0.011794  -0.0015233   -0.059989     0.21447    -0.78204     0.17712     0.01764
0.0085458   -0.016464   -0.077203     0.20116    -0.78951     0.16478    0.020239
0.009845   -0.030106   -0.095717     0.18069    -0.70278     0.14789    0.026735
0.016341   -0.038876    -0.11423     0.15666    -0.52771     0.13814    0.031932
0.023487   -0.039201     -0.1321      0.1297     -0.2867     0.13749    0.032257
0.030308   -0.029782    -0.14541    0.094945   -0.018088     0.14139    0.029333
0.037129   -0.015165    -0.14866    0.039727     0.24598     0.14626    0.027385
0.041351  0.00010078    -0.14249   -0.045372     0.48536     0.14691    0.028684
0.0433    0.010495    -0.12755    -0.15223     0.69519     0.14172     0.03453
0.043625    0.016666    -0.10838    -0.26202     0.87123     0.13327    0.044275
0.044599    0.017965   -0.088572    -0.35069       1.006      0.1245    0.053694
0.044599    0.012119   -0.072656    -0.39649      1.0859     0.11801    0.061165
0.042001      0.0014   -0.062262    -0.39422      1.0944     0.11118    0.061814
0.039078  -0.0099683   -0.054467    -0.35979      1.0021     0.10209    0.053694
0.037454   -0.019063   -0.043099    -0.31464     0.79198    0.090722    0.042651
0.036154    -0.02361   -0.028807    -0.27306     0.49056    0.075131    0.031282
0.03518   -0.020687   -0.018413    -0.24156     0.17485    0.057592    0.021538
0.036804   -0.013866    -0.01484    -0.21622   -0.059664    0.041676    0.012443
0.039727   -0.010943   -0.017439    -0.18731    -0.15418    0.026735   0.0059473
0.044275   -0.015165   -0.020687    -0.14996    -0.10903   0.0078962  0.00010078
0.048172    -0.02426   -0.019712    -0.10189    0.017316   -0.012242  -0.0034721
0.054344   -0.031406   -0.012242   -0.051544     0.14886   -0.028482  -0.0037969
0.061489   -0.034329  -0.0011985  -0.0073698     0.23559    -0.03238    0.003024
0.062789   -0.030756   0.0065969    0.019589     0.26612   -0.024909    0.016016
0.054993   -0.022636   0.0088706    0.026085      0.2541   -0.011917    0.032906
0.033556   -0.011267   0.0056225    0.017316     0.22227  0.00075039    0.046223
-0.0021729  -0.0050961  -0.0044465   0.0020496     0.18394   0.0095202    0.054344
-0.046996   -0.007045   -0.013541   -0.012242     0.14042    0.011794    0.057592
-0.088247   -0.014516   -0.018413   -0.029132    0.087149   0.0065969    0.057917
-0.11196   -0.021661   -0.019063   -0.050569    0.023812  -0.0050961    0.054344
-0.11131   -0.024909   -0.018088   -0.075579   -0.058365   -0.020037    0.044599
-0.090521   -0.022961   -0.011917   -0.094418    -0.16945   -0.038876    0.032906
-0.059339   -0.019388  -0.0021729    -0.10156    -0.30229   -0.058689    0.020239
-0.027508   -0.017114   0.0085458   -0.096367      -0.428   -0.079477   0.0075714
-0.0050961   -0.014191    0.016341   -0.084024     -0.5027   -0.094743  -0.0073698
0.00042559  -0.0060706    0.025436   -0.067784    -0.50173   -0.097017   -0.023285
-0.0067202   0.0049729    0.032582   -0.052843    -0.42865   -0.081101    -0.04115
-0.018088    0.016666    0.032906   -0.044073    -0.31171   -0.050894   -0.053817
-0.024909    0.025111    0.024786   -0.037902    -0.17562   -0.019063   -0.059664
-0.028482    0.031932    0.014717    -0.03173   -0.037252  0.00010078    -0.05739
-0.032705    0.036804    0.011469   -0.020687    0.091372 -0.00022403   -0.048945
-0.037252    0.039078    0.017965  0.00010078     0.20246   -0.012567   -0.036278
-0.038227    0.039078    0.029009    0.030633     0.29145   -0.028807   -0.029132
-0.030756    0.037454    0.038428    0.065062     0.35252   -0.047646   -0.029457
-0.018088    0.034855    0.045899    0.095594     0.38175   -0.072331   -0.034329
-0.0060706     0.03453     0.05207     0.11151     0.38305    -0.10351   -0.037252
-0.00054884    0.036154    0.057917     0.11118     0.36811    -0.13664   -0.035628
-0.0031473    0.039402    0.061489    0.099167     0.34764     -0.1623   -0.024909
-0.011592    0.043625    0.057267    0.087149     0.32458      -0.174  -0.0067202
-0.018413    0.048172    0.044599    0.081303      0.2934    -0.16718    0.019914
-0.020362    0.051745    0.030957    0.082277      0.2554    -0.14444    0.048822
-0.015815     0.05272    0.021213      0.0852     0.21512    -0.11456    0.075781
-0.0083442    0.048822    0.020564    0.086175     0.17615   -0.087272    0.096893
-0.0021729    0.039402    0.027385    0.079679     0.13067   -0.070058     0.10891
-0.0015233    0.027709    0.037454    0.065062    0.065712   -0.067784     0.10826
-0.0021729    0.016666    0.045249    0.044275    -0.02361   -0.073955    0.097543
0.00010078    0.008221    0.047847    0.025111    -0.12852   -0.079802    0.084226
0.0010752    0.003024    0.045899    0.014068    -0.23214     -0.0837    0.070909
0.00042559   0.0023744    0.041351    0.009845    -0.31561   -0.085973    0.056942
-0.0031473  0.00042559    0.037129     0.01017    -0.35686   -0.082725    0.042975
-0.0047713  -0.0050961    0.033881    0.010495     -0.3377   -0.068434    0.029009
-0.0047713   -0.010618    0.030633   0.0088706    -0.26007   -0.043423    0.013743
0.0010752   -0.012567     0.02641   0.0091954    -0.15093  -0.0041217  -0.0031473
0.012119   -0.010293    0.022837    0.014717   -0.041475    0.046223   -0.021661
0.025436  -0.0037969    0.025436    0.025761    0.045899     0.10534   -0.041799
0.036154   0.0036737    0.038103    0.041676    0.097543     0.16673   -0.057715
0.037454     0.01017    0.058241    0.057267     0.11054     0.22032   -0.067459
0.028684    0.013743     0.07773    0.066686    0.095919     0.26125   -0.072006
0.014392    0.012119    0.084876    0.070584    0.064737     0.27716   -0.068758
0.0023744   0.0059473    0.072533    0.066686     0.02706     0.26417   -0.060313
-0.0057458  -0.0044465    0.043625    0.053044   -0.022961     0.22259   -0.049595
-0.0076946   -0.011592    0.012443    0.030308   -0.092469     0.15763    -0.04115
-0.0018481   -0.012242  -0.0099683   0.0017248    -0.17172    0.083251   -0.036602
0.011469  -0.0041217   -0.017114   -0.030106    -0.24221    0.011794   -0.037252
0.026085     0.01017   -0.013216   -0.062262      -0.288   -0.051219   -0.039526
0.039402    0.023162  -0.0047713   -0.091495    -0.30002    -0.10254   -0.038551
0.050121    0.030633   0.0056225    -0.11748    -0.27956    -0.14444    -0.03238
0.053694    0.030633    0.012443    -0.14281    -0.23279    -0.18244   -0.027833
0.044924    0.026085    0.012119    -0.16653    -0.17205    -0.22564   -0.027508
0.025111    0.019914   0.0036737    -0.18504    -0.10838    -0.27599   -0.028807
0.00075039    0.014717  -0.0099683    -0.19381    -0.04862    -0.32666   -0.028482
-0.018738    0.011794   -0.025884    -0.18471   0.0046481    -0.36661   -0.024909
-0.029782    0.010495   -0.038227    -0.15223    0.055643    -0.39324   -0.018413
-0.032055   0.0095202   -0.045697   -0.099615     0.10047    -0.41403   -0.012242
-0.029457   0.0085458   -0.046671   -0.035953     0.13457    -0.43612   -0.011267
-0.021986    0.011144   -0.038876    0.025436     0.15601    -0.46405   -0.018088
-0.012567     0.01764   -0.027508    0.072208      0.1664    -0.49231    -0.03173
-0.0041217    0.024461   -0.019388     0.10014      0.1664     -0.5053   -0.048296
-0.00087364    0.027709   -0.013866     0.11768     0.15828    -0.49231   -0.060638
-0.0044465    0.025761   -0.011917     0.13684     0.14594    -0.45171   -0.066485
-0.010943    0.020564    -0.01484     0.16413     0.13717     -0.3809   -0.064536
-0.021012    0.014392   -0.019712     0.19791     0.13457    -0.27826   -0.056091
-0.032705   0.0085458   -0.024909     0.22941     0.13782    -0.15126   -0.044073
-0.042774    0.003024   -0.030431      0.2476     0.14204   -0.022636   -0.033354
-0.046671  -0.0037969   -0.034654     0.24468     0.13847    0.086175   -0.027183
-0.045697   -0.011267   -0.042774      0.2148      0.1271     0.16705   -0.025884
-0.038876   -0.016464   -0.058689     0.15796     0.11118     0.21707   -0.027508
-0.029457   -0.018738   -0.078827    0.087799     0.10599     0.24273   -0.026533
-0.017439   -0.016464   -0.097666    0.016016     0.12288     0.25767   -0.024585
-0.0047713  -0.0093186    -0.10806   -0.056741     0.15763     0.27164   -0.024585
0.0049729   0.0020496    -0.11228    -0.13437     0.19499     0.28723   -0.027508
0.0059473    0.012443    -0.11391    -0.20875     0.21317     0.29633   -0.029782
0.00010078    0.014392    -0.10936    -0.27176     0.19921     0.28885   -0.031406
-0.0054209   0.0078962   -0.097666    -0.32308     0.14821      0.2515   -0.032705
-0.0096434  -0.0021729   -0.083375    -0.35654    0.065712     0.18589   -0.038876
-0.01614   -0.010293   -0.072981    -0.36076   -0.034978     0.10047   -0.051868
-0.026858   -0.017114   -0.070058    -0.33185    -0.13859   0.0065969   -0.068109
-0.040825   -0.024585   -0.067459    -0.27046    -0.22304    -0.08305   -0.082725
-0.052843   -0.030106   -0.061613    -0.18666    -0.27891      -0.161   -0.092794
-0.059339   -0.035303   -0.050244   -0.095068    -0.30522    -0.22207   -0.098316
-0.055766   -0.037577   -0.039526   -0.013216    -0.31204    -0.26007   -0.097666
-0.040175   -0.036927   -0.036278    0.040702    -0.31399    -0.27339   -0.089221
-0.018413   -0.030431   -0.042774    0.058566    -0.31529    -0.26819   -0.072331
-0.0011985   -0.019712   -0.056416    0.039078    -0.31334     -0.2552   -0.052843
0.0056225  -0.0076946   -0.067784   -0.012567    -0.29905     -0.2435   -0.033679
0.0039985   0.0023744    -0.06616   -0.079477    -0.26657    -0.23798   -0.020362
-0.0021729    0.011144   -0.051219    -0.13827    -0.20583    -0.23863   -0.010293
-0.0083442     0.01764   -0.032705    -0.16945    -0.11845    -0.24221  -0.0028225
-0.010293    0.022188   -0.015165    -0.17075   -0.014516    -0.23863   0.0091954
-0.0047713    0.023487  -0.0018481    -0.15938    0.080653     -0.2172    0.029009
0.008221    0.021538   0.0088706    -0.14996     0.14042    -0.17919    0.050121
0.022512    0.016341    0.020888    -0.12527     0.15601    -0.12982    0.062139
0.036154    0.011794    0.037778   -0.034329     0.13587   -0.072656    0.062789
0.045574    0.011144    0.063438     0.15471    0.084876   -0.013866    0.057267
0.046873    0.014392    0.096569     0.40059    0.012119    0.039727     0.05207
0.036154    0.015692     0.12353     0.61821   -0.079152    0.080003    0.050121
0.012768    0.012119     0.12937     0.73904    -0.17854     0.10469    0.049796
-0.019063   0.0026992     0.11378     0.74196    -0.26462     0.11508    0.045249
-0.050244   -0.011267    0.081952     0.64809    -0.31301     0.11054    0.033231
-0.074605   -0.023285    0.044599     0.49933    -0.32081     0.09397     0.01829
-0.083375   -0.030756   0.0075714     0.33368    -0.30847    0.070909   0.0023744
-0.078178   -0.032055   -0.028807      0.1781    -0.30327    0.049472  -0.0099683
-0.067459   -0.029457   -0.058689    0.044924    -0.31659    0.034206   -0.016464
-0.059664   -0.029782   -0.075904   -0.057065    -0.34679    0.029009   -0.016789
-0.051868   -0.033354   -0.077528    -0.12398    -0.39714    0.038753   -0.010943
-0.035953   -0.035628   -0.061613    -0.15905    -0.45853    0.068635   0.0026992
-0.0083442    -0.03238   -0.030431    -0.17107    -0.51569     0.11606     0.02641
0.028034   -0.022311   0.0091954    -0.17302    -0.54038     0.16835    0.056942
0.061165  -0.0096434    0.044275    -0.17692    -0.50465     0.21025    0.083901
0.079679  0.00042559    0.063438    -0.18471    -0.39714     0.23396     0.10047
0.079029   0.0046481    0.059216    -0.19576    -0.23571     0.23656    0.097868
0.064413  0.00042559    0.032906    -0.20485   -0.063561     0.22292    0.079354
0.044599  -0.0096434   -0.008669    -0.20713    0.073832     0.20343     0.05207
0.029009   -0.019712   -0.050894     -0.2029     0.14724     0.19109    0.025761
0.025436   -0.026858   -0.084999    -0.19478     0.15666     0.19369    0.009845
0.032257   -0.030431    -0.10676    -0.18277     0.11866     0.20863    0.009845
0.044924   -0.032705    -0.11586    -0.16198    0.054993     0.22714     0.01829
0.054668   -0.032705    -0.11358    -0.13177   -0.011267     0.24013    0.021863
0.055643   -0.027833   -0.098965    -0.09117   -0.066485     0.24533    0.017316
0.04395   -0.022636   -0.074605   -0.041475    -0.10221      0.2502    0.009845
0.022837   -0.019063   -0.044398    0.012443    -0.11683     0.25637   0.0072465
-0.0028225   -0.017764   -0.010943    0.061489    -0.10838     0.26384    0.009845
-0.024909   -0.019063    0.024137    0.095919   -0.080776     0.27002    0.016991
-0.0405    -0.02426    0.065712     0.11378   -0.041799     0.27067    0.029658
-0.048945    -0.03173     0.11021     0.12613  -0.0028225      0.2619    0.044275
-0.052193   -0.038876     0.15211     0.14237    0.020888     0.24273    0.054993
-0.04927   -0.043748     0.18232     0.16705     0.01764     0.20895    0.057592
-0.040175   -0.046671     0.19596     0.19726  -0.0080194     0.15958    0.048172
-0.027833   -0.046022     0.18394     0.22259   -0.043099    0.096569    0.028684
-0.017439   -0.043748     0.13782     0.23624   -0.073631    0.030957   0.0052977
-0.012242   -0.042774     0.06084     0.24046    -0.08305   -0.026858   -0.015815
-0.013866   -0.041799   -0.026209     0.23689   -0.063237   -0.063237   -0.026858
-0.019063   -0.037577   -0.092794     0.22584  -0.0099683   -0.074605   -0.027508
-0.02361   -0.026858     -0.1178     0.21447    0.072858    -0.06551   -0.017764
-0.021986   -0.011917   -0.098316     0.20083     0.17355   -0.042774   0.0026992
-0.015815   0.0033489   -0.048296     0.17939     0.27294   -0.012242    0.030308
-0.0073698    0.015042   0.0085458     0.14626     0.35382    0.019914    0.057267
0.00042559    0.023162    0.051096     0.10339     0.40546    0.048497    0.074806
0.0023744    0.028034     0.06961    0.059216     0.43567    0.065712    0.080003
0.0010752    0.028034    0.066037    0.017316     0.47042    0.070584    0.072858
0.00042559    0.025436    0.051745   -0.018088     0.53993    0.071883    0.056942
0.0036737    0.024461    0.037129   -0.043423     0.65914     0.07708    0.036479
0.012119    0.025436    0.029333   -0.054142     0.81764    0.092996    0.020888
0.022512    0.030308    0.025761    -0.04992     0.97322     0.12807    0.016016
0.032257    0.039078    0.022188   -0.031081      1.0716     0.18719    0.023487
0.039078    0.048822    0.015042   -0.007045      1.0833     0.26514    0.039727
0.043625    0.055968   0.0091954     0.01764      1.0103     0.34667    0.056942
0.040377    0.059216   0.0091954    0.037778     0.88065     0.41423    0.066362
0.030633    0.058891    0.017965    0.051096     0.73157     0.44606    0.064088
0.019264    0.056617    0.031932    0.056942     0.59937     0.42592    0.050446
0.012119    0.052395    0.047523    0.057917     0.50777     0.35154    0.029333
0.010819    0.046548     0.06019    0.055318      0.4636     0.23754   0.0078962
0.014392    0.039727    0.063113     0.05142     0.43469    0.098517  -0.0060706
0.022188    0.032257    0.050771    0.047198     0.37103   -0.050569  -0.0089938
0.031282    0.023162    0.024137    0.037778     0.23656    -0.20323  -0.0060706
0.038103    0.010819  -0.0099683    0.022837     0.02706    -0.35199  -0.0015233
0.037778  -0.0028225   -0.047646  -0.0015233    -0.23214    -0.49653 -0.00054884
0.031282   -0.015165   -0.084024   -0.037252    -0.49978      -0.631  -0.0076946
0.019589   -0.023285    -0.11586   -0.086298    -0.73461    -0.74891    -0.01614
0.0072465   -0.027183    -0.14022    -0.14411    -0.89799    -0.83141   -0.022961
-0.0021729   -0.029132    -0.15288    -0.19933     -0.9727    -0.85739   -0.027183
-0.0073698   -0.028157    -0.14736    -0.23798    -0.96328    -0.81289   -0.031406
-0.0057458   -0.023285    -0.11813    -0.25162    -0.90059    -0.70571   -0.035303
0.0010752   -0.013866   -0.069408    -0.23766    -0.81257    -0.55954   -0.037902
0.0088706  -0.0024977   -0.011917    -0.19771    -0.71577    -0.40818   -0.035953
0.012119   0.0091954    0.040377    -0.13892    -0.62678    -0.27826   -0.028482
0.01017    0.018615    0.075781    -0.07493    -0.55889    -0.17919   -0.017764
0.0039985    0.025761    0.089423   -0.017764    -0.52122    -0.11326  -0.0076946
-0.0034721    0.025436    0.083576    0.027385    -0.51667   -0.079477  -0.0011985
-0.0099683    0.020239    0.063438    0.058891    -0.55305   -0.071357   0.0033489
-0.012242    0.013418    0.033881    0.082927    -0.63197   -0.076229   0.0095202
-0.010943    0.008221  0.00075039     0.10274    -0.74111   -0.089546    0.012119
-0.0080194   0.0065969   -0.026858     0.11606     -0.8483    -0.11033   0.0059473
-0.0041217   0.0078962   -0.045697     0.11833      -0.923    -0.13664   -0.007045
0.00042559    0.012768   -0.053492     0.11086    -0.96003     -0.1662   -0.025234
0.0043233    0.020564   -0.052193     0.10242    -0.97627    -0.19348   -0.045047
0.0072465    0.029333   -0.047646    0.092671    -0.98666     -0.2133   -0.063561
0.0056225    0.034855   -0.043423      0.0852    -0.98536    -0.22564   -0.078827
0.00042559    0.034206   -0.042124    0.079679    -0.93177    -0.22597   -0.089221
-0.0099683    0.025436   -0.045047    0.070584     -0.7921    -0.20778   -0.094743
-0.021012    0.011469   -0.054467    0.044924    -0.56896    -0.17432   -0.095717
-0.027508  -0.0015233   -0.069083  -0.0067202      -0.301    -0.13827   -0.090521
-0.029132  -0.0050961   -0.086298   -0.086298   -0.045697     -0.1178   -0.076879
-0.027833  0.00042559    -0.10871    -0.19056     0.15081      -0.123   -0.060313
-0.025884   0.0088706    -0.12982    -0.30392     0.26579    -0.15029   -0.046347
-0.027183    0.015042    -0.14379    -0.40656     0.31386    -0.18569   -0.043748
-0.032055    0.016991    -0.14476    -0.48581     0.32231    -0.21297   -0.050569
-0.035303    0.014717    -0.13145     -0.5433     0.32263    -0.22337   -0.062262
-0.03238    0.015367    -0.10936    -0.58195      0.3379    -0.21882   -0.071682
-0.026209    0.017965   -0.084024    -0.60274     0.37168    -0.20258   -0.075904
-0.022636    0.019589   -0.061937    -0.61021      0.4152    -0.18049    -0.07493
-0.021012    0.020564   -0.046996    -0.60274     0.46035    -0.14996   -0.067134
-0.018088    0.018615   -0.042124    -0.57741     0.49965    -0.10838   -0.055441
-0.013216    0.014717   -0.048296    -0.52869     0.53149   -0.057715   -0.043423
-0.0093186   0.0091954   -0.059989     -0.4556     0.55844  -0.0044465    -0.03173
-0.0099683   0.0056225   -0.069733    -0.36044     0.58475    0.041027   -0.026209
-0.017114   0.0052977   -0.072006    -0.25098     0.60879    0.072858    -0.03173
-0.026858   0.0033489   -0.064211    -0.13762     0.63153    0.093321   -0.040825
-0.038227  -0.0037969   -0.048296   -0.028807     0.64712     0.11183   -0.047321
-0.048945   -0.013216   -0.027508    0.069285     0.64517     0.14367    -0.04927
-0.057065   -0.020362  -0.0057458     0.15244     0.60782     0.20148   -0.049595
-0.057715   -0.018738    0.011794     0.22259     0.52077     0.28788   -0.048296
-0.052518  -0.0093186    0.026085     0.28106     0.39117     0.39247   -0.044073
-0.045047   0.0033489     0.03518     0.32263     0.24273     0.50063   -0.037252
-0.034978    0.016016     0.04395     0.34764     0.11573     0.59417   -0.028807
-0.028482    0.025761     0.05272     0.36324    0.040702     0.66596   -0.021337
-0.024909    0.030957    0.062464     0.37363     0.02706     0.71533   -0.014191
-0.022311    0.030308    0.074482     0.38142    0.059865     0.74294 -0.00054884
-0.019712    0.027709    0.088448     0.38954     0.11703     0.75171    0.017316
-0.014191    0.025111    0.099167     0.39442      0.1742     0.74521    0.037129
-0.0083442    0.022837     0.10047     0.38857      0.2096     0.72767    0.052395
-0.0037969     0.01894    0.091372     0.36908     0.21447     0.69584    0.064088
-0.0021729    0.015692    0.074157      0.3353     0.19174     0.64354    0.070909
-0.0047713    0.012768    0.055643     0.29373     0.15276     0.56819    0.073507
-0.0096434   0.0091954    0.042651     0.24955     0.11248      0.4714    0.075456
-0.011917   0.0069217    0.039402     0.20895    0.073182     0.35674    0.082602
-0.008669   0.0088706    0.042651     0.17939    0.031932     0.23429     0.09462
-0.0015233     0.01764    0.049147     0.16348   -0.012567     0.11346     0.11378
0.008221    0.029009    0.055643     0.15958   -0.046996  -0.0060706     0.13879
0.015692     0.03518    0.056292      0.1638   -0.055116      -0.123     0.16153
0.015367    0.032257    0.053369     0.17387   -0.028807    -0.23766     0.17225
0.008221    0.022188    0.050771     0.19141    0.030308    -0.34907     0.16413
-0.00054884    0.011469    0.047523     0.21967     0.10469    -0.45106     0.13944
-0.0050961   0.0052977    0.047198     0.25507      0.1742    -0.53453     0.10339
-0.0050961   0.0043233    0.046548     0.28626     0.22422    -0.59105    0.063763
-0.0031473   0.0049729    0.049147     0.30282     0.25183    -0.61931    0.029009
0.0020496   0.0036737     0.05207     0.29633     0.25995    -0.62613   0.0059473
0.008221   0.0033489    0.051745     0.26644     0.24858    -0.61866  -0.0028225
0.014717   0.0036737    0.047847     0.22194     0.21935    -0.60079  -0.0031473
0.016991   0.0023744    0.040052     0.17095     0.17582    -0.57546  0.00042559
0.015367  -0.0044465    0.029983     0.11541     0.13067    -0.54785   0.0036737
0.015367   -0.014191    0.022188    0.052395    0.087799    -0.51797      0.0014
0.015042   -0.020687    0.019914   -0.015815    0.046548    -0.47996  -0.0057458
0.011794    -0.02361    0.023812   -0.081751 -0.00087364     -0.4202   -0.013216
0.0039985   -0.022961    0.032582    -0.13989   -0.050569    -0.33997   -0.017439
-0.011267   -0.022636    0.041351    -0.17984    -0.10189     -0.2539   -0.017439
-0.029132   -0.024909     0.04395    -0.19283    -0.15223    -0.17887   -0.018413
-0.045047   -0.029132    0.039078    -0.17692    -0.20648    -0.12755   -0.024585
-0.053492   -0.035628    0.034206    -0.13437    -0.27274    -0.09929   -0.036927
-0.055116   -0.042124    0.032906   -0.074605    -0.35654   -0.081751    -0.04862
-0.053168   -0.044073    0.038428   -0.010618    -0.45625   -0.064211   -0.053817
-0.050569   -0.043099    0.046548    0.047198    -0.55759   -0.040825    -0.04992
-0.046996    -0.04115    0.047198    0.088124    -0.63685   -0.013866   -0.042449
-0.038551   -0.038227    0.029658    0.098842     -0.6664    0.013418   -0.038227
-0.023285   -0.033679   -0.007045    0.075131    -0.61866    0.036479   -0.038227
-0.0031473   -0.028807   -0.050569    0.028359    -0.48744    0.056292   -0.042124
0.014717   -0.024909   -0.090521   -0.021012    -0.29255    0.075456    -0.04992
0.02706   -0.019063    -0.11878    -0.05739   -0.073631    0.097868   -0.058689
0.031932   -0.013216    -0.13275   -0.069083     0.11606     0.12223   -0.065835
0.032906   -0.008669    -0.13015   -0.053168     0.22682     0.14302   -0.068758
0.030308  -0.0063954    -0.11618    -0.01614     0.24241     0.15536   -0.067134
0.030308  -0.0054209    -0.09929    0.025761     0.18004     0.15893   -0.062912
0.036804  -0.0063954   -0.085648    0.061814    0.089098     0.15666   -0.052843
0.048497  -0.0050961   -0.072331    0.090072    0.025436     0.15341    -0.04115
0.064088 -0.00087364   -0.050569     0.11411    0.026085     0.15114   -0.027833
0.080328   0.0075714   -0.020687      0.1362    0.083251     0.15211   -0.015165
0.090072    0.020564   0.0095202     0.14984     0.16218     0.15114  -0.0037969
0.090397    0.031932    0.031932     0.14367     0.21285     0.14302   0.0010752
0.081303     0.03583    0.045249     0.10761     0.20473      0.1271  -0.0024977
0.065387    0.029333    0.048822    0.040702     0.15016     0.10664   -0.013866
0.044275    0.014717    0.039402   -0.046671    0.086824    0.087474   -0.029457
0.020564 -0.00087364    0.020239    -0.13957    0.044275    0.079029   -0.038876
-0.0028225   -0.011917  0.00010078    -0.22532    0.037454    0.084226   -0.039526
-0.019388   -0.019063    -0.01484    -0.28898    0.067011    0.097868   -0.029782
-0.02361   -0.022311    -0.02361    -0.32308     0.12645     0.11898    -0.01614
-0.017114   -0.020687   -0.029782    -0.33055     0.20408     0.14074  -0.0037969
-0.007045   -0.014191    -0.03173    -0.31983     0.28691     0.15796   0.0049729
0.0020496  -0.0093186   -0.029457    -0.29775     0.36324      0.1651   0.0085458
0.0049729  -0.0096434   -0.024909    -0.26884     0.42722     0.16315   0.0088706
0.0056225    -0.01484   -0.021012    -0.23766     0.46977     0.14756   0.0065969
0.0062721   -0.021986   -0.017764     -0.2068     0.48049     0.12093   0.0078962
0.0078962   -0.023285    -0.01484    -0.17497      0.4571    0.092021    0.015042
0.008221   -0.018738   -0.010943    -0.14022     0.40611    0.064413     0.01829
0.0052977   -0.011267   -0.010618    -0.10286     0.33303    0.042651   0.0091954
-0.0031473  -0.0037969   -0.017114   -0.064211     0.24273    0.023162   -0.010943
-0.018413      0.0014   -0.030431   -0.029457     0.13522   0.0036737   -0.034978
-0.036278 -0.00054884   -0.046022  -0.0060706    0.018615   -0.011917   -0.053168
-0.050569  -0.0099683   -0.058365  -0.0018481   -0.077528   -0.021661   -0.059014
-0.057065   -0.020687   -0.063237   -0.024909    -0.13145    -0.02361   -0.051868
-0.054792   -0.026209   -0.061937   -0.068758    -0.14964   -0.015165   -0.037577
-0.046022   -0.022311   -0.053492    -0.11391    -0.17302    0.003024   -0.021012
-0.032055   -0.010618   -0.039201    -0.14249    -0.24383     0.02641   -0.007045
-0.018088   0.0036737   -0.022961    -0.14606    -0.38447    0.042001   0.0020496
-0.0067202    0.013418   -0.013541     -0.1243    -0.58553    0.041351   0.0033489
-0.0021729    0.015042   -0.012892   -0.085648    -0.80997    0.022837  -0.0018481
-0.0060706   0.0095202    -0.01484   -0.041475     -1.0097  -0.0021729  -0.0080194
-0.016464 -0.00054884   -0.015815 -0.00022403     -1.1562   -0.022636  -0.0073698
-0.030106   -0.012567   -0.016789     0.03518      -1.242   -0.036602   0.0033489
-0.042449    -0.02426   -0.022311    0.057267     -1.2566   -0.042124    0.019914
-0.048945   -0.033354   -0.035628    0.063763     -1.1919   -0.042449    0.033881
-0.051868   -0.038227   -0.056091    0.055643     -1.0468   -0.044398    0.039078
-0.053492     -0.0405   -0.081751    0.042001    -0.83855   -0.052518    0.039078
-0.051544   -0.039201    -0.10741    0.030308    -0.59982   -0.061288    0.040702
-0.044398   -0.037902    -0.12852    0.026085    -0.36498   -0.064536    0.047847
-0.030756   -0.034978    -0.14346    0.029658    -0.16425   -0.062912     0.05142
-0.016789   -0.028482    -0.15061    0.039727   -0.018738   -0.059339    0.047523
-0.0037969   -0.020037    -0.15288    0.050771    0.067011   -0.051868    0.039402
0.0056225   -0.012242    -0.14866    0.060515     0.10079   -0.045047    0.031932
0.011794   -0.007045    -0.13989     0.06896    0.099817   -0.044398    0.026735
0.013418  -0.0057458    -0.12463    0.079354    0.073182   -0.051868     0.01829
0.011794  -0.0083442    -0.10384    0.092671    0.028034   -0.063237   0.0065969
0.0062721   -0.012892   -0.076554     0.10501   -0.026209   -0.075579  -0.0057458
-0.0011985   -0.019712   -0.046996     0.10729   -0.065186   -0.081751   -0.014516
-0.010943   -0.024585   -0.021986    0.095269   -0.061613   -0.077528   -0.013541
-0.018088    -0.02361  -0.0021729    0.064737  -0.0037969   -0.058689  -0.0031473
-0.019388   -0.018088    0.014068    0.020239    0.094945   -0.022311     0.01017
-0.011267   -0.011267    0.032906   -0.030431     0.20376    0.028034    0.021863
0.0014  -0.0083442    0.057267   -0.081426     0.29633    0.084226    0.029333
0.011469   -0.010618    0.088124    -0.12333     0.35317      0.1323    0.031607
0.016016    -0.01549     0.11638    -0.14736      0.3733     0.16283    0.032906
0.014068   -0.018413     0.13587    -0.15223     0.35674     0.17615    0.031282
0.0049729   -0.019063     0.13879    -0.14216     0.29892     0.17745    0.023812
-0.0073698   -0.018413     0.12743    -0.12203     0.20993      0.1664    0.013743
-0.018413   -0.014191     0.10826   -0.095717     0.11281     0.15276   0.0026992
-0.021986  -0.0044465    0.088448   -0.069408    0.031282     0.13555  -0.0067202
-0.014516   0.0043233    0.075456   -0.043423   -0.020687     0.11541    -0.01484
-0.0031473    0.010819    0.064737   -0.022636   -0.033679    0.092346   -0.020687
0.0075714    0.012119    0.055968   -0.008669  -0.0015233    0.060515   -0.025884
0.01017   0.0078962    0.051096   0.0017248    0.068635    0.021863   -0.032055
0.003024 -0.00022403    0.054344   0.0078962     0.15536   -0.021986   -0.040175
-0.010943  -0.0089938    0.064088    0.011469     0.23916   -0.067784   -0.050244
-0.026858   -0.010618    0.075131    0.014392     0.30802    -0.11293   -0.059339
-0.039201  -0.0041217    0.083576    0.021538     0.35674    -0.15093   -0.066485
-0.039526   0.0052977    0.090072     0.03583     0.38565    -0.17627   -0.067459
-0.024909    0.012119     0.09397    0.056617     0.39669    -0.19283   -0.059014
-0.0028225    0.015692    0.092671    0.079679     0.39214    -0.20583    -0.04115
0.019914     0.01894    0.087474     0.10306     0.37558    -0.22369   -0.019388
0.034206    0.023487    0.081952     0.12743     0.33693    -0.25195  -0.0031473
0.036804    0.029658    0.078379     0.15146     0.26482    -0.29028   0.0039985
0.030633    0.036479    0.072533     0.17387     0.15438    -0.33575   0.0020496
0.021863    0.041027    0.066037     0.19304    0.029009    -0.37538  -0.0015233
0.014392    0.041351    0.059865     0.21123   -0.070707    -0.39551  -0.0018481
0.0088706    0.040052    0.054993     0.23396    -0.11001    -0.39259   0.0072465
0.0085458    0.039727    0.049147      0.2554   -0.085648    -0.37148     0.02706
0.012768    0.041027    0.042326     0.27196   -0.023285     -0.3377    0.054668
0.020564    0.044599    0.034206     0.27651    0.033881    -0.30035    0.079354
0.029658    0.046873    0.029983     0.26677     0.04395    -0.26072    0.095919
0.036154    0.044275    0.032257     0.24403   -0.017114    -0.21232     0.10469
0.037778    0.040702    0.035505     0.20635    -0.14281    -0.15029     0.10794
0.034855     0.03583    0.032257     0.15698    -0.29775   -0.077528     0.10891
0.029658    0.032257     0.01894    0.099492    -0.43871  -0.0060706     0.10469
0.026085    0.031607   0.0023744    0.038103    -0.52771    0.050446    0.095269
0.028034    0.031607   -0.011917   -0.025559    -0.53453    0.082927    0.080003
0.033231    0.030308   -0.022636   -0.085973    -0.45593    0.090722    0.060515
0.040377    0.027385   -0.031081    -0.14022    -0.31204    0.083576    0.037454
0.042326     0.02641   -0.038551    -0.17919    -0.14379    0.071234     0.01017
0.038428    0.025111    -0.04862    -0.19836    0.012443    0.065387   -0.016789
0.029009    0.024461   -0.062262    -0.20096     0.13262    0.072533   -0.035628
0.017316    0.024137   -0.076879    -0.18959     0.21188    0.089423   -0.043748
0.0059473    0.024461   -0.092794    -0.16653     0.25183     0.10891   -0.040825
-0.0034721     0.02706    -0.10319    -0.13567     0.26222     0.11898    -0.03238
-0.0089938    0.030308    -0.10351    -0.10091     0.25995     0.11248   -0.025884
-0.0076946    0.030308   -0.097991   -0.070058     0.25897    0.094295   -0.022961
-0.0028225    0.028684   -0.094093    -0.04992     0.25865    0.073832   -0.020687
0.0033489     0.02641   -0.097666    -0.04115     0.24663    0.056617   -0.013216
0.0039985    0.022837    -0.10416   -0.044073     0.22065    0.044924   0.0036737
-0.0037969    0.014717    -0.11326   -0.055116     0.18687     0.03453    0.023487
-0.014516   0.0023744    -0.12268   -0.072656     0.15828     0.01764    0.036154
-0.021661  -0.0073698     -0.1321   -0.095393     0.14756   -0.012892    0.038428
-0.024909   -0.014191    -0.14249     -0.1243     0.16218   -0.059014    0.029009
-0.025234   -0.020362    -0.15256    -0.15905     0.20863    -0.11521    0.012768
-0.028157   -0.022311    -0.15905    -0.19641     0.29568    -0.17302   -0.008669
-0.03238   -0.018738     -0.1636    -0.23733     0.42268    -0.22207   -0.029457
-0.034329   -0.010618    -0.16588    -0.27274     0.57728    -0.25065   -0.046347
-0.026858  0.00010078     -0.1662    -0.29125     0.73417    -0.25292   -0.056741
-0.011592    0.010819    -0.16198     -0.2932     0.85142    -0.22921   -0.060313
0.0046481     0.01894    -0.15191    -0.27761     0.90372    -0.19056   -0.060963
0.015042    0.026735    -0.13664     -0.2487     0.86636    -0.14411   -0.055766
0.014068    0.033556    -0.11683    -0.21005     0.72182   -0.095068   -0.041799
0.0052977    0.037129   -0.095393    -0.16295     0.47075   -0.046022   -0.022961
-0.0060706     0.03518   -0.075904    -0.10514     0.14334  -0.0034721  -0.0076946
-0.01549    0.031607   -0.053492   -0.038876    -0.19024    0.029009  -0.0011985
-0.020362    0.026735   -0.030431    0.024786    -0.44521    0.053694  -0.0060706
-0.021661    0.021538  -0.0089938    0.074806    -0.55629    0.072858   -0.020362
-0.022636    0.016341   0.0056225     0.10371    -0.51992    0.087149    -0.03303
-0.025884    0.013418    0.011469     0.10859    -0.39032    0.094945   -0.035628
-0.031406    0.012443   0.0088706    0.087799    -0.24383    0.099167   -0.028482
-0.034978    0.011144   0.0049729    0.047523    -0.14087     0.10534   -0.015815
-0.031406     0.01017   0.0075714   0.0010752    -0.10709     0.11508 -0.00087364
-0.020037    0.010495    0.018615   -0.035303    -0.14476     0.12353    0.012768
-0.0060706     0.01017     0.03518   -0.051219    -0.24091     0.12807    0.026085
0.0023744    0.011469     0.05207   -0.045047    -0.36726     0.12418    0.033231
0.0017248    0.012119    0.066362   -0.018088    -0.49166     0.10891    0.033881
-0.0057458    0.013093    0.078704     0.01829    -0.58715    0.087474    0.028684
-0.013866    0.012768    0.091047    0.054993    -0.62905    0.070909    0.022837
-0.022636    0.011144     0.10664    0.090072    -0.61086    0.065712    0.023487
-0.034978    0.008221     0.12255     0.12483    -0.54265     0.06961    0.028034
-0.052193      0.0014     0.13555     0.15633    -0.44099    0.071234    0.030633
-0.072331  -0.0089938     0.14302     0.18427    -0.32471    0.059541    0.026735
-0.090521   -0.020362     0.14399     0.20733    -0.21427     0.02641    0.013743
-0.10091   -0.029782     0.14042     0.22227    -0.12235   -0.026209  -0.0073698
-0.098316   -0.033679     0.13067     0.23104   -0.052518    -0.09182   -0.027183
-0.088572   -0.030106     0.11541     0.23591  -0.0060706    -0.15548    -0.04115
-0.074605   -0.020362    0.096893     0.23526    0.012119    -0.20225    -0.04992
-0.059339  -0.0076946    0.083576     0.23039  -0.0034721    -0.22174   -0.054467
-0.045697   0.0065969    0.074806     0.22129    -0.05804    -0.21395   -0.053492
-0.039851    0.017965    0.065712     0.20538    -0.14087    -0.18731   -0.048945
-0.040825    0.020564    0.056292     0.18102    -0.23116    -0.15256   -0.043748
-0.043748    0.015692    0.047847     0.14756    -0.31042    -0.11878   -0.039526
-0.0405   0.0088706    0.044275     0.11118    -0.36953   -0.088572   -0.036927
-0.028807   0.0046481    0.046548    0.080978    -0.39876   -0.059014   -0.031081
-0.010293   0.0046481    0.053369    0.064088    -0.38967   -0.028157   -0.023935
0.0062721    0.008221    0.058566    0.058241    -0.35232  0.00010078   -0.017764
0.014392    0.014717    0.061165    0.062139    -0.30587    0.021213   -0.013866
0.015367    0.022512    0.062464    0.074157    -0.26884    0.034855  -0.0073698
0.016341    0.025761    0.063763    0.091696    -0.24578    0.045574  0.00010078
0.026085    0.022512    0.063438     0.10566    -0.23344    0.058241   0.0085458
0.044275    0.014068    0.061489     0.10859    -0.23084    0.072208    0.012443
0.061814   0.0072465    0.057592     0.10209    -0.23701    0.083251   0.0075714
0.068635   0.0078962    0.048497    0.092346     -0.2487    0.089748  -0.0054209
0.062464    0.012443    0.029983    0.083576    -0.26332    0.090397    -0.02426
0.048172    0.017316   0.0052977    0.077405    -0.27761    0.084551   -0.043423
0.034206    0.019264   -0.017764    0.070909    -0.29028    0.080003   -0.059014
0.026085    0.018615   -0.033354    0.058891    -0.29385    0.077405   -0.068758
0.021863    0.016341     -0.0405    0.042326    -0.27956    0.082277   -0.072006
0.01764    0.011144   -0.041799    0.021863    -0.23831    0.091696   -0.068109
0.011469   0.0065969   -0.045047 -0.00054884    -0.16165     0.10079   -0.062912
0.0023744   0.0020496   -0.054792   -0.028807   -0.040825     0.10631   -0.058365
-0.0083442  -0.0024977   -0.071682   -0.059989     0.11703     0.10436   -0.053168
-0.01614  -0.0037969   -0.090196   -0.090521     0.28658    0.091047    -0.04862
-0.01549  -0.0050961    -0.10514    -0.11326     0.42625    0.067986   -0.043748
-0.0093186  -0.0073698    -0.11196    -0.12365      0.5133    0.039727   -0.039526
-0.0024977   -0.013541    -0.10968    -0.11813     0.55162    0.019264   -0.034004
0.00010078   -0.020362    -0.10026    -0.10189     0.55617    0.015367   -0.021986
0.0014   -0.025559   -0.090521   -0.080776     0.53863    0.026735  -0.0037969
0.0033489   -0.028157   -0.084999   -0.058689     0.50258    0.047198     0.01764
0.0069217   -0.029782   -0.078827   -0.035628     0.44834     0.06896    0.036154
0.011469   -0.030431   -0.070382   -0.010293     0.37915    0.083576    0.045899
0.015692   -0.032055   -0.056091    0.016016     0.30055    0.093321    0.047847
0.01764   -0.034978   -0.037252    0.036804     0.22065     0.10274    0.048172
0.01764   -0.038876   -0.020037    0.046548     0.14172     0.11151    0.049147
0.016991    -0.04115   -0.010618    0.047523    0.065062     0.11671    0.050446
0.017965   -0.040825  -0.0089938    0.043625  0.00075039     0.11703    0.050771
0.019264   -0.038227   -0.015165     0.03453   -0.044073     0.11054    0.048497
0.017316   -0.036602   -0.028807    0.021538   -0.062912    0.099492    0.046223
0.009845   -0.036602   -0.046996   0.0088706   -0.059014    0.082602    0.044275
-0.0024977   -0.038876   -0.064536   0.0026992   -0.038551     0.06084    0.038753
-0.017114   -0.041475   -0.076554   0.0052977  -0.0060706    0.034855    0.030633
-0.032705   -0.046671   -0.083375    0.013093    0.029658   0.0085458    0.021538
-0.042124   -0.051544   -0.082076    0.021538     0.06019   -0.015815    0.015692
-0.042449   -0.054792   -0.069083    0.029658    0.076431   -0.035303   0.0049729
-0.035303   -0.053817   -0.042124    0.042326    0.074157   -0.048296   -0.010293
-0.026858    -0.04862  -0.0057458    0.061165    0.056292   -0.054467   -0.026209
-0.017439   -0.041475    0.035505    0.082602    0.029333   -0.052518   -0.038227
-0.008669   -0.034329    0.075781    0.096893   0.0023744   -0.042124   -0.042124
