0.011794     0.02706    0.042651    0.019589    -0.30294     0.14237    0.015367
0.027709    0.042651    0.074806   -0.038551    -0.26592     0.14237    0.026085
0.045574    0.055318    0.097543   -0.097341    -0.20713     0.13555    0.029983
0.064737    0.062464     0.10859    -0.10579    -0.13015      0.1232    0.028684
0.082927    0.066362     0.10631   -0.031081   -0.045697     0.10631    0.025111
0.09462     0.06831    0.093321     0.10274     0.02706    0.089423    0.025761
0.095919    0.064088    0.072533     0.23429    0.064413    0.070584    0.023812
0.082602    0.054019    0.051745     0.30899    0.054019    0.047523     0.01894
0.060515    0.040052    0.032906     0.30704  -0.0024977     0.01829   0.0095202
0.041027    0.025761    0.013093     0.23559   -0.081426   -0.017439  -0.0034721
0.029009    0.014717   -0.007045      0.1258    -0.15158   -0.048296   -0.018738
0.01894   0.0059473   -0.022311    0.016016    -0.18601   -0.065835   -0.033354
0.008221  -0.0015233   -0.030106    -0.06551    -0.17367   -0.063237   -0.045372
-0.0024977  -0.0099683    -0.03303    -0.10741     -0.1256   -0.044073    -0.04992
-0.012567   -0.016464   -0.035303    -0.11358   -0.067784   -0.018413   -0.047971
-0.021337   -0.018738   -0.036278   -0.095393    -0.02426    0.009845   -0.042449
-0.026858   -0.018088   -0.035953    -0.06616   -0.011592    0.032906   -0.037252
-0.027183   -0.014516   -0.030756   -0.037252   -0.027833    0.046873   -0.033679
-0.022636   -0.011592   -0.021012   -0.017114   -0.064211    0.053694   -0.035628
-0.01549  -0.0076946  -0.0057458  -0.0080194    -0.10351    0.058241   -0.039851
-0.012242  -0.0034721    0.014392   -0.010293    -0.13469    0.067661   -0.043748
-0.012892 -0.00022403    0.029009   -0.018738    -0.15873    0.084226   -0.043423
-0.014191  -0.0024977    0.032257    -0.03238    -0.17854     0.10371   -0.039526
-0.012892   -0.010943    0.023162   -0.051868    -0.19413     0.12028   -0.029782
-0.0073698   -0.019388     0.01017   -0.072656    -0.20648     0.13327   -0.018738
-0.00087364    -0.02426  -0.0044465   -0.089221    -0.22402     0.14107   -0.012567
0.00010078   -0.023285   -0.019712    -0.10286    -0.25715     0.14496   -0.014191
-0.012892   -0.018088   -0.035303    -0.11423    -0.30067     0.14367   -0.019063
-0.039201   -0.013866    -0.04927    -0.12495    -0.33575     0.13522   -0.027508
-0.065186    -0.01484   -0.060313    -0.13047    -0.32925     0.11703     -0.0405
-0.081751   -0.019712    -0.06616     -0.1243    -0.26039    0.088773   -0.055766
-0.087597    -0.02426   -0.065835   -0.098965    -0.13145    0.053044   -0.070707
-0.085973   -0.025884   -0.056091   -0.059339    0.035505     0.01764   -0.081101
-0.077853   -0.021661   -0.037252   -0.013541     0.20733   -0.010293   -0.090196
-0.065186   -0.014516   -0.013866     0.02641     0.35641   -0.025559    -0.10026
-0.048945  -0.0060706   0.0085458    0.056942     0.45938    -0.03238    -0.10936
-0.034978   0.0010752    0.024137    0.079679     0.49933   -0.034004    -0.11326
-0.023935   0.0046481    0.028359    0.099492     0.47984   -0.039851    -0.10676
-0.017764   0.0056225    0.017316     0.11183     0.41391   -0.050569   -0.092145
-0.012242   0.0069217  -0.0057458     0.10566     0.31614   -0.063237   -0.071032
-0.0021729   0.0085458   -0.029782    0.075131     0.18946   -0.071357   -0.043748
0.013093   0.0088706   -0.052518    0.022512    0.027385   -0.072331   -0.013541
0.029333   0.0075714   -0.071032     -0.0405    -0.17335   -0.068434    0.013743
0.044924    0.012443   -0.075904   -0.088896    -0.40039   -0.061613     0.03453
0.061165     0.02706   -0.053817   -0.087597    -0.62353   -0.052193    0.050121
0.07773    0.050771  -0.0047713   -0.025234    -0.81192   -0.044723    0.061165
0.088448    0.073507    0.056292    0.067661    -0.94671   -0.041799    0.065712
0.088773    0.083251     0.10112      0.1206     -1.0325   -0.042449    0.063113
0.079354    0.074482     0.10924    0.073507     -1.0857   -0.044723    0.057592
0.065062     0.05207     0.07708   -0.087597     -1.1302   -0.046671    0.049472
0.05142    0.020888    0.015367    -0.30749     -1.1845   -0.046996    0.040702
0.037454   -0.011267   -0.055766     -0.5014     -1.2504   -0.044723    0.030308
0.023487   -0.039526    -0.12235    -0.60891     -1.3241   -0.037577    0.021863
0.009845   -0.057715     -0.1701    -0.61833     -1.4034   -0.023285    0.017965
0.00042559   -0.066485    -0.19576    -0.54493     -1.4716  -0.0028225     0.01894
-0.0060706   -0.067784    -0.20355    -0.42702     -1.4862    0.013743    0.025436
-0.012242   -0.061288    -0.19641    -0.31659     -1.3881    0.017316    0.030308
-0.017439   -0.048945    -0.17822     -0.2487     -1.1478   0.0033489    0.030957
-0.021337   -0.039526    -0.15353    -0.22467    -0.78171   -0.022311    0.024786
-0.026533   -0.034978    -0.12463     -0.2055    -0.35394    -0.04927    0.012768
-0.029457   -0.032705   -0.093119    -0.14574    0.048497    -0.06616  -0.0028225
-0.030756   -0.028482   -0.059989   -0.021661     0.35187   -0.072981   -0.017764
-0.030431   -0.021012   -0.029457     0.15211     0.51882   -0.074605   -0.028482
-0.030431   -0.012892  -0.0044465     0.33985      0.5539   -0.075904    -0.03238
-0.030756  -0.0044465    0.012119     0.50063     0.49316   -0.080451   -0.029132
-0.030756   0.0020496    0.017965     0.60067     0.38142   -0.088896   -0.020037
-0.029782   0.0059473    0.012443     0.62373     0.25897    -0.09994  -0.0076946
-0.028482   0.0056225 -0.00087364     0.57404     0.16543    -0.11326   0.0026992
-0.030106  -0.0011985    -0.01484     0.47464     0.12678    -0.13307   0.0085458
-0.037252   -0.011592   -0.025234     0.35771     0.14399    -0.15808     0.01017
-0.044723   -0.021661   -0.030106     0.25475     0.20798    -0.18212   0.0075714
-0.04927   -0.029457   -0.027833     0.18134     0.31451    -0.19219   0.0049729
-0.047971   -0.028157   -0.018738     0.14237     0.45158    -0.18147   0.0052977
-0.043099   -0.021661  -0.0093186      0.1323     0.60392    -0.15321    0.010819
-0.038551   -0.011592  -0.0057458      0.1258     0.75853    -0.11456    0.020888
-0.03303  -0.0011985   -0.010943     0.10339     0.91898   -0.072006    0.032257
-0.025234    0.011794   -0.018413    0.058566      1.0856   -0.027833    0.045249
-0.016789    0.023162   -0.018738   0.0046481       1.249    0.014717    0.054668
-0.012567    0.028359   -0.012242   -0.038551      1.3913    0.048497    0.059216
-0.01484    0.026735  -0.0050961   -0.056091      1.4955    0.067661    0.057267
-0.019712    0.025761 -0.00087364   -0.040825      1.5524    0.070584    0.049796
-0.023935    0.025436   0.0010752 -0.00022403      1.5556    0.059865    0.036154
-0.023285    0.024461   0.0072465    0.040702      1.5088    0.041027     0.01894
-0.021012    0.021538    0.022512    0.055643       1.428     0.01764   0.0033489
-0.020687    0.015692    0.040052     0.03583      1.3416  -0.0060706  -0.0057458
-0.02361    0.012768    0.055318  -0.0050961      1.2769   -0.026209  -0.0080194
-0.032055    0.011794    0.057267   -0.046671      1.2389   -0.039201  -0.0054209
-0.043099    0.008221    0.046223   -0.068109       1.199   -0.045697  -0.0044465
-0.053817   0.0010752    0.026735   -0.064536      1.0882   -0.045047  -0.0037969
-0.060963  -0.0047713   0.0075714   -0.044073     0.80335   -0.042124  -0.0018481
-0.064861  -0.0083442  -0.0041217   -0.017114     0.26904   -0.041799   0.0023744
-0.066485  -0.0073698  -0.0057458    0.003024    -0.45528   -0.043748    0.008221
-0.06681  -0.0031473   0.0017248   0.0085458     -1.1588   -0.045697     0.01017
-0.065186 -0.00022403    0.013093   0.0017248     -1.6226   -0.043423   0.0059473
-0.059014  0.00042559    0.023487   -0.011267     -1.7214   -0.035953  -0.0015233
-0.045372  -0.0015233    0.028684   -0.024585     -1.4752   -0.022311  -0.0031473
-0.026858  -0.0041217    0.029333   -0.035953     -1.0172  -0.0028225   0.0049729
-0.0057458  -0.0083442    0.026085   -0.043423    -0.51829     0.01894    0.021538
0.015042   -0.013866    0.021863   -0.046022    -0.11131    0.038103    0.038753
0.033231    -0.01614    0.019264   -0.047646     0.14951    0.049472    0.051745
0.042651   -0.016464    0.016341   -0.049595     0.27359    0.049472    0.053369
0.042001    -0.01484    0.015367   -0.050569      0.2999    0.038103    0.045249
0.03518   -0.011917     0.01894   -0.051219     0.27067    0.017316    0.028034
0.027709  -0.0047713    0.028684    -0.04992      0.2174  -0.0041217   0.0056225
0.024137   0.0046481    0.041676   -0.046347     0.15601   -0.017764   -0.016464
0.02641    0.012768    0.054993    -0.04115    0.082927   -0.019388   -0.038227
0.029983    0.016991    0.063113   -0.035953  -0.0054209   -0.013216   -0.055766
0.030633    0.015042    0.061489   -0.037902    -0.10416  -0.0080194   -0.063886
0.028684     0.01017    0.046548   -0.055441    -0.21167   -0.016464   -0.062262
0.027709   0.0046481    0.024137   -0.093444    -0.32958   -0.042124   -0.055441
0.023487  0.00042559   0.0026992    -0.14834    -0.44261   -0.079802   -0.047321
0.012768  -0.0037969   -0.010293    -0.20778    -0.53063    -0.11715   -0.042124
-0.0067202   -0.010293   -0.015165    -0.24935    -0.57806    -0.14671   -0.043748
-0.024909    -0.01614   -0.014516    -0.26267     -0.5969    -0.16588   -0.051868
-0.036602    -0.01614   -0.013216    -0.25942    -0.61606      -0.174   -0.060963
-0.040825   -0.011917  -0.0096434    -0.25585    -0.65471     -0.1753   -0.063886
-0.037902  -0.0037969  -0.0047713    -0.24415    -0.70246    -0.17042   -0.054792
-0.027183   0.0059473   0.0069217    -0.19251    -0.71837    -0.15516   -0.037252
-0.011592    0.018615    0.023487   -0.077853    -0.65763    -0.12755   -0.018413
0.003024    0.032582    0.040052     0.07708    -0.50855   -0.094093  -0.0076946
0.011794      0.0433    0.051745     0.21837     -0.2971   -0.063886  -0.0093186
0.011794    0.047523    0.051096     0.28528   -0.076554   -0.043099   -0.018738
0.0062721    0.041027    0.037454     0.23039    0.096569   -0.035628   -0.025234
-0.00087364    0.025436    0.014068    0.049796     0.18427   -0.035628   -0.024585
-0.0096434   0.0069217   -0.012567    -0.21232     0.18784   -0.030756   -0.018413
-0.014516  -0.0041217   -0.036927    -0.48451      0.1349   -0.017114  -0.0083442
-0.012892  -0.0067202   -0.054792    -0.70473    0.065062   0.0059473   0.0026992
-0.0080194  -0.0044465   -0.063237    -0.82296     0.01894    0.030957    0.012443
0.0039985   0.0010752   -0.052518    -0.76644    0.028684    0.053694    0.021538
0.025436    0.011469   -0.011917    -0.44586     0.10729    0.073182    0.028359
0.054019    0.027385    0.049147     0.12418     0.24825    0.093645    0.036479
0.077405     0.04395     0.11054     0.75138     0.41358     0.11086    0.045574
0.084876     0.05207     0.15146      1.2009        0.55     0.12483    0.051745
0.076755    0.049147     0.16185      1.3474     0.61464      0.1336    0.053369
0.061489    0.037129     0.13977      1.2094     0.59352     0.13814    0.050121
0.045249    0.018615    0.098193     0.90566     0.50875     0.13684    0.045574
0.030308  -0.0011985    0.050121     0.57793     0.39864     0.12937    0.040702
0.016666   -0.015165   0.0052977     0.32296     0.29178     0.11476    0.031282
0.0062721   -0.022961   -0.030756     0.16413     0.19888    0.097868    0.016666
0.0014   -0.027183   -0.053492    0.072858     0.11573    0.081303   0.0017248
0.0014   -0.032055   -0.064861   0.0026992    0.024786    0.067011  -0.0054209
0.0026992   -0.036602   -0.070382   -0.081426   -0.088247    0.054344  -0.0054209
0.00042559   -0.035953   -0.071682    -0.17952    -0.22597    0.042651 -0.00054884
-0.0037969   -0.032705   -0.069083    -0.27014    -0.37278    0.028684   0.0065969
-0.0060706   -0.030431   -0.067134     -0.3351    -0.50465    0.011469    0.013743
-0.0044465   -0.031081   -0.064211    -0.34549    -0.60079   -0.011592     0.01829
0.0017248   -0.030106   -0.056416    -0.26592    -0.63522   -0.035303    0.019264
0.009845    -0.02361   -0.034004   -0.097017    -0.58455   -0.054792    0.016991
0.01829   -0.014191 -0.00022403     0.11118    -0.44326   -0.065186    0.013093
0.024137  -0.0050961    0.039402      0.2947    -0.23084   -0.067784    0.011144
0.024786  0.00075039    0.071883     0.40156    0.016341   -0.068434     0.01017
0.020239   0.0010752      0.0852     0.41878      0.2489   -0.073306    0.010819
0.008221  -0.0063954    0.076755     0.36194      0.4204   -0.082076    0.011469
-0.0080194   -0.016789    0.050771     0.26774     0.50388   -0.097666    0.012119
-0.021661   -0.024909    0.016666     0.17192     0.50713     -0.1178    0.012443
-0.024585   -0.026209   -0.019063    0.097218      0.4597    -0.13632    0.013093
-0.016464   -0.021012   -0.046347    0.044924     0.39604    -0.14801    0.016016
-0.0041217    -0.01484   -0.060963   0.0075714      0.3366    -0.14964    0.022512
0.0065969  -0.0096434   -0.064536   -0.026209     0.28756    -0.13957    0.031607
0.014068  -0.0083442   -0.061613   -0.054142     0.24111    -0.11293    0.043625
0.018615  -0.0099683   -0.054467    -0.07493     0.19369   -0.077203    0.054019
0.021538   -0.014516   -0.049595   -0.089871     0.14302   -0.044723    0.057592
0.023812   -0.021661   -0.048296   -0.098641    0.099492   -0.020687    0.052395
0.021863   -0.023935   -0.045372   -0.096367    0.069934  -0.0050961    0.045899
0.016341   -0.017764   -0.034978   -0.080451     0.05142 -0.00022403    0.042326
0.0085458  -0.0021729   -0.015815   -0.052193    0.031607  -0.0041217    0.041027
0.003024    0.016991   0.0088706    -0.02426  -0.0011985   -0.012892    0.038103
0.0010752    0.031607    0.030308    -0.01549   -0.055766    -0.02426    0.031282
0.0043233    0.036154    0.038753   -0.044398    -0.13827   -0.034329    0.020564
0.0091954    0.028034    0.033881    -0.11033    -0.24123   -0.045047    0.009845
0.013093    0.015042    0.019914    -0.18601    -0.35524   -0.055116   0.0039985
0.015692   0.0069217   0.0043233    -0.23701    -0.46437   -0.060313   0.0036737
0.014392   0.0088706  -0.0050961    -0.24448      -0.555   -0.058365   0.0046481
0.0075714    0.016341  -0.0080194    -0.21362    -0.61476   -0.050244  -0.0015233
-0.00054884    0.024137  -0.0057458     -0.1649    -0.63068     -0.0405   -0.018738
-0.0067202    0.025111  -0.0034721    -0.12268    -0.59787   -0.029457   -0.042449
-0.0093186    0.019264  -0.0037969    -0.09929    -0.51894   -0.016464   -0.062587
-0.0096434    0.010495  -0.0080194   -0.095717    -0.41565  -0.0024977   -0.073631
-0.0089938   0.0039985    -0.01484    -0.10514    -0.31399    0.011469   -0.075255
-0.010618   0.0017248    -0.02361    -0.12333    -0.23603    0.023812   -0.069083
-0.012892   0.0017248   -0.039526    -0.14346    -0.18959    0.038103   -0.055766
-0.012892   0.0026992   -0.058689    -0.15451     -0.1649     0.06084   -0.036927
-0.0096434    0.003024   -0.075255    -0.14769    -0.14476    0.092346   -0.019388
-0.0047713   0.0049729   -0.084999    -0.12398     -0.1256     0.12548   -0.007045
-0.00054884   0.0078962   -0.088247    -0.10156    -0.11326     0.15211  -0.0015233
-0.00087364    0.012768   -0.089221    -0.10319    -0.11456     0.16673   0.0010752
-0.0028225    0.017965   -0.088572    -0.14184    -0.13697      0.1729    0.003024
-0.0037969    0.021538   -0.084999    -0.20388    -0.17497     0.17485   0.0062721
-0.0037969    0.020888   -0.076879    -0.26039    -0.22044     0.17485    0.010495
-0.0031473    0.013743   -0.065186    -0.28443    -0.26364     0.17192    0.014068
-0.0054209   0.0049729   -0.050569    -0.26169    -0.29385     0.16348    0.013743
-0.0080194  -0.0018481   -0.035303    -0.19186    -0.30067     0.14919    0.011794
-0.010618  -0.0080194   -0.022961   -0.098316    -0.27241      0.1297   0.0065969
-0.014191   -0.012567   -0.016789   -0.012892     -0.2146     0.10501  0.00075039
-0.01484   -0.017764   -0.016464     0.04395    -0.14152    0.081627  -0.0011985
-0.012892   -0.021012   -0.021337    0.067336   -0.063561    0.062139  0.00010078
-0.0083442   -0.020037   -0.025559    0.063763   0.0072465    0.049796  0.00042559
-0.0024977   -0.015815   -0.026533    0.042326    0.069934      0.0433  -0.0028225
-0.0015233  -0.0076946   -0.021661    0.013418     0.13002    0.042326  -0.0057458
-0.0083442   0.0010752  -0.0099683   -0.011917     0.19531    0.044275  -0.0047713
-0.020037   0.0052977   0.0049729   -0.030431     0.26449    0.045249  0.00010078
-0.028807   0.0056225    0.021213   -0.047321     0.32816    0.039727   0.0046481
-0.030106   0.0020496    0.036154   -0.073955     0.37363    0.028034   0.0065969
-0.021986 -0.00087364    0.045899    -0.11845     0.39052    0.013093   0.0059473
-0.0083442  -0.0021729    0.047847    -0.18991     0.37753  -0.0018481   0.0020496
0.0036737  -0.0031473    0.044924    -0.28703     0.34667   -0.014516  -0.0060706
0.0095202  -0.0047713    0.037454    -0.39454     0.31484   -0.023285   -0.015165
0.0059473  -0.0041217    0.021863    -0.50043     0.29048   -0.027833   -0.020037
-0.0041217  -0.0018481  -0.0041217     -0.5956     0.27846   -0.031406   -0.018088
-0.015165   0.0010752   -0.035953    -0.64789     0.27067   -0.032705   -0.013216
-0.022636   0.0072465   -0.068434    -0.59267     0.25735   -0.030431  -0.0093186
-0.023285    0.015042    -0.09182    -0.38155     0.23948   -0.029457   -0.011592
-0.015165    0.024786   -0.095393    -0.03173     0.22487   -0.030106   -0.020687
-0.0018481     0.03583   -0.075579      0.3746     0.21512    -0.03173   -0.031081
0.010819    0.045899   -0.037252     0.73189     0.20246   -0.033679   -0.035303
0.016341    0.052395   0.0091954     0.96251     0.18264   -0.036927    -0.03173
0.017965    0.053369    0.048172      1.0317     0.15373   -0.040825   -0.028157
0.015692    0.045574    0.068635     0.95893      0.1206   -0.042449   -0.028157
0.013418    0.033881    0.069934     0.80173    0.084551   -0.042124   -0.032705
0.012768     0.01894    0.054344     0.61983    0.034855   -0.046022   -0.037252
0.010495   0.0052977    0.032906     0.45288   -0.038551   -0.062912   -0.039526
0.0043233  -0.0080194    0.013743     0.32328    -0.13957   -0.094418   -0.039851
-0.00054884   -0.020037   0.0039985     0.23299    -0.25227    -0.13534   -0.041799
-0.0050961   -0.030106   0.0020496      0.1742    -0.34387    -0.18049   -0.044723
-0.0093186   -0.035953   0.0052977      0.1349    -0.38934    -0.22174   -0.050244
-0.015815   -0.038551   0.0065969     0.10631     -0.3822     -0.2513    -0.05739
-0.025234   -0.035303   0.0010752    0.084226    -0.33445    -0.26332   -0.066485
-0.035303   -0.029457  -0.0060706    0.064088    -0.27111    -0.25975   -0.077528
-0.042124   -0.027183  -0.0099683    0.041027    -0.20908     -0.2474   -0.089871
-0.044398   -0.032055  -0.0083442    0.011144    -0.14541    -0.22921   -0.096367
-0.047971    -0.04115  -0.0067202   -0.026858   -0.075579    -0.20453    -0.09994
-0.051219   -0.047971  -0.0093186   -0.070058   0.0017248    -0.17594   -0.097991
-0.04992   -0.046671   -0.017764    -0.11066    0.087474    -0.14346   -0.089871
-0.04115   -0.035628   -0.028482    -0.13469     0.17712    -0.11001   -0.081751
-0.031081   -0.019063   -0.037577    -0.13762     0.26352   -0.079802   -0.075579
-0.024585  0.00042559   -0.039851    -0.12333     0.33758   -0.054792   -0.067784
-0.016789    0.021538    -0.03173   -0.097341     0.40319    -0.03238   -0.055116
-0.0034721    0.039078   -0.012242   -0.058365     0.46685   -0.010293   -0.037252
0.016341    0.047523   0.0069217 -0.00054884     0.53343    0.015042   -0.013866
0.036479    0.045574    0.018615    0.066037     0.60229    0.046223    0.014717
0.053694    0.039402    0.021538     0.11963     0.66498     0.07708    0.045249
0.063113    0.029658    0.016991     0.14626       0.715     0.10306    0.074806
0.060515    0.016666   0.0072465     0.14367     0.74456     0.11898    0.096569
0.049147   0.0017248  -0.0057458     0.11541     0.74553     0.12645     0.10956
0.036154  -0.0099683   -0.019712    0.067986     0.71305      0.1271     0.10826
0.027709   -0.013866   -0.033679   0.0095202     0.64484     0.12158    0.095594
0.019264   -0.010293   -0.045047   -0.055766     0.53961     0.11086    0.079354
0.009845  -0.0015233   -0.051219    -0.11586      0.3876    0.097218    0.066686
0.0010752     0.01017   -0.048945    -0.15808     0.18102    0.079029    0.058891
-0.0089938    0.019264   -0.036602    -0.16523   -0.061288    0.054344    0.050446
-0.021337    0.022837   -0.017114    -0.12982    -0.31171    0.025111    0.036154
-0.037577    0.020564   0.0085458   -0.055766    -0.56084  -0.0047713    0.017965
-0.052843    0.016016    0.038103     0.03518    -0.81549   -0.028482   0.0017248
-0.061288    0.009845     0.06896     0.11801     -1.0893   -0.048296   -0.008669
-0.060638   0.0033489    0.091047     0.16965      -1.366   -0.069408   -0.011917
-0.056416  -0.0034721    0.098193     0.18557     -1.6044   -0.091495   -0.017114
-0.053168   -0.011592    0.091696     0.17322      -1.761    -0.11358   -0.026858
-0.04927   -0.019063    0.074157     0.14919      -1.824    -0.13469   -0.038876
-0.045372   -0.025884     0.05272     0.12515     -1.8094    -0.15451   -0.046671
-0.044073   -0.034329    0.031607     0.10209      -1.722    -0.17042   -0.047646
-0.043748   -0.041799    0.014392    0.066362     -1.5583    -0.17659   -0.044398
-0.041799   -0.046347  -0.0018481 -0.00054884     -1.3118    -0.16653   -0.040825
-0.035303   -0.043423   -0.021986    -0.10351    -0.98699    -0.14087   -0.037902
-0.026533   -0.032055   -0.050569    -0.22791    -0.61411   -0.098641   -0.031406
-0.014191   -0.017439   -0.080776      -0.339    -0.24383   -0.051544   -0.018413
-0.0031473  -0.0063954    -0.10156    -0.39844    0.072858  -0.0083442  0.00010078
0.0095202 -0.00054884    -0.10546     -0.3783     0.30055    0.026085     0.01829
0.020888  -0.0015233    -0.09929      -0.288     0.43307    0.053369    0.032906
0.02641  -0.0050961   -0.093769    -0.16945     0.49056    0.073182    0.040377
0.028034  -0.0083442   -0.089871   -0.062587     0.50777      0.0852    0.039402
0.028034  -0.0099683   -0.080776    0.013093     0.51265    0.084876    0.031932
0.026085  -0.0080194   -0.061937    0.064088     0.51687    0.065712    0.016666
0.019589  0.00075039   -0.033354     0.10274     0.52596     0.03518  -0.0018481
0.008221    0.013418   0.0017248     0.13879     0.53701   0.0033489   -0.020687
-0.0041217    0.024786    0.038428     0.17095      0.5474   -0.019063   -0.034329
-0.014191    0.034206     0.06961     0.18979     0.55162   -0.023285   -0.039201
-0.018088    0.038103    0.088773     0.18719     0.54838  -0.0067202   -0.034004
-0.013541    0.036804    0.091372     0.15601     0.54058    0.029333   -0.020362
-0.0028225    0.030308    0.070909    0.099492     0.53279    0.079354   0.0026992
0.0085458    0.020239    0.032257     0.02706     0.53279     0.13035    0.030957
0.01829     0.01017   -0.013541   -0.044073     0.53961     0.17647    0.062789
0.025761   0.0023744   -0.052843    -0.10059      0.5448     0.21123    0.089748
0.028359 -0.00022403   -0.076879    -0.13632     0.54318     0.22909     0.10534
0.027385   0.0026992   -0.086298    -0.14931     0.52466     0.23071     0.11151
0.023812   0.0062721    -0.08305    -0.14411     0.49121     0.21675     0.11118
0.018615   0.0065969   -0.073306     -0.1269     0.44606     0.19044     0.10566
0.011794   0.0026992   -0.063886    -0.10351     0.40319     0.15991    0.089748
0.0036737  -0.0021729   -0.055766   -0.082725     0.37525     0.13002    0.066686
-0.0041217  -0.0060706   -0.048945   -0.070382     0.35544     0.10436    0.044599
-0.0099683   -0.007045   -0.044398    -0.06681     0.32296    0.081303    0.028684
-0.0089938   -0.007045   -0.039526    -0.06551     0.25962    0.053369     0.01894
-0.0028225  -0.0083442    -0.03303   -0.060313     0.16315     0.01829    0.011794
0.0017248  -0.0067202   -0.022311   -0.052843    0.045899   -0.023935   0.0091954
0.0010752  -0.0057458  -0.0099683   -0.042124   -0.073306   -0.071357    0.011144
-0.007045  -0.0073698  -0.0031473    -0.03173    -0.18244    -0.12105    0.011794
-0.018088   -0.011267  -0.0011985   -0.022961    -0.27436     -0.1623   0.0069217
-0.030106    -0.01614 -0.00054884   -0.016464    -0.34452    -0.18959  -0.0011985
-0.040175   -0.018738  0.00075039  -0.0093186    -0.38772     -0.2029   -0.011267
-0.046996    -0.01549   0.0033489  -0.0011985    -0.40169    -0.20648   -0.021012
-0.04927  -0.0083442   0.0072465   0.0056225    -0.38869    -0.19998   -0.030106
-0.048296 -0.00022403    0.012119    0.010819    -0.34744    -0.18699   -0.035953
-0.046347   0.0059473    0.016666    0.016016    -0.28703    -0.16653     -0.0405
-0.047321   0.0095202    0.019914    0.022837    -0.21947    -0.14216   -0.043099
-0.04992    0.011469    0.020888    0.031282    -0.15581    -0.11553   -0.044723
-0.04992    0.013743    0.022512    0.036804    -0.10124   -0.093444   -0.045372
-0.042449    0.015367    0.025436    0.037454   -0.057715   -0.073631   -0.043423
-0.029457    0.015692    0.029333     0.03453   -0.027833   -0.055441   -0.035628
-0.018088    0.014392    0.032906    0.031282  -0.0093186   -0.043423   -0.025884
-0.01484    0.011144    0.033231    0.029658   0.0020496   -0.039526   -0.016789
-0.016789   0.0075714    0.030633    0.029333    0.013093   -0.038551  -0.0073698
-0.017764   0.0026992    0.027385    0.030308    0.031607   -0.032055   0.0033489
-0.013541  -0.0018481    0.029333    0.031607    0.061165   -0.017764    0.013418
-0.0073698  -0.0037969    0.032906    0.030308     0.10209  0.00010078    0.019264
-0.0021729  -0.0028225    0.032582    0.022188     0.15211    0.015692     0.01829
-0.0021729    0.003024    0.024461   0.0085458     0.20668    0.027385    0.011794
0.00042559    0.010819    0.016666  -0.0063954     0.26449    0.033556   0.0075714
0.0088706    0.016666     0.01017   -0.017114     0.32393    0.033881   0.0088706
0.022512     0.01894   0.0046481   -0.021986      0.3824    0.029983    0.014068
0.036479    0.019589  0.00075039   -0.017114     0.43307    0.025111    0.020564
0.04395    0.023162 -0.00087364  -0.0031473     0.46847    0.021863    0.026085
0.038753    0.026085  0.00010078    0.014068     0.48569    0.020239     0.02641
0.023812    0.023812   0.0036737    0.023812     0.49251    0.023812    0.017965
0.0091954    0.016666    0.008221    0.017316     0.49868    0.031932    0.003024
-0.00054884   0.0065969    0.013418  -0.0073698     0.49543    0.040052   -0.015815
-0.0063954  -0.0024977    0.016666   -0.042449     0.44639    0.040052   -0.030756
-0.0089938  -0.0083442    0.013743   -0.073955     0.31094    0.032582   -0.035303
-0.0093186  -0.0096434   0.0033489   -0.088572    0.088448    0.024137   -0.031081
-0.011917  -0.0089938   -0.010943   -0.075579    -0.17107     0.01894   -0.020687
-0.018413  -0.0076946   -0.022961   -0.034654    -0.39292     0.01829   -0.010618
-0.027833  -0.0067202   -0.027508    0.026735    -0.51699    0.024137  -0.0037969
-0.03303  -0.0044465   -0.021661    0.095594    -0.51667    0.033231  0.00010078
-0.027833      0.0014 -0.00022403     0.16023    -0.41403    0.047847   0.0039985
-0.011592    0.010819    0.037454     0.20733    -0.26202    0.070259   0.0075714
0.009845    0.020888    0.081952     0.22487    -0.11488    0.098193    0.008221
0.027709    0.030633     0.11508     0.20668   -0.020362     0.12385   0.0091954
0.038103    0.035505     0.12353     0.15146  -0.0015233     0.14042    0.010819
0.041027    0.037129     0.10566     0.07708    -0.04862     0.14724    0.009845
0.036154    0.030308    0.070259    0.016341    -0.13275     0.14626   0.0075714
0.025111    0.019589    0.030957  -0.0041217    -0.22142     0.13879    0.003024
0.0085458   0.0069217   0.0020496    0.016991    -0.29223     0.12937  -0.0011985
-0.013541  -0.0021729    -0.01614     0.06019     -0.3364     0.11313  -0.0021729
-0.031406   -0.007045   -0.026858     0.10664    -0.35361    0.092021  0.00075039
-0.038227  -0.0096434    -0.03238     0.14464    -0.34874    0.070259   0.0052977
-0.032705  -0.0096434   -0.027183     0.15958    -0.32048    0.051096    0.011794
-0.018738  -0.0076946   -0.011592     0.14302     -0.2578     0.03583    0.019589
-0.0031473  -0.0024977    0.011794    0.093645    -0.15581    0.017316    0.026085
0.009845   0.0033489    0.038428    0.016666  -0.0099683  -0.0093186    0.025111
0.013743   0.0078962    0.054668   -0.079152     0.16803   -0.044398    0.010495
0.0095202   0.0095202    0.055318    -0.18212     0.35609    -0.09117   -0.012567
0.0010752   0.0091954    0.041676    -0.25227     0.53571    -0.14249   -0.037577
-0.008669    0.008221    0.024461    -0.23344     0.69162    -0.18959   -0.058365
-0.018738   0.0075714    0.014068    -0.10968     0.80855    -0.23344   -0.071357
-0.029782   0.0088706    0.012443    0.071558     0.86701    -0.27858    -0.07493
-0.041799    0.011469    0.014068     0.23689     0.81732    -0.32828   -0.072981
-0.04927    0.012768    0.016991     0.33855     0.57956    -0.38317   -0.068758
-0.04992    0.013743    0.015367     0.36616    0.071883    -0.43969   -0.068109
-0.040825    0.014068   0.0026992     0.32069    -0.69271    -0.49003   -0.072006
-0.027833    0.012119   -0.027183     0.20928      -1.533    -0.51764   -0.077853
-0.017114   0.0049729   -0.067784    0.055643     -2.1881    -0.50757   -0.077528
-0.0044465  -0.0060706    -0.10579   -0.097991     -2.4522    -0.45366   -0.062912
0.016016   -0.015165     -0.1256    -0.20355     -2.2706    -0.36531    -0.03173
0.04395    -0.01614    -0.12073    -0.23668      -1.749    -0.26429   0.0085458
0.06961  -0.0041217   -0.095717     -0.2042     -1.0887    -0.17107    0.045899
0.088448    0.017316   -0.064211    -0.13664    -0.48776   -0.098965    0.071234
0.099167    0.037454   -0.035303   -0.072981   -0.078827   -0.051219    0.080328
0.10274    0.049147    -0.01484   -0.043099     0.10469   -0.024585    0.075131
0.095594    0.048497  -0.0060706   -0.048945     0.10664   -0.018088    0.065062
0.080328    0.037454  -0.0083442   -0.073955    0.019589   -0.026533    0.054019
0.058891     0.01764   -0.020037    -0.10189   -0.062912   -0.040175     0.04395
0.033231   -0.007045    -0.04115    -0.12852   -0.091495   -0.051219    0.029333
0.0043233   -0.031081   -0.065186    -0.16328   -0.052843   -0.056741   0.0091954
-0.02361   -0.050244   -0.086948    -0.21395    0.046223   -0.055116   -0.014191
-0.046022   -0.064536    -0.10741    -0.27728     0.19011   -0.045697   -0.038227
-0.060638   -0.074605    -0.12852    -0.33023     0.35706   -0.033679   -0.056416
-0.061937   -0.077528    -0.14249     -0.3416     0.52012   -0.023285   -0.065186
-0.051868   -0.073306    -0.14281    -0.29742      0.6718   -0.015165   -0.063237
-0.034654   -0.060638    -0.12917     -0.2133     0.81537  -0.0099683   -0.052843
-0.019063   -0.044073    -0.10579     -0.1243     0.95146  -0.0015233   -0.038876
-0.0060706   -0.028157   -0.077528   -0.061613      1.0694    0.014717   -0.030431
0.0052977   -0.015165    -0.04862   -0.035628      1.1629    0.041351   -0.028482
0.011794  -0.0067202   -0.024585   -0.033679      1.2314    0.077405   -0.031406
0.010819  -0.0031473  -0.0063954   -0.027833      1.2743      0.1206   -0.035953
0.0046481  -0.0041217   0.0046481   0.0033489      1.2867      0.1638   -0.035628
-0.0011985  -0.0063954    0.008221    0.059216      1.2578     0.19401   -0.029132
-0.0018481  -0.0076946   0.0065969     0.12028      1.1779      0.2057   -0.015165
-0.0041217   -0.010293   0.0039985     0.16478      1.0414     0.19856  -0.0015233
-0.0076946    -0.01484 -0.00022403     0.18329     0.84428     0.18232   0.0056225
-0.010943   -0.017439  -0.0054209     0.17322     0.58183      0.1677   0.0059473
-0.014516   -0.019063   -0.011917     0.14074      0.2528     0.15731   0.0023744
-0.018088   -0.021986   -0.015815    0.099817    -0.12365     0.15179  -0.0021729
-0.022636   -0.025234    -0.01614    0.066037    -0.51439     0.14594  -0.0044465
-0.029457   -0.028807   -0.012892    0.045574    -0.89669     0.13457  -0.0021729
-0.036602   -0.030431  -0.0096434    0.038428      -1.264     0.11898   0.0033489
-0.042449   -0.029132  -0.0076946    0.032582     -1.6142     0.10404   0.0075714
-0.04862   -0.024585  -0.0063954    0.022837     -1.9442    0.090072   0.0078962
-0.04927   -0.018738  -0.0011985   0.0046481     -2.2294    0.074157   0.0062721
-0.044723   -0.015815   0.0069217   -0.017439     -2.4161    0.054019   0.0072465
-0.038876   -0.012892    0.016341   -0.035953     -2.4256    0.033231    0.010819
-0.033679   -0.010293    0.023487   -0.046996     -2.1998    0.011794    0.016666
-0.031081  -0.0050961    0.029009   -0.048296     -1.7529  -0.0096434    0.023487
-0.030431   0.0020496    0.032906   -0.040825     -1.1676   -0.028807    0.025436
-0.029457   0.0091954    0.033881   -0.026858    -0.56279   -0.039851     0.01894
-0.031081    0.012119    0.028359 -0.00022403   -0.044723   -0.041799   0.0078962
-0.035303    0.010819    0.017316    0.037129     0.31874   -0.038551  -0.0037969
-0.036278   0.0078962    0.010819    0.071234     0.51979   -0.028807   -0.011592
-0.029457   0.0065969   0.0085458    0.086175     0.59645  -0.0093186   -0.012242
-0.012567   0.0095202   0.0046481     0.07773     0.59645    0.016666  -0.0063954
0.0062721    0.019589  -0.0057458    0.056617     0.56169    0.039727   0.0020496
0.019589    0.031282   -0.019063    0.042326     0.52012    0.056292     0.01017
0.026735    0.037778   -0.026858    0.049472     0.48731    0.066037    0.014392
0.027385    0.038103   -0.022636    0.082927      0.4597     0.06831    0.013418
0.023812     0.03583  -0.0057458      0.1323     0.43242    0.064737   0.0088706
0.016016    0.032582    0.017316     0.18004     0.40286    0.057592   0.0052977
0.0085458    0.032257     0.03583       0.207     0.37493    0.053044   0.0049729
0.0056225    0.030957    0.041351     0.19921     0.35512    0.054019   0.0078962
0.010819    0.029009    0.035505      0.1625      0.3457    0.061489    0.014392
0.024786    0.025436    0.022837     0.10891     0.34635    0.071883    0.020564
0.041027    0.020888    0.011469    0.049472     0.35089    0.080653    0.028359
0.049147     0.01764   0.0039985  -0.0073698     0.35512    0.083901    0.040052
0.044924    0.016341   0.0010752   -0.055116     0.35901    0.084226    0.053044
0.034855    0.016016  -0.0011985   -0.089546     0.36259    0.087149    0.066362
0.024461    0.014392  -0.0073698    -0.10806     0.37006    0.094945    0.080328
0.01764   0.0091954   -0.019712    -0.11748      0.3837     0.10664    0.092021
0.013093 -0.00087364   -0.034329    -0.12885     0.40189     0.11931    0.093321
0.0091954   -0.012242   -0.047646    -0.14444      0.4243     0.13197      0.0852
0.0056225   -0.019388   -0.056416    -0.15646     0.44379     0.14074    0.070259
0.0026992   -0.021661   -0.055766    -0.14411     0.45516     0.13847    0.052395
0.00010078   -0.019063   -0.046996   -0.092469      0.4584     0.12288    0.034855
-0.0089938   -0.013216   -0.031406  -0.0044465     0.46068    0.095594    0.016666
-0.030431   -0.010943   -0.018088     0.09397     0.47042    0.064737  -0.0021729
-0.05739   -0.015165   -0.018413     0.15763     0.48699    0.038103   -0.020037
-0.077853   -0.025559   -0.034329     0.14886      0.5016    0.020239   -0.032705
-0.081751   -0.036278   -0.060313    0.047198     0.49511    0.012119   -0.038227
-0.067784   -0.042774   -0.083375    -0.13047      0.4597   0.0078962   -0.038551
-0.043099   -0.040825   -0.094743    -0.31724     0.39312    0.003024   -0.035303
-0.018088   -0.032705   -0.090196    -0.44294     0.30315  -0.0021729   -0.027833
0.0052977   -0.018413   -0.068109    -0.46405     0.20278  -0.0044465   -0.019388
0.023487  -0.0021729   -0.036278    -0.36726     0.10859  -0.0031473  -0.0076946
0.041027    0.011794  -0.0076946    -0.17724    0.030633   0.0017248    0.011469
0.061165    0.023487    0.012119    0.041676   -0.026533   0.0091954    0.037454
0.078379    0.036154    0.022512     0.22877   -0.053817    0.016991    0.064413
0.092671    0.049147    0.032906      0.3431   -0.054142     0.02706     0.08585
0.10079     0.06019    0.047847     0.37915   -0.038227     0.03583    0.095594
0.10501    0.064737    0.066362     0.35804   -0.018088    0.038753    0.092671
0.10566    0.061489    0.084226     0.31354  -0.0037969    0.033556    0.082602
0.10274    0.055318    0.098193     0.27911  0.00042559    0.021863    0.067661
0.09397    0.048172     0.10566     0.26774   -0.007045   0.0033489    0.052395
0.078704    0.040052     0.10014     0.27229   -0.030431   -0.021337    0.040377
0.059216     0.03453    0.080003     0.28333   -0.076879   -0.050894    0.031932
0.038103     0.02706    0.051096     0.28723    -0.14509   -0.081101    0.022837
0.01894    0.018615    0.020564     0.27456    -0.23214    -0.11033   0.0085458
0.003024   0.0088706  -0.0044465     0.23948    -0.32276    -0.14216  -0.0067202
-0.008669  -0.0031473   -0.022961     0.18459    -0.39064    -0.17497   -0.019063
-0.020037   -0.016464    -0.03303     0.12158    -0.42085    -0.19868   -0.028157
-0.030106   -0.028157   -0.035953    0.057267      -0.415    -0.20908   -0.035628
-0.035953   -0.036927   -0.039851   -0.010293    -0.39227     -0.2042   -0.042774
-0.038551   -0.043099   -0.048296   -0.078178    -0.38415    -0.19219   -0.050244
-0.035953   -0.047646   -0.061937    -0.12917    -0.40331    -0.18179   -0.052193
-0.03303   -0.049595   -0.079477    -0.16133    -0.44618      -0.174   -0.050244
-0.03173   -0.046671   -0.094743    -0.20323    -0.49848    -0.16977    -0.04927
-0.03303   -0.035628   -0.096042     -0.2854    -0.53616    -0.16685   -0.054792
-0.032055   -0.016789   -0.072656    -0.41338    -0.53128     -0.1623   -0.064536
-0.025559   0.0085458   -0.030756    -0.56604    -0.47542    -0.15353   -0.070382
-0.01614    0.034855    0.014068    -0.70311    -0.38155    -0.14087   -0.068758
-0.0093186    0.056292    0.049796    -0.75897    -0.26462     -0.1191   -0.062587
-0.0054209    0.068635    0.074157    -0.62905    -0.12657   -0.088247   -0.052193
-0.0028225    0.075131    0.094295    -0.23279    0.028684   -0.047646   -0.040175
0.0026992     0.07708     0.11736     0.35609     0.18654  -0.0050961   -0.029457
0.0056225    0.072208     0.13814     0.91313     0.32328    0.024786   -0.030106
-0.0034721    0.057267     0.14464      1.2305     0.41358    0.029658   -0.042774
-0.018088    0.034855     0.13067      1.2347     0.44281   0.0075714   -0.061288
-0.03238    0.011469    0.097868     0.99336     0.41001   -0.028157   -0.076229
-0.039851   -0.008669    0.053369     0.64874      0.3379   -0.062262   -0.085648
-0.038551   -0.022961    0.012119     0.34245      0.2528     -0.0824   -0.084024
-0.034654   -0.032055    -0.01614     0.15796      0.1768   -0.086623    -0.07493
-0.029132   -0.035953   -0.030106     0.10404     0.11313   -0.078178   -0.061937
-0.023285   -0.035303   -0.030756      0.1362    0.058566   -0.059989   -0.053168
-0.020687   -0.028807   -0.025234     0.19011    0.009845   -0.036278    -0.04927
-0.021337   -0.021661   -0.022311     0.20376   -0.043423   -0.020037   -0.049595
-0.025559   -0.018413   -0.028157     0.13587    -0.10838   -0.016789   -0.048296
-0.03173   -0.018088   -0.046671  -0.0073698    -0.17984   -0.024585   -0.042449
-0.035628   -0.021337   -0.070382    -0.17497    -0.23863   -0.034978    -0.03303
-0.032055   -0.028482   -0.084674    -0.30619    -0.27111   -0.039851   -0.020687
-0.020687   -0.035303   -0.082076    -0.37148    -0.27761    -0.03303  -0.0083442
-0.0031473   -0.037252   -0.063886    -0.37083    -0.27826   -0.020687   0.0023744
0.011469   -0.032705     -0.0405    -0.32893    -0.31042    -0.01614   0.0091954
0.01764   -0.025234   -0.021661    -0.28053    -0.39876   -0.028482    0.010495
0.013093   -0.020037  -0.0093186    -0.24578    -0.52479   -0.057065   0.0039985
-0.0018481    -0.01614  -0.0011985    -0.22791    -0.63685   -0.095068  -0.0080194
-0.020687   -0.014191   0.0065969    -0.22272    -0.68264    -0.13502   -0.019063
-0.036602   -0.012242    0.014068    -0.22272    -0.63262    -0.16782   -0.022961
-0.041475   -0.011267    0.023812    -0.22369    -0.49263    -0.18699   -0.018088
-0.034654  -0.0093186    0.032582    -0.21849     -0.2958    -0.18959  -0.0083442
-0.022961  -0.0057458    0.036479    -0.20875   -0.082076    -0.17724    0.003024
-0.014191  -0.0024977     0.03583    -0.19933     0.11118    -0.15646    0.011144
-0.012242 -0.00022403    0.032582    -0.19121     0.25378    -0.13015    0.014068
-0.016464 -0.00054884    0.027709    -0.18666     0.33433    -0.10319    0.014068
-0.023935  -0.0031473    0.024137    -0.18374     0.36259   -0.081751    0.012443
-0.030756  -0.0063954    0.020888    -0.18277     0.35609    -0.06616    0.011794
-0.035628  -0.0083442     0.01764    -0.18147     0.33335   -0.055766    0.012119
-0.038551  -0.0060706    0.015367    -0.18114     0.30574   -0.046671    0.010819
-0.039201  -0.0018481    0.015367    -0.18212     0.27586   -0.037252    0.008221
-0.038551   0.0026992    0.014717    -0.18601     0.24468   -0.022636   0.0078962
-0.037902   0.0036737    0.008221    -0.19381     0.21123   0.0010752    0.012768
-0.039851   0.0020496  -0.0034721    -0.20453       0.169     0.02641    0.017965
-0.040825   0.0017248   -0.021012    -0.21167     0.11183    0.050121     0.01829
-0.035953    0.003024   -0.040825    -0.20875    0.038753    0.069285    0.012443
-0.024909   0.0075714   -0.055441    -0.19348   -0.042124      0.0865   0.0023744
-0.01484    0.011794   -0.057715     -0.1701    -0.11456     0.10144   -0.011592
-0.011917    0.015367   -0.047971    -0.15061    -0.16035     0.11183   -0.022311
-0.012892     0.01764    -0.03238    -0.14574    -0.17465     0.11703   -0.025884
-0.019063    0.018615   -0.017114    -0.15061    -0.16815     0.12028   -0.024585
-0.027833    0.017965  -0.0076946    -0.14574    -0.15711      0.1232   -0.025559
-0.034654    0.012443  -0.0037969    -0.11163    -0.15321     0.12515    -0.03238
-0.041799   0.0036737  -0.0031473    -0.04992    -0.14931      0.1245     -0.0405
-0.042774  -0.0063954  -0.0044465    0.012443    -0.12463     0.11638   -0.042449
-0.041475    -0.01484  -0.0080194    0.040052   -0.064536    0.099817   -0.035303
-0.040175   -0.019388    -0.01549   0.0075714    0.028684    0.075131   -0.021337
-0.034329   -0.018088   -0.029782    -0.10091     0.14237    0.042651  -0.0080194
-0.025559    -0.01549   -0.050569    -0.26754      0.2528   0.0020496 -0.00087364
-0.018738   -0.010943   -0.076554    -0.45495     0.32361   -0.040825 -0.00022403
-0.017439  -0.0044465   -0.096367    -0.61801     0.32621    -0.08305 -0.00087364
-0.020687    0.003024    -0.10416    -0.70895     0.26417     -0.1204  -0.0018481
-0.021986     0.01017    -0.10124    -0.67517      0.1664    -0.14639  0.00010078
-0.020687    0.015367   -0.090521    -0.48646    0.074157    -0.15353    0.008221
-0.013866    0.019264   -0.068758    -0.16035    0.029009    -0.13989    0.016991
-0.00022403    0.024137   -0.031081     0.23039    0.053694    -0.10741    0.020564
0.018615    0.030957     0.01829     0.58995      0.1349   -0.067459    0.021213
0.037778    0.041027    0.071234     0.83875     0.23429   -0.033354    0.019914
0.048497    0.047523     0.11508     0.94269     0.31386  -0.0096434    0.018615
0.045899    0.048172     0.14237     0.91931     0.35544   0.0039985     0.01894
0.036479      0.0433     0.15309     0.82024     0.35771    0.010819    0.020239
0.028034    0.034206     0.14951     0.70753      0.3353    0.013093    0.021213
0.022837    0.024137     0.13327     0.61334     0.30087    0.016991    0.017316
0.020239    0.012443     0.10436     0.53863     0.26027    0.025436    0.011794
0.018615  -0.0034721    0.059541     0.45548     0.21675    0.040377   0.0069217
0.01829   -0.022636  -0.0015233     0.32458     0.17257    0.059216   0.0049729
0.023162   -0.039201   -0.071682     0.13035     0.13457     0.07708   0.0072465
0.033881   -0.048296    -0.13599   -0.092145     0.11151    0.086824    0.013093
0.044599   -0.047646    -0.17497    -0.27631     0.10469    0.084551    0.020888
0.05142   -0.039526    -0.18049    -0.36271     0.10014    0.067336    0.028034
0.054993   -0.028157    -0.15678     -0.3299     0.07708    0.044599    0.029658
0.054019   -0.018413    -0.11488    -0.19706    0.027385    0.023812    0.024137
0.046223   -0.011917   -0.067134   -0.010943   -0.036927   0.0091954    0.011469
0.032582   -0.010618   -0.025234       0.169   -0.097341   0.0020496  -0.0024977
0.016991   -0.011592   0.0049729     0.29957    -0.14216  -0.0015233   -0.010618
0.0062721    -0.01484    0.023162     0.35966    -0.17854  -0.0015233   -0.012892
-0.00087364    -0.01484    0.034855     0.35317    -0.21882  -0.0015233   -0.010293
-0.0031473   -0.012892    0.046223     0.30347    -0.26819  -0.0063954   -0.007045
0.00042559   -0.008669    0.059216     0.23624    -0.32113   -0.017439  -0.0080194
0.0036737  -0.0050961    0.069285     0.17355    -0.36368   -0.031406   -0.017114
0.0043233 -0.00087364    0.070909     0.12255    -0.39389   -0.041475   -0.027183
0.0043233    0.003024     0.06084    0.080328    -0.41338   -0.042449    -0.03173
0.0046481   0.0072465    0.043625    0.041027     -0.4163   -0.034978   -0.024585
0.0059473    0.011144    0.021863 -0.00022403    -0.38707   -0.027183  -0.0057458
0.012119    0.015042  -0.0024977     -0.0405    -0.31789   -0.024585    0.020239
0.024137    0.016666   -0.028807   -0.075904     -0.2107   -0.023285    0.045574
0.036479    0.014717   -0.053817    -0.10611   -0.075579   -0.018738     0.06896
0.0433    0.012119   -0.072656     -0.1295    0.062464  -0.0096434    0.087149
0.041027    0.010495   -0.084349    -0.14996     0.15341 -0.00087364    0.094295
0.028034   0.0046481   -0.090521    -0.16912     0.15309   0.0020496    0.090722
0.012768  -0.0041217   -0.088896    -0.18439    0.062464  0.00010078    0.083576
0.0059473   -0.013216   -0.081751    -0.19056   -0.070058  -0.0063954    0.078704
0.0088706   -0.020037   -0.069083    -0.18309    -0.18471   -0.011592    0.081627
0.013093   -0.022961   -0.056741    -0.16295    -0.24675   -0.010618    0.089423
0.015042   -0.021986   -0.048296    -0.13989    -0.26072  -0.0041217    0.093321
0.016991   -0.018738   -0.046996    -0.13599    -0.25617   0.0026992    0.087474
0.017316   -0.010943   -0.055766    -0.17042    -0.25098   0.0052977    0.075456
0.014392 -0.00087364   -0.072656    -0.24545    -0.24675  0.00042559    0.060515
0.0088706     0.01017   -0.093444      -0.339    -0.23993   -0.011267    0.045574
0.00042559    0.018615    -0.10709    -0.40721    -0.21979   -0.025559    0.032257
-0.0080194    0.025761    -0.10644    -0.40656     -0.1727   -0.042449    0.019589
-0.014191    0.029333   -0.087272    -0.31918   -0.082725   -0.059989   0.0095202
-0.016464    0.029009   -0.055116    -0.16588    0.054993   -0.072981      0.0014
-0.020687    0.022188   -0.016464   0.0036737     0.23364   -0.071357  -0.0057458
-0.027183    0.013418     0.01894     0.14042     0.42462   -0.052193   -0.012892
-0.035628   0.0088706     0.04395      0.2187     0.59255   -0.022311   -0.020037
-0.042774    0.012768    0.059865     0.24208     0.70461   0.0020496   -0.033679
-0.04862    0.024786    0.073507     0.23266     0.74066   0.0049729   -0.055116
-0.050569    0.041027    0.094295     0.21772     0.70428    -0.01484   -0.080776
-0.051219    0.056617     0.12093     0.21415     0.61171    -0.04862    -0.10741
-0.053492    0.064088     0.14042     0.21675     0.48212   -0.080127    -0.12885
-0.055116    0.062464     0.14009     0.21252     0.33173   -0.098316    -0.13632
-0.050244    0.055318     0.11833     0.19239      0.1703   -0.094418     -0.1269
-0.038876    0.042326    0.078055     0.14984  -0.0054209   -0.069733    -0.10189
-0.02426    0.023812    0.026735    0.087474     -0.2081   -0.027508   -0.063237
-0.0083442   0.0039985   -0.027183    0.013093    -0.44424    0.021863   -0.017439
0.003024   -0.015815   -0.076554   -0.059989    -0.70636    0.066037    0.022837
0.0069217    -0.03303    -0.11845    -0.11813    -0.96198     0.10014    0.051096
0.0056225   -0.046671    -0.14834    -0.15808     -1.1741     0.12093    0.063113
0.0014   -0.053168    -0.16035    -0.18114     -1.3134     0.12775    0.062464
-0.0024977   -0.050569    -0.15029    -0.18666     -1.3748     0.11866    0.058891
-0.0073698   -0.039201    -0.12235    -0.18049     -1.3703     0.09397    0.056942
-0.013216   -0.025884   -0.086298    -0.16328     -1.3144    0.055318    0.054993
-0.019712   -0.011592   -0.051544    -0.13567     -1.2299    0.010495    0.050446
-0.021337      0.0014   -0.023285   -0.098316       -1.14   -0.029132    0.044275
-0.017114     0.01017  -0.0018481   -0.056091     -1.0435   -0.056741    0.037129
-0.010618    0.014717    0.012119   -0.018413    -0.91033   -0.067784    0.030308
-0.0037969    0.013743    0.017965   0.0062721    -0.70798    -0.06616    0.026085
0.00010078   0.0085458    0.016341   0.0091954    -0.43417   -0.057065    0.019589
-0.00087364 -0.00022403     0.01017  -0.0076946    -0.10968   -0.041799    0.009845
-0.0060706   -0.011592   0.0023744   -0.033354     0.22162   -0.019712  -0.0041217
-0.01549   -0.024909  -0.0096434   -0.051868     0.51525   0.0046481   -0.018738
-0.027183   -0.036927   -0.024909   -0.056091     0.73417    0.022512   -0.032055
-0.037252   -0.043099   -0.039851   -0.038227     0.86084    0.031607   -0.042449
-0.041475    -0.04115   -0.043748    0.010819     0.90209    0.036154   -0.048296
-0.037577   -0.029457   -0.029457    0.087799     0.88877    0.042651   -0.047971
-0.02361  -0.0080194   0.0085458     0.17874     0.84817    0.055643   -0.043423
-0.0018481    0.018615     0.06084     0.25767      0.8027    0.072858   -0.039201
0.020888     0.04395     0.11703     0.30542     0.76502    0.089748   -0.038876
0.036154    0.061814     0.15991     0.31224     0.73514     0.10177   -0.040825
0.037129    0.068635     0.17485     0.28756     0.70591     0.10274   -0.043423
0.020888    0.064088     0.15731     0.24598     0.67343    0.088773   -0.047971
-0.0093186    0.050446     0.11606     0.19791     0.64225    0.061165   -0.056741
-0.0405    0.030633    0.066037     0.15016     0.61269    0.021863   -0.066485
-0.058689    0.010819    0.022837     0.10469     0.58053   -0.020362   -0.075904
-0.059989  -0.0047713  -0.0073698    0.060515     0.54155   -0.059339   -0.080127
-0.051868   -0.015165   -0.025559    0.023812     0.49576   -0.087922    -0.08305
-0.042124   -0.025559   -0.030756      0.0014     0.45158    -0.10579   -0.084349
-0.03303   -0.037577   -0.027833  -0.0060706     0.41423    -0.11098   -0.082076
-0.025559   -0.047971   -0.021012  -0.0067202     0.38792    -0.10351   -0.075904
-0.020687   -0.050894   -0.014516   -0.018738     0.36908   -0.084024   -0.067459
-0.018413   -0.045047   -0.010943   -0.051219     0.34797   -0.054467   -0.055766
-0.017764   -0.033354   -0.010618   -0.093444     0.30737   -0.018088     -0.0405
-0.018738   -0.023285  -0.0089938     -0.1295     0.23299    0.015367   -0.022311
-0.023285   -0.018738  -0.0047713     -0.1597     0.12645    0.037454  -0.0021729
-0.028482   -0.019712  -0.0037969    -0.18731   0.0036737    0.048172    0.015692
-0.03303   -0.021661  -0.0024977    -0.19186    -0.11293    0.047523    0.026085
-0.035303   -0.020037   0.0049729    -0.12787    -0.19348    0.037778    0.026085
-0.035628   -0.014516    0.022512    0.013743    -0.21817    0.020888    0.022837
-0.035628  -0.0093186    0.041351      0.1755    -0.19901  -0.0060706    0.016991
-0.036602   -0.007045    0.050121     0.28918     -0.1623   -0.034654    0.014392
-0.036927   -0.007045    0.048172     0.31971    -0.13242   -0.055116    0.015042
-0.035303   -0.010943    0.040702     0.28008    -0.12917   -0.062262    0.020888
-0.030106   -0.019063    0.030633     0.20473    -0.15288   -0.053817    0.030633
-0.016789   -0.027183    0.015367     0.12937    -0.19543   -0.036927    0.037778
0.0049729   -0.029132  -0.0057458    0.082277    -0.23993   -0.021337    0.038753
0.030957   -0.023285   -0.020037    0.082927    -0.26429   -0.011267    0.032582
0.054993   -0.011267    -0.01614      0.1206     -0.2565  -0.0067202    0.020888
0.073182   0.0043233   0.0078962     0.16153    -0.22012  -0.0067202    0.014068
0.083901    0.019589    0.041676     0.17257     -0.1753   -0.011917    0.016016
0.088448    0.029983    0.070259     0.13879    -0.14216   -0.022636    0.029009
0.087474    0.033231    0.084226    0.072533    -0.13437   -0.041475    0.042326
0.080328    0.033881    0.079029  0.00042559    -0.15223   -0.070058     0.05207
0.066362    0.033881    0.055643   -0.053168    -0.17692    -0.10384    0.055968
0.047198    0.034855     0.02641   -0.080451    -0.19089    -0.13502    0.053694
0.029333    0.038428   0.0046481   -0.081426    -0.17984    -0.15288    0.047523
0.015367    0.041676  -0.0024977   -0.061613    -0.14054    -0.15321    0.041676
0.008221    0.042001   0.0049729   -0.034004   -0.080776    -0.13892    0.036804
0.0059473    0.036154    0.016666  -0.0057458   -0.021012    -0.12008    0.028359
0.0062721    0.024461    0.020888    0.010495    0.020888    -0.10026     0.01894
0.0088706    0.012119    0.015042   0.0056225    0.039727   -0.077853   0.0095202
0.01017  0.00042559  -0.0015233   -0.016464     0.04395   -0.050244   0.0033489
0.0065969  -0.0060706   -0.021661   -0.039526    0.047198   -0.020362  0.00010078
-0.0015233  -0.0089938   -0.035953   -0.054467    0.055318   0.0078962  0.00010078
-0.012567  -0.0093186   -0.036278   -0.054467    0.070259    0.030957   0.0046481
-0.021986  -0.0073698   -0.021986   -0.038551    0.084551    0.044924    0.012119
-0.030106  -0.0050961   0.0026992   -0.011917    0.086824    0.050121    0.012768
-0.038227  -0.0021729    0.027709    0.017965    0.074806     0.04395  0.00075039
-0.047971 -0.00054884    0.043625    0.038753    0.055968    0.032257   -0.022636
-0.056091  -0.0011985    0.050446    0.037129    0.038428    0.019264    -0.04927
-0.062262  -0.0037969    0.049472    0.011144    0.032257   0.0078962   -0.071032
-0.06616   -0.010943    0.045899   -0.032705    0.038753  -0.0041217   -0.084349
-0.067784   -0.019063    0.042651   -0.080776    0.055643    -0.01614   -0.090521
-0.069733   -0.026533    0.037129    -0.11878    0.076106   -0.023285   -0.092469
-0.072006   -0.028482    0.028684    -0.13729    0.093321   -0.022961   -0.089221
-0.071357   -0.026209    0.019264    -0.14314     0.10047   -0.010618   -0.081751
-0.062912   -0.024909   0.0072465    -0.15223    0.090722   0.0088706   -0.070382
-0.047321   -0.026858   -0.012567    -0.18342    0.062464    0.031282   -0.053492
-0.025234   -0.030431   -0.040175    -0.23311    0.019264    0.054019   -0.032705
0.0017248   -0.032705   -0.071682    -0.28151   -0.029782    0.076431   -0.008669
0.032582   -0.031406    -0.10611    -0.31042   -0.070382    0.098193    0.016666
0.063763   -0.024909    -0.14346    -0.31301    -0.09929     0.12028     0.04395
0.089423   -0.011917    -0.18212    -0.28865     -0.1256     0.13717    0.069285
0.10566  0.00042559    -0.21622    -0.23603      -0.161     0.14432    0.087799
0.11021   0.0065969    -0.23993    -0.15873     -0.2107     0.13684    0.097218
0.10404    0.008221    -0.24675   -0.069733    -0.26787     0.12028     0.10112
0.092671   0.0072465    -0.23538    0.015042    -0.31269     0.10144     0.10112
0.083901    0.009845    -0.20355    0.091047    -0.31983    0.083576    0.098193
0.078055    0.018615    -0.15516     0.16218    -0.27664    0.069285    0.096569
0.078055    0.032582   -0.095717     0.22714    -0.18926    0.062139    0.098193
0.082602    0.046223   -0.036927     0.27716   -0.081101    0.065062     0.10079
0.089098    0.053369   0.0065969     0.29827    0.017316     0.07708     0.10339
0.091696    0.051096    0.025436     0.28431    0.084551    0.092021     0.10079
0.082927    0.039402    0.023162     0.24208     0.11378     0.10794    0.091047
0.062139    0.022512    0.012119     0.18784     0.10599     0.12158    0.072858
0.031282   0.0069217   0.0039985     0.13522    0.077405      0.1284    0.047523
0.0026992  -0.0021729   0.0020496    0.089748    0.045574     0.12678    0.022837
-0.010618  -0.0034721   0.0039985    0.054993    0.024786     0.12093   0.0046481
-0.0099683  0.00010078   0.0072465    0.030957    0.020564     0.10826  -0.0050961
-0.0028225   0.0046481   0.0052977    0.016016    0.031282    0.088124  -0.0076946
0.0014   0.0062721  -0.0011985   0.0078962    0.044599    0.061165  -0.0073698
-0.00054884   0.0062721  -0.0093186   0.0059473    0.043625    0.030957  -0.0093186
-0.0047713   0.0085458   -0.016789   0.0085458    0.016666 -0.00087364   -0.012242
-0.011267    0.012119   -0.019712   0.0085458   -0.037577   -0.032705   -0.014191
-0.015815    0.016991   -0.016464   0.0036737    -0.11066   -0.060963    -0.01484
-0.018088     0.01894  -0.0073698  -0.0050961    -0.18569   -0.084024   -0.011917
-0.019063    0.020239   0.0046481   -0.014191    -0.23636    -0.10741  -0.0057458
-0.021661    0.021213    0.016016   -0.020687    -0.25357    -0.13275  -0.0034721
-0.02426    0.021863    0.023162   -0.024909    -0.23863     -0.1623  -0.0073698
-0.026209    0.019264    0.026735   -0.027183    -0.19738    -0.19576   -0.013866
-0.025884    0.014717    0.024786   -0.028482     -0.1321    -0.22889   -0.021661
-0.019063   0.0095202     0.01764   -0.033679   -0.050569    -0.26364   -0.026533
-0.008669   0.0059473    0.010819   -0.046347    0.034206    -0.30229    -0.03173
0.0017248   0.0036737   0.0085458   -0.062587     0.10566    -0.34127   -0.036278
0.0069217   0.0023744    0.012119   -0.079802     0.15796    -0.37765   -0.040175
0.0062721   0.0026992    0.016341   -0.092794     0.19044    -0.41143   -0.046996
-0.0031473   0.0043233    0.020239    -0.10124     0.20311    -0.43319   -0.056741
-0.019388   0.0026992    0.021538    -0.10481     0.18751    -0.43774   -0.068434
-0.038876  -0.0057458    0.019264    -0.10254     0.12807    -0.41825   -0.080127
-0.058689   -0.019388    0.016016   -0.093444    0.014068     -0.3744   -0.089871
-0.073306   -0.031406    0.011144   -0.084024    -0.13729    -0.31821   -0.095717
-0.078827   -0.040175   0.0072465   -0.081101     -0.2854    -0.26494    -0.09994
-0.076554   -0.045697   0.0043233   -0.089871    -0.39292    -0.22369    -0.10091
-0.070058   -0.045697   0.0020496    -0.10286    -0.43612    -0.19641   -0.097017
-0.063886   -0.041475 -0.00054884    -0.10936    -0.40493    -0.17757    -0.09117
-0.05739   -0.034978  -0.0073698    -0.10481    -0.30067     -0.1636   -0.082076
-0.04927   -0.026209   -0.018413   -0.093119    -0.14249    -0.15321   -0.073955
-0.039851   -0.017114   -0.028482   -0.079802    0.050771    -0.14152   -0.069083
-0.028482  -0.0089938   -0.032055   -0.079477      0.2619    -0.12527   -0.066485
-0.017439  -0.0028225    -0.03303    -0.10286     0.47789    -0.10286   -0.063886
-0.0083442  -0.0011985   -0.032055    -0.15418     0.67797   -0.078503   -0.059664
-0.0024977  -0.0044465   -0.028482    -0.23311     0.81862    -0.05739   -0.051868
-0.0034721  -0.0089938   -0.025559    -0.33283     0.83875   -0.043748   -0.040825
-0.012567   -0.013216   -0.031081    -0.43547     0.65102   -0.043099    -0.03303
-0.026858   -0.018413   -0.041799    -0.52284     0.17842   -0.059014   -0.034654
-0.041475   -0.026209   -0.051544    -0.57253    -0.54395   -0.085648   -0.044723
-0.052518   -0.032705   -0.051219    -0.53908     -1.3092    -0.10741   -0.060313
-0.057065   -0.031081   -0.035303    -0.39194      -1.851    -0.10644   -0.074605
-0.054142   -0.017439 -0.00054884    -0.15126     -1.9751   -0.072006   -0.080451
-0.046671   0.0052977    0.048497       0.131     -1.6619   -0.012567   -0.076554
-0.037577    0.025761    0.099492     0.39279     -1.0604    0.054344   -0.069733
-0.031081    0.036154      0.1323     0.56754    -0.38447     0.11378   -0.065186
-0.028482    0.038753     0.13684     0.60684     0.17712     0.16088   -0.059664
-0.025884    0.039402     0.11703      0.5003     0.52142     0.19499   -0.047321
-0.015815    0.043625    0.088773      0.2921     0.63965     0.22129   -0.027833
0.0043233    0.048497    0.065712    0.074806     0.57858     0.24533  -0.0047713
0.023162    0.047523    0.046873   -0.056416     0.41845     0.26417     0.01764
0.03453    0.033881    0.028034    -0.04862     0.23818     0.27099    0.041351
0.035505     0.01017   0.0023744      0.0865     0.09397     0.26579    0.064737
0.031932   -0.017439   -0.025884     0.28301    0.021213     0.25378    0.084226
0.028684   -0.040825   -0.050894     0.45873     0.01894     0.24306    0.098517
0.02641   -0.047971   -0.067784     0.56234    0.061165     0.23624     0.10501
0.024786   -0.040825   -0.072656     0.58151     0.11963     0.23039     0.10436
0.022512   -0.021337   -0.062587     0.53603      0.1768     0.22389    0.097868
0.019589 -0.00054884   -0.040175     0.46035     0.22259     0.21675    0.088448
0.013743    0.013093   -0.012242      0.3837     0.25637       0.207    0.077405
0.0046481    0.019264    0.013743     0.31874     0.26547     0.19011    0.061814
-0.0050961    0.019264    0.026085     0.25995     0.21642     0.16315    0.041676
-0.014516    0.012768    0.019264     0.19499    0.082277     0.12385    0.022512
-0.024909   0.0020496  -0.0018481     0.11963    -0.15093    0.073832    0.008221
-0.030756  -0.0093186   -0.027833    0.039402    -0.45528     0.01894 -0.00022403
-0.032705   -0.019712   -0.052193   -0.037902    -0.75345   -0.036927  -0.0037969
-0.035953   -0.029782   -0.069733    -0.10579    -0.94509   -0.084999  0.00075039
-0.038227   -0.038227   -0.079152    -0.15646    -0.95906    -0.11651   0.0078962
-0.034654   -0.040825   -0.078503    -0.18439    -0.78918     -0.1243    0.015367
-0.025884   -0.036278   -0.069733    -0.18829    -0.49328    -0.10611    0.022512
-0.01484   -0.025884   -0.059014    -0.17237    -0.15646   -0.065186    0.026085
-0.0047713   -0.012567   -0.044723    -0.14444      0.1349   -0.019063    0.022188
0.0014  0.00010078   -0.029782    -0.11683     0.31192     0.02641    0.014392
0.0052977   0.0088706   -0.019712    -0.10221     0.34764    0.064413   0.0056225
0.0088706    0.014068   -0.018088    -0.10644     0.25118    0.092346   0.0010752
0.014392    0.017316   -0.025234    -0.11943    0.057592     0.10631  -0.0015233
0.019914    0.016666   -0.034978    -0.12592    -0.17107     0.10566  -0.0044465
0.027385    0.012443     -0.0405    -0.11131    -0.36433    0.091696  -0.0099683
0.031932     0.01017   -0.037252    -0.07493    -0.47055    0.069934   -0.020687
0.027385     0.01017   -0.023935   -0.028482    -0.47087    0.046873   -0.030106
0.012119    0.011469  -0.0076946   0.0052977    -0.38025    0.027709   -0.035953
-0.0096434    0.012443   0.0062721    0.009845    -0.22921    0.017965   -0.038551
-0.028482    0.013743    0.016016  -0.0031473   -0.050569    0.012768   -0.037577
-0.036602    0.015042    0.023812   -0.014191     0.12807    0.011794    -0.03173
-0.03303    0.015042    0.030957    -0.01484     0.28463    0.013093   -0.018738
-0.023285    0.017316    0.036154   -0.011267     0.40936    0.014392  0.00042559
-0.013216     0.01829    0.039727   -0.013541     0.49641    0.017965    0.021538
-0.0047713    0.018615    0.042651   -0.027183      0.5461    0.023812    0.038103
0.00075039    0.016666    0.040377   -0.050244     0.55747    0.025111    0.047523
0.0069217    0.016341    0.026735   -0.077853     0.54513    0.015367    0.048172
0.010495    0.015367 -0.00022403   -0.098965     0.51849  -0.0057458    0.040052
0.013093    0.013418   -0.027183    -0.10124     0.47822   -0.031081    0.024461
0.013418    0.009845   -0.044073   -0.076229      0.4256   -0.050894   0.0075714
0.011794   0.0062721   -0.041799   -0.032055     0.36226   -0.059339  -0.0011985
0.009845   0.0049729   -0.024909    0.015692     0.29568   -0.053492  0.00075039
0.009845   0.0085458  0.00010078    0.050771     0.23883   -0.033679   0.0091954
0.012443    0.016991    0.025111    0.065712     0.20343  -0.0060706    0.021213
0.015692     0.02706     0.04395    0.067661     0.19076    0.018615    0.029009
0.016991    0.031607    0.054668    0.064088     0.19271    0.033881    0.028034
0.015692    0.029333    0.057917    0.058566     0.20116    0.038428    0.021213
0.012119     0.01829    0.057267    0.052395     0.21707    0.035505    0.014717
0.008221    0.003024    0.051745    0.042975     0.24923    0.025111    0.012443
0.0039985   -0.012892    0.038103    0.030308     0.32036    0.010495    0.010495
0.00010078    -0.02361    0.016666    0.013743     0.44574  -0.0060706   0.0033489
-0.0067202   -0.025234  -0.0073698  -0.0067202     0.61366   -0.021661   -0.008669
-0.014516   -0.021012   -0.026533   -0.027508     0.78873    -0.03303   -0.019712
-0.021012   -0.018088   -0.038227   -0.046347       0.931   -0.043748   -0.027833
-0.025884   -0.020362   -0.044398   -0.061613      1.0138   -0.057715   -0.028807
-0.024909   -0.025559   -0.044398   -0.070382      1.0268   -0.073955   -0.023935
-0.013541   -0.027508   -0.038876   -0.073306     0.97192   -0.089221   -0.016464
0.0039985   -0.021661   -0.029782   -0.070707     0.86084    -0.10026  -0.0089938
0.021863  -0.0076946   -0.018088   -0.061937     0.71728    -0.10481  -0.0028225
0.03583   0.0059473  -0.0054209   -0.049595     0.56364    -0.10774   0.0020496
0.041351    0.016666   0.0065969   -0.035303     0.42073    -0.10871   0.0056225
0.038753    0.020888    0.016666   -0.021012     0.29827    -0.10709   0.0056225
0.028034    0.018615    0.021213   -0.011267     0.19466    -0.10319   0.0036737
0.014392    0.011794    0.024137  -0.0037969     0.10306    -0.09929  0.00075039
0.0023744   0.0036737    0.026735   0.0010752    0.016016   -0.097991  0.00042559
-0.0037969 -0.00054884    0.030308   0.0043233   -0.067459   -0.098641   0.0052977
-0.0011985  0.00075039    0.032906   0.0056225    -0.14541   -0.097666    0.017965
0.009845   0.0078962    0.029658   0.0052977     -0.2081   -0.089546    0.033556
0.024137    0.017965    0.019589   0.0056225    -0.24935   -0.072981    0.045249
0.034855     0.02706    0.009845   0.0085458    -0.26462   -0.050894     0.05207
0.039078    0.030633   0.0072465    0.014068    -0.25942   -0.028482    0.054019
0.037129    0.027709    0.011469    0.017965    -0.23993   -0.010293    0.053044
0.030633    0.019589    0.016341    0.014717    -0.21297   0.0046481    0.048822
0.023812   0.0065969    0.014392  0.00042559    -0.18861     0.01764    0.041351
0.015692  -0.0067202   0.0065969   -0.022311    -0.17432    0.027709     0.03583
0.0036737   -0.017764  -0.0034721   -0.045697    -0.17367    0.034855    0.033231
-0.012892   -0.022311   -0.010943   -0.060638    -0.18439    0.038753    0.033231
-0.027833   -0.018413   -0.013541   -0.067459    -0.20258    0.042326    0.033231
-0.035303  -0.0080194    -0.01549    -0.07428    -0.22272    0.050121    0.035505
-0.032705   0.0046481   -0.018738    -0.09929    -0.23051    0.067986    0.038103
-0.02361    0.016341   -0.027183    -0.15386    -0.22174    0.099167    0.038103
-0.011917    0.024137   -0.041475    -0.24675    -0.20485     0.13652     0.03518
-0.0037969    0.027709   -0.060313    -0.36758    -0.19608     0.16445    0.033231
-0.0034721    0.022837   -0.077853    -0.49231    -0.20225     0.17257    0.036804
-0.013866    0.013418   -0.090196    -0.59592    -0.21622     0.16478    0.042651
-0.03173   0.0039985   -0.093119    -0.66283    -0.23019     0.14334    0.042651
-0.043423 -0.00054884   -0.084674    -0.68005    -0.23863     0.10826    0.033556
-0.044723    0.003024   -0.063886    -0.59917    -0.23409    0.066686     0.01829
-0.035953    0.011469   -0.027183    -0.33737    -0.19998    0.028684      0.0014
-0.023935    0.021538    0.023162     0.12905    -0.12235   0.0026992    -0.01484
-0.012242    0.036479    0.083576     0.66953   0.0036737  -0.0041217   -0.027183
-0.00087364    0.056292     0.14237      1.0755     0.15309   0.0072465   -0.032055
0.010495    0.075131     0.18037      1.1999     0.27749    0.031607   -0.027833
0.022188    0.083251     0.18427      1.0297     0.33595    0.056942   -0.017439
0.03453    0.078379     0.14789      0.6731     0.30964    0.073832   -0.007045
0.044275    0.060515     0.07773     0.27684     0.20051    0.076755  0.00075039
0.047847    0.034855   -0.007045   -0.048296    0.027385    0.064737   0.0049729
0.044599   0.0085458   -0.084674    -0.25585    -0.17432    0.038103     0.01017
0.034855   -0.012892    -0.13827    -0.35914    -0.36011   0.0026992    0.015692
0.021538   -0.024585    -0.16263    -0.39844      -0.504   -0.034654    0.020239
0.0065969   -0.028807    -0.16133    -0.39129    -0.60307   -0.071357    0.016666
-0.0063954   -0.030106    -0.14411    -0.30912    -0.66283    -0.10319   0.0072465
-0.018088   -0.026209     -0.1178    -0.12235    -0.68654      -0.123  -0.0041217
-0.026533   -0.017764   -0.085648     0.15698     -0.6729    -0.12722   -0.011267
-0.026533  -0.0047713   -0.044723     0.46847    -0.62515    -0.11553    -0.01549
-0.017114   0.0091954  -0.0015233     0.73741    -0.56019   -0.096692   -0.018088
-0.0028225    0.019914    0.031607     0.90047    -0.50043   -0.081426   -0.020037
0.0095202    0.026085    0.047523     0.92743      -0.466   -0.073306    -0.02361
0.01829    0.027385    0.048172     0.83551    -0.47282   -0.071357   -0.026209
0.020239    0.024137    0.040052     0.67473    -0.51992   -0.075904   -0.025884
0.013418    0.019264    0.030308     0.49673    -0.58748   -0.084349   -0.022311
-0.00022403    0.011469    0.021863     0.32816    -0.64594   -0.093119   -0.022961
-0.013216   0.0033489    0.014717     0.17647    -0.68232    -0.09994    -0.03303
-0.021012  -0.0034721   0.0056225    0.042975    -0.70018    -0.10416   -0.049595
-0.022961  -0.0089938  -0.0060706   -0.068109    -0.71188    -0.11131   -0.064536
-0.021986   -0.015165   -0.015815    -0.15321     -0.7213    -0.12495   -0.075579
-0.023285   -0.019712   -0.022636    -0.21525    -0.71318    -0.14119   -0.081426
-0.027508   -0.021337   -0.029782    -0.26202    -0.66738    -0.15321   -0.084024
-0.034004   -0.022961   -0.036602    -0.29807    -0.57546    -0.15678   -0.079477
-0.041475   -0.026209   -0.042774    -0.30912    -0.44229    -0.15256   -0.070058
-0.049595   -0.027508   -0.041475    -0.26592    -0.27728    -0.13924   -0.054792
-0.053817   -0.022636   -0.037252    -0.15905    -0.10059    -0.11943   -0.035303
-0.047646   -0.013541   -0.030431   -0.019063    0.059541   -0.096692   -0.019388
-0.031081  -0.0037969    -0.02426     0.10047      0.1781   -0.078827  -0.0076946
-0.0083442 -0.00054884   -0.019388     0.16153     0.23429    -0.06681  -0.0031473
0.010495  -0.0031473   -0.015815     0.15503     0.22259   -0.059014  -0.0054209
0.015042  -0.0076946  -0.0099683     0.09397     0.15698    -0.05739   -0.012242
0.0049729   -0.012242  -0.0031473   0.0026992    0.053044   -0.064861   -0.019712
-0.0093186   -0.014516   0.0056225   -0.084024    -0.06681   -0.079152   -0.024909
-0.022311   -0.013866    0.016991    -0.13859    -0.18277    -0.10546   -0.030431
-0.034978  -0.0096434    0.029333    -0.15191    -0.27436    -0.14379   -0.045372
-0.045697  -0.0015233     0.03518    -0.13697    -0.32113    -0.18959   -0.072656
-0.051868    0.010495    0.033881    -0.11586    -0.31139    -0.23311    -0.10189
-0.04992    0.023487     0.02641    -0.10351    -0.24903    -0.26007    -0.11975
-0.044073    0.032582    0.012119    -0.10319    -0.15776    -0.26364    -0.12008
-0.036278    0.033231  -0.0034721    -0.10741    -0.05804    -0.24286    -0.10676
-0.033679    0.024786    -0.01549    -0.10968    0.040377    -0.19901   -0.082725
-0.034329    0.009845   -0.021012    -0.11391     0.13522    -0.13924   -0.050569
-0.036278  -0.0031473   -0.020037    -0.12722     0.22617   -0.075579    -0.01549
-0.039851   -0.015165   -0.021337    -0.14834     0.30542   -0.019063    0.016991
-0.042449   -0.025559   -0.031081    -0.17335     0.36616    0.022512    0.040377
-0.041799   -0.035628   -0.047646    -0.20096     0.40643    0.046873    0.054019
-0.034329     -0.0405   -0.067459    -0.23311     0.42462    0.057592    0.058241
-0.022311   -0.038876   -0.085973    -0.26819     0.42105    0.061489    0.056942
-0.0096434   -0.031406    -0.09929    -0.29515     0.38987    0.061165    0.053044
-0.00022403   -0.021337    -0.10709    -0.30359     0.32848    0.054344    0.049472
0.0049729   -0.010618    -0.10351    -0.28346     0.24241     0.03583    0.046223
0.0075714  -0.0044465   -0.086623    -0.23376     0.14561   0.0062721    0.039727
0.011144  -0.0050961   -0.055441    -0.16263    0.058241   -0.028482    0.029333
0.014392   -0.011917   -0.015165   -0.085973   0.0020496    -0.05739    0.013743
0.015692   -0.018738    0.023812   -0.017439   -0.010618    -0.07428 -0.00087364
0.012443   -0.025884    0.046548    0.037129     0.01829   -0.077203  -0.0096434
0.0056225   -0.029782    0.045899    0.078704    0.077405   -0.069733  -0.0076946
0.0010752   -0.027833    0.032257     0.10436     0.14594   -0.056416   0.0056225
0.0010752   -0.018738    0.021538     0.10859      0.2057   -0.037902    0.026735
0.0078962  -0.0047713    0.025436    0.087799      0.2463   -0.013541    0.048172
0.019589    0.010495    0.039078    0.042001     0.26417    0.017316    0.062789
0.026735    0.022188     0.05272   -0.018088     0.25735    0.049796    0.070909
0.027385    0.028684    0.059865   -0.070382     0.22714    0.078055    0.070584
0.01894    0.029333    0.058566   -0.095717     0.18524    0.098193    0.062789
0.0065969    0.024786    0.051096   -0.088896     0.14432     0.10469    0.047847
-0.0021729     0.01764    0.038753   -0.069408     0.11054     0.10339    0.030308
-0.0060706   0.0072465    0.020564   -0.068434      0.0852     0.10047    0.014392
-0.0011985  -0.0024977  -0.0031473    -0.11261    0.072533     0.10274   0.0088706
0.010819  -0.0089938   -0.035303    -0.19933     0.06831     0.11248    0.014392
0.027385   -0.012242   -0.069083    -0.29482    0.063763     0.12613    0.023812
0.039727   -0.013216   -0.097341    -0.34647    0.041676     0.13555    0.029333
0.042975    -0.01484    -0.11066    -0.31626   -0.010618      0.1323    0.026085
0.035505    -0.02361    -0.10416    -0.20615   -0.090845     0.11443    0.014068
0.024137   -0.035628   -0.081426   -0.054467    -0.18407    0.084551    0.003024
0.013093   -0.046996   -0.050569    0.092346    -0.26689    0.054668  0.00042559
0.0065969   -0.052843   -0.019388     0.19791    -0.31983     0.03518   0.0062721
0.0036737    -0.04992   0.0026992      0.2515    -0.33543    0.033231    0.015042
0.0010752   -0.041799    0.015367     0.26839    -0.31854    0.045899    0.017965
-0.0021729   -0.031081    0.022188     0.26904    -0.28021    0.066362    0.016016
-0.0057458   -0.022961    0.029333     0.25605    -0.23051     0.07708     0.01017
-0.011917   -0.020037    0.034855     0.21902    -0.16782    0.071558   0.0023744
-0.020687   -0.021012    0.035505     0.14269   -0.080776    0.051096  -0.0054209
-0.03303   -0.026209    0.023812    0.020564    0.038428    0.023162   -0.012242
-0.045697   -0.030756   0.0036737    -0.14184     0.17712  -0.0021729   -0.014191
-0.055116   -0.033354   -0.018413    -0.31691     0.31484   -0.014516   -0.012567
-0.05739    -0.03303   -0.031406    -0.45983      0.4269   -0.012567   -0.010293
-0.049595   -0.028482   -0.028482    -0.50205      0.5068   0.0056225   -0.008669
-0.030431   -0.018738  -0.0073698    -0.39584     0.56267    0.034206  -0.0089938
-0.0031473  -0.0057458    0.027385    -0.16815      0.5984    0.064413  -0.0076946
0.023162   0.0078962     0.06084    0.091696     0.60879    0.086175  -0.0024977
0.042651    0.022837    0.084226     0.29243      0.5867    0.095919   0.0065969
0.050771    0.033881    0.092996     0.38467     0.52889    0.091696    0.016666
0.045899    0.034855    0.086824     0.37103     0.44151    0.078704    0.023812
0.031932    0.024137    0.074482     0.28918     0.34245    0.064088    0.022512
0.012768   0.0059473    0.061489     0.19141      0.2515    0.051096    0.015692
-0.0067202  -0.0099683    0.049472     0.11541     0.18719    0.039727   0.0072465
-0.024585   -0.018413    0.041027    0.075131     0.15471    0.032906  -0.0050961
-0.037577   -0.020037    0.040702    0.067336     0.15179    0.029333   -0.018088
-0.047971   -0.016464     0.05272    0.080328     0.17647    0.026085   -0.030756
-0.057715   -0.010293    0.071883    0.099492     0.22357    0.022837   -0.042124
-0.06551  -0.0054209    0.089423     0.11606     0.27716    0.014392   -0.051868
-0.072006  -0.0031473    0.095269      0.1245     0.31516  -0.0021729   -0.059339
-0.077528  -0.0028225    0.089423     0.12158     0.32978   -0.030106   -0.067134
-0.078503  -0.0024977    0.075456     0.10306     0.33693   -0.062912   -0.072006
-0.071682  0.00075039    0.058241    0.072533     0.36583   -0.092145   -0.070707
-0.05739   0.0046481    0.044275    0.037129     0.43404    -0.11423   -0.061288
-0.038551   0.0052977    0.037778   0.0026992     0.53376     -0.1282   -0.046671
-0.019712   0.0026992    0.037129   -0.027833     0.63218    -0.13632   -0.030756
-0.0050961  -0.0034721    0.037454   -0.047971     0.67538    -0.13469   -0.016789
0.0033489   -0.011592    0.030308   -0.053168     0.60229      -0.123  -0.0028225
0.0095202   -0.019388   0.0085458   -0.054142       0.385    -0.10059    0.013418
0.014717    -0.02426   -0.029782    -0.06616    0.053044   -0.066485    0.033556
0.022188   -0.024585   -0.078178    -0.10156    -0.31594   -0.027833    0.057267
0.031607   -0.018413    -0.12722    -0.15711    -0.63652   0.0085458    0.080978
0.0433   -0.010293    -0.16653    -0.21135    -0.84732    0.040052     0.10014
0.053369  -0.0021729    -0.18926    -0.23961    -0.93112    0.061165     0.11248
0.056617   0.0046481    -0.19316    -0.23538    -0.92333     0.06831     0.11476
0.052395   0.0069217    -0.18309    -0.20128    -0.89344    0.055643     0.10631
0.039402      0.0014     -0.1649    -0.13957    -0.90221    0.023487    0.088124
0.022512  -0.0041217    -0.14379   -0.053817    -0.96653   -0.017439    0.057592
0.0059473  -0.0034721    -0.11715    0.041676     -1.0529   -0.055441    0.023162
-0.0034721   0.0033489   -0.084674      0.1258     -1.1068   -0.081751  -0.0028225
-0.0067202    0.012768   -0.050244     0.17972     -1.0874   -0.093769    -0.01614
-0.008669    0.021213   -0.018413     0.19693    -0.98926   -0.093119   -0.022311
-0.010943    0.028034   0.0043233     0.18167    -0.82978   -0.087597   -0.026533
-0.0093186    0.032906    0.016016     0.14626    -0.64172     -0.0837    -0.03173
-0.0044465    0.034206    0.017316     0.10924    -0.45301   -0.087922   -0.039851
0.00010078    0.033556    0.012768    0.082602    -0.26884    -0.09994   -0.047321
0.0036737    0.029658   0.0069217    0.072533   -0.082725    -0.11293   -0.051219
0.0065969    0.023162   0.0017248    0.072858     0.10404    -0.12138   -0.049595
0.010819    0.014717 -0.00022403    0.079029     0.27814    -0.12365   -0.043423
0.017316   0.0043233   0.0026992    0.084876     0.41618     -0.1191   -0.033354
0.025111  -0.0060706   0.0065969    0.086824      0.5003    -0.10806   -0.022636
0.031932   -0.015165    0.011794    0.085525     0.52239   -0.087922   -0.017764
0.03518   -0.019712    0.015367    0.084551     0.49608   -0.062262   -0.020687
0.03518   -0.017764    0.014717      0.0852     0.43924   -0.036278   -0.028157
0.032257   -0.011267   0.0091954    0.081303     0.37006   -0.016464   -0.036278
0.027385  -0.0028225   0.0010752    0.072208     0.30445  -0.0047713   -0.042449
0.021863   0.0036737  -0.0054209    0.058241      0.2541   0.0039985   -0.045047
0.014392   0.0043233  -0.0067202     0.04395     0.23234    0.017316     -0.0405
0.0065969  0.00042559  -0.0054209     0.03583     0.24208    0.033881   -0.029132
-0.0015233  -0.0034721  -0.0063954    0.041351     0.27489    0.053369   -0.014516
-0.0060706  -0.0054209   -0.010618    0.060515     0.31354    0.076106 -0.00022403
-0.0034721  -0.0050961   -0.013541    0.087474     0.33855    0.099167   0.0095202
0.0036737  -0.0028225   -0.010943     0.11606     0.34147     0.11703    0.014392
0.011144  0.00075039  -0.0011985     0.14074     0.32134     0.12093    0.015692
0.016666   0.0036737    0.012119     0.15731     0.28723     0.10761    0.015042
0.014068   0.0046481    0.021213     0.16478     0.25085    0.081952    0.012443
0.0056225   0.0062721    0.019589     0.15731      0.2057    0.052395   0.0091954
-0.0083442    0.010495   0.0091954     0.12158     0.14042    0.026735   0.0039985
-0.020687    0.015692  -0.0054209     0.05207    0.063113   0.0069217  -0.0037969
-0.030431    0.015367   -0.020037   -0.040175  -0.0024977  -0.0089938   -0.014516
-0.037902   0.0069217   -0.031081    -0.12917   -0.029457   -0.018413   -0.028157
-0.046671  -0.0044465   -0.037577    -0.18829  -0.0037969   -0.021337   -0.039851
-0.054142    -0.01549   -0.039201    -0.19933     0.06961   -0.019063   -0.045047
-0.054467   -0.023285   -0.037577    -0.16523     0.17615   -0.013216   -0.044073
-0.047321   -0.024585   -0.036278    -0.10124     0.29145  -0.0057458   -0.038551
-0.037902   -0.023285   -0.035628    -0.03303     0.38597 -0.00022403   -0.033679
-0.030106   -0.021337   -0.034004    0.017316     0.43599   0.0033489    -0.03173
-0.028157   -0.019712   -0.026209    0.047523      0.4243   0.0065969   -0.030106
-0.030106   -0.019063   -0.015815    0.060515     0.33887    0.010819   -0.027183
-0.031081   -0.020362  -0.0063954    0.063113     0.18687    0.012768   -0.029132
-0.022636   -0.022311  -0.0057458     0.06019   0.0039985   0.0095202   -0.036927
-0.0034721   -0.022636    -0.01484    0.053044    -0.16328   0.0010752   -0.042449
0.016991   -0.018088   -0.024585      0.0433    -0.27793   -0.007045   -0.045372
0.031282  -0.0096434   -0.029782    0.031932     -0.3338  -0.0083442    -0.04862
0.033556  -0.0011985   -0.025884    0.018615    -0.35946  -0.0011985    -0.04992
0.022188   0.0039985   -0.017764   0.0036737    -0.39357   0.0075714   -0.051219
0.0039985   0.0033489  -0.0096434   -0.022636    -0.46015    0.011469   -0.054792
-0.017764  -0.0041217  -0.0050961   -0.072331    -0.55532     0.01017   -0.060963
-0.035628   -0.013866  -0.0099683    -0.15029    -0.65244   0.0033489   -0.068758
-0.048296   -0.021661   -0.031081     -0.2435     -0.7213   -0.012242   -0.075904
-0.055766   -0.026209   -0.063561     -0.3351    -0.73656   -0.036927   -0.079152
-0.057715   -0.028157   -0.095717    -0.41111    -0.68362   -0.065186   -0.076554
-0.053817   -0.029132    -0.11845    -0.46048    -0.57416   -0.088247    -0.06681
-0.046022   -0.029782    -0.12398    -0.46762    -0.43092    -0.09929   -0.055116
-0.037902   -0.030431    -0.10903     -0.4228    -0.27404    -0.10026   -0.043099
-0.030431   -0.023935   -0.068434    -0.32406    -0.11423   -0.088247   -0.028482
-0.021337  -0.0047713   -0.010293    -0.17724    0.041351   -0.058689   -0.011917
-0.0044465    0.025436    0.054344   -0.014191     0.18232   -0.015165   0.0072465
0.01829    0.061489     0.10924     0.13132      0.2934    0.030633    0.025436
0.039727    0.092671     0.14204     0.24663     0.35024    0.063438    0.041676
0.055968     0.11281     0.14756     0.33725     0.33952    0.075456    0.051745
0.067661     0.12028     0.12645     0.41488     0.26384     0.06831    0.055643
0.075456     0.11508    0.084876     0.47887     0.14107    0.048172    0.053044
0.080978    0.098842    0.032582      0.5081   0.0026992    0.025111    0.049796
0.082602    0.077405    -0.01549     0.49673    -0.11456   0.0059473    0.051745
0.080978    0.061165   -0.037902     0.46717    -0.18147  -0.0060706     0.06084
0.082602    0.057592   -0.026858     0.45743    -0.19089   -0.013216     0.06961
0.0865    0.067661    0.015367     0.47919    -0.16328   -0.022636    0.075781
0.087799    0.083251    0.064088     0.50842    -0.13177   -0.034654     0.07708
0.081627    0.091047    0.097868     0.49836    -0.12268   -0.047321    0.075131
0.066686      0.0865     0.10274     0.41585    -0.13957   -0.053817    0.071234
0.044599    0.072533    0.077405     0.26904    -0.17237   -0.053168    0.069285
0.021863    0.055968     0.03453    0.097868    -0.21005   -0.045372     0.06961
0.0065969     0.04395   -0.010618   -0.052193    -0.23896   -0.034004     0.06961
0.00010078    0.036479   -0.046996    -0.14996    -0.24805   -0.020362    0.065387
-0.0031473    0.032582   -0.065835    -0.18439    -0.22856  -0.0096434    0.055643
-0.0054209    0.029983   -0.061288    -0.16393    -0.17724  -0.0011985     0.04395
-0.0054209    0.030633   -0.034654    -0.10709   -0.092145   0.0043233    0.037129
-0.0028225     0.03518   0.0017248   -0.039201    0.015042    0.012119    0.036804
0.0014    0.041351     0.02641    0.011469      0.1258    0.021538    0.040052
0.0085458     0.04395     0.02706    0.015692     0.20765    0.029658    0.043625
0.019264    0.038753      0.0014   -0.049595     0.23559    0.033231    0.050121
0.030633    0.027709   -0.043423    -0.16328     0.20668     0.03583    0.058891
0.040702    0.015367   -0.089546    -0.26559     0.14399    0.041351     0.06831
0.048172   0.0069217    -0.11683    -0.30847    0.078379     0.05272    0.076755
0.054019   0.0056225    -0.10741    -0.29028    0.030633    0.070909    0.084551
0.057267    0.013093   -0.063561    -0.23571   0.0049729      0.0865    0.089098
0.056292    0.026735  -0.0021729    -0.17854  -0.0054209     0.09397    0.089423
0.049472    0.042001    0.050771    -0.13469    -0.01484    0.091696    0.083576
0.036154    0.052395    0.083251   -0.097341   -0.038876    0.079354    0.072208
0.01764    0.056617    0.094295   -0.055441   -0.083375     0.06019    0.054668
0.00042559    0.052395    0.090072  -0.0011985    -0.14216    0.039727    0.033231
-0.0093186    0.040052    0.076106    0.060515    -0.20193    0.022837    0.012768
-0.011267    0.022837    0.055968     0.11801       -0.25    0.014068  -0.0034721
-0.0067202   0.0065969    0.034855     0.15698    -0.28248    0.014392   -0.015815
-0.0028225  -0.0060706    0.015042     0.16933    -0.30262     0.01894   -0.026533
-0.0044465   -0.014516  0.00075039     0.15601    -0.30782    0.021863   -0.038551
-0.012892   -0.018088  -0.0060706     0.12288    -0.28573    0.017965   -0.050569
-0.024585   -0.020362  -0.0054209    0.079679    -0.23051   0.0069217    -0.05804
-0.035628   -0.024585 -0.00087364    0.034855    -0.14444   -0.014516   -0.059664
-0.047971    -0.03173   0.0065969  -0.0063954   -0.038551   -0.050244   -0.054792
-0.060313   -0.038227    0.011469   -0.041799    0.072858   -0.093444   -0.050569
-0.067459   -0.043423    0.012443   -0.068109     0.18004     -0.1321   -0.051868
-0.069408   -0.042774   0.0075714   -0.084349     0.26612      -0.161   -0.057065
-0.065186   -0.037902  -0.0021729   -0.094743     0.31646    -0.17952   -0.061613
-0.059664   -0.032705  -0.0099683    -0.10156     0.32361    -0.19251   -0.060313
-0.053817   -0.029132   -0.013866    -0.10774     0.28496    -0.20713   -0.055766
-0.052193   -0.025234   -0.014191    -0.11326     0.21252    -0.21947   -0.052518
-0.054142   -0.023285   -0.015815     -0.1178     0.13035    -0.22986   -0.051219
-0.059014   -0.025559   -0.022311    -0.12008    0.068635    -0.23733   -0.052193
-0.063561   -0.032705   -0.031081    -0.11975    0.048172    -0.24675   -0.053168
-0.063886   -0.042449   -0.039201    -0.11683    0.062139    -0.25455    -0.05804
-0.059989   -0.049595   -0.043748    -0.11391    0.083901    -0.26202    -0.06551
-0.053817   -0.056416   -0.048296    -0.11066    0.080328    -0.27046   -0.067134
-0.044723   -0.060638   -0.051544    -0.10611    0.029983    -0.27631   -0.061288
-0.038551   -0.063237    -0.04992   -0.097341   -0.058689    -0.28183   -0.047321
-0.036927   -0.062587   -0.040825   -0.084999    -0.15386    -0.29028   -0.029132
-0.039201   -0.059014   -0.030106   -0.069408    -0.22954    -0.30359   -0.010618
-0.04115   -0.051219   -0.020687   -0.053168    -0.26884    -0.31854      0.0014
-0.044398   -0.040825   -0.019712   -0.039201    -0.26624    -0.32633   0.0059473
-0.046022   -0.030756   -0.026858   -0.030431    -0.23831    -0.31724   0.0026992
-0.042774    -0.02426   -0.036278   -0.028807    -0.21427    -0.28313  -0.0063954
-0.032705   -0.022311   -0.042124    -0.03303     -0.2172    -0.22337   -0.016464
-0.02361   -0.024909   -0.045047   -0.041475    -0.24578    -0.14379   -0.020687
-0.021661   -0.031081   -0.047646   -0.051868    -0.28443   -0.054792    -0.01549
-0.025234   -0.036278   -0.051868   -0.061613    -0.31269    0.030633  -0.0050961
-0.029782   -0.039201   -0.055116   -0.069083    -0.31399     0.10404   0.0059473
-0.034329    -0.04115   -0.052843   -0.070707    -0.28768     0.15666    0.014392
-0.036927    -0.04115   -0.046671   -0.070382    -0.24708     0.18914     0.01764
-0.034978   -0.040825   -0.042774    -0.06616    -0.20388      0.2083    0.014717
-0.029457   -0.039526   -0.042449   -0.056091    -0.16003     0.22227   0.0088706
-0.021661   -0.035303   -0.040825   -0.043423   -0.099615     0.23591   0.0033489
-0.018088   -0.030106   -0.035953   -0.032705  -0.0031473      0.2489   0.0010752
-0.019063   -0.022636   -0.027508   -0.027833     0.13555     0.26482   0.0020496
-0.022961   -0.016464   -0.020037   -0.028482      0.2999     0.28041   0.0036737
-0.024909   -0.011917   -0.020037   -0.028807     0.45483     0.29145   0.0059473
-0.021986   -0.012892   -0.027833   -0.024909     0.56429     0.29405   0.0095202
-0.014516   -0.018088   -0.038876   -0.017764     0.60359     0.28268    0.015692
-0.0054209    -0.02426   -0.045047   -0.010943     0.56332     0.25313    0.021538
-0.00087364   -0.028157   -0.043099  -0.0057458     0.46133     0.20928    0.022188
-0.00022403   -0.027508   -0.033679  -0.0050961     0.33075     0.15861     0.01894
-0.0011985   -0.022961   -0.020037  -0.0063954     0.19888     0.10761    0.012768
0.00010078    -0.01549  -0.0057458  -0.0093186      0.0852    0.064413    0.008221
0.0023744   -0.007045   0.0072465   -0.010943  -0.0089938    0.032906   0.0088706
0.0046481  -0.0015233     0.01829  -0.0047713   -0.087272    0.010819    0.016666
0.0091954  -0.0015233    0.026735   0.0062721    -0.14899  -0.0041217    0.024137
0.01017  -0.0076946    0.034206    0.011469    -0.19283  -0.0083442    0.029333
0.0036737   -0.016464    0.040052   0.0088706    -0.21557  -0.0011985     0.03453
-0.0076946   -0.022961    0.040052 -0.00087364    -0.21135    0.016666    0.038753
-0.020037   -0.026209    0.033231   -0.016464    -0.17432    0.041027    0.034855
-0.030106   -0.028482    0.020888    -0.03303    -0.10546    0.064413    0.022837
-0.038227   -0.028157    0.010819   -0.052193   -0.015815    0.078379    0.011794
-0.043748   -0.026209   0.0091954   -0.067134    0.075131    0.078055   0.0043233
-0.045697   -0.021661    0.015042   -0.076229     0.15179    0.065712  0.00075039
-0.042124   -0.016789    0.020564   -0.079152     0.21447    0.049796 -0.00087364
-0.035953   -0.013216     0.01829     -0.0824     0.27651    0.039727  -0.0031473
-0.025234   -0.010618   0.0091954   -0.090521     0.34927    0.039402  -0.0089938
-0.0096434  -0.0063954   0.0010752    -0.10579     0.44411    0.046873   -0.015815
0.0056225  0.00042559   0.0033489    -0.11586     0.54935    0.059216   -0.020362
0.015692   0.0085458    0.016016    -0.11001      0.6351    0.067011   -0.027183
0.019589    0.016341    0.034206   -0.076554     0.66855    0.062789   -0.035303
0.019264    0.024786     0.05142    -0.01484     0.63218    0.043625   -0.042124
0.016666    0.034855    0.062139    0.066037     0.53343    0.017316   -0.042124
0.013418    0.045249    0.066362     0.14626     0.40156  -0.0073698   -0.031406
0.0095202    0.053369    0.069285     0.20538     0.27164    -0.02426   -0.016464
0.0078962    0.061165    0.069285     0.23494     0.16283    -0.03238  -0.0050961
0.01017    0.067986    0.066037     0.23851    0.090397    -0.03303  0.00075039
0.016016    0.069285    0.059541     0.21772    0.048497   -0.030431   0.0033489
0.020564    0.063438    0.050121     0.17874    0.013418   -0.028157      0.0014
0.019589    0.052395    0.042001     0.13035   -0.046996   -0.029782  -0.0015233
0.013093    0.040377    0.039078     0.08585    -0.13924   -0.037252  -0.0034721
0.0039985    0.029983    0.037778    0.056617    -0.26137   -0.050569  -0.0054209
-0.0037969    0.022837    0.029333    0.042975    -0.40656   -0.064536  -0.0080194
-0.0073698     0.01894   0.0088706    0.032906    -0.57091    -0.07428   -0.010943
-0.0063954    0.014717   -0.013216    0.019914    -0.73591   -0.075904   -0.011592
-0.00022403   0.0088706   -0.031081   0.0026992    -0.85707   -0.070707  -0.0080194
0.0091954   0.0043233   -0.040175   -0.012892    -0.89474   -0.064211  -0.0063954
0.01764   0.0020496   -0.041475    -0.02361    -0.83271   -0.065835   -0.010943
0.020564  0.00010078   -0.037902   -0.028157    -0.68394   -0.080451    -0.02361
0.01829  -0.0028225    -0.03303   -0.027183    -0.48419    -0.10384    -0.04115
0.012119  -0.0076946   -0.029782   -0.021661    -0.27696    -0.12917   -0.056741
0.0039985    -0.01549   -0.027833   -0.017764   -0.097017    -0.14866    -0.06616
-0.0041217   -0.024909   -0.028482   -0.018413    0.050121    -0.15711   -0.067459
-0.0099683   -0.033679   -0.029132   -0.025234     0.17322    -0.15386   -0.058689
-0.011917   -0.038551   -0.028157   -0.031081     0.28821    -0.14216   -0.044073
-0.0093186   -0.037252    -0.02361   -0.027833     0.40221     -0.1243   -0.029132
-0.0060706   -0.029132   -0.017439   -0.010293      0.5094    -0.10384   -0.019388
-0.0028225   -0.016464   -0.010618     0.01894     0.59547   -0.083375   -0.016464
-0.00087364  -0.0034721  -0.0028225    0.050121      0.6351   -0.062587   -0.017439
0.00042559   0.0069217    0.003024    0.071558     0.59482   -0.044073   -0.017439
-0.00087364    0.013743   0.0065969    0.075131     0.43762   -0.034004    -0.01549
-0.0041217    0.015367     0.01017    0.053044     0.15503   -0.036927   -0.011592
-0.0080194    0.014717    0.011469   0.0072465    -0.20745   -0.048296   -0.008669
-0.012242    0.012443    0.010495    -0.04927     -0.5459   -0.059664   -0.013866
-0.015815    0.008221   0.0036737    -0.10059    -0.75605   -0.063237   -0.027508
-0.019712   0.0043233   -0.008669    -0.13957    -0.77392   -0.055116   -0.037577
-0.022636    0.003024   -0.028157    -0.16815    -0.60079   -0.036278   -0.036278
-0.021012   0.0056225   -0.051219    -0.18829    -0.30067  -0.0015233   -0.021012
-0.010618    0.012119   -0.071032     -0.2055    0.032906    0.044275  0.00075039
0.0056225    0.021213   -0.085324    -0.21362     0.31224    0.087799    0.021538
0.017965    0.028684   -0.095068    -0.19803     0.48666     0.11703     0.03583
0.019589    0.029983   -0.095068    -0.14509        0.55     0.12613    0.040052
0.015692    0.022837   -0.082725   -0.054467     0.52694     0.11931     0.03583
0.014392    0.014068   -0.059014    0.059216     0.45386    0.098842    0.029009
0.019914    0.009845   -0.027183     0.16608     0.36356    0.071234    0.022188
0.029009    0.012443   0.0039985     0.23689     0.26969    0.039727    0.015367
0.036154    0.018615    0.030633      0.2528      0.1742    0.012119    0.012768
0.036154    0.024786    0.048172     0.21155     0.07708   -0.011267    0.016991
0.033556    0.028034    0.053369     0.12125   -0.024585   -0.030106    0.027709
0.029983     0.02706    0.046873  -0.0083442    -0.13404   -0.039851    0.034855
0.027385    0.021213     0.03453    -0.16588    -0.25422   -0.036927     0.03583
0.024461    0.014717    0.022188    -0.36985    -0.39097   -0.023285    0.031932
0.024786   0.0072465   0.0069217    -0.63327      -0.555   -0.008669    0.024461
0.023812  0.00075039   -0.017114    -0.90968    -0.74793   0.0026992    0.017965
0.017316  -0.0050961    -0.04992     -1.0851    -0.94346   0.0036737    0.016666
0.0062721  -0.0083442   -0.081101     -1.0633     -1.0835  -0.0057458    0.022512
0.0010752  -0.0060706   -0.096042    -0.82459     -1.1146   -0.018738     0.03453
0.0085458   0.0026992   -0.081751    -0.40234     -1.0039   -0.025559     0.05272
0.030308    0.019264   -0.036602     0.17517    -0.74696   -0.021337    0.071883
0.059216    0.044924    0.032906     0.85175    -0.38252   -0.010293    0.087474
0.085525    0.073832     0.10794      1.4952   0.0072465   0.0036737    0.096893
0.098517     0.09397     0.16088      1.9282     0.32946    0.015042    0.096244
0.09462    0.094295     0.17322      2.0347     0.52531     0.01894      0.0852
0.076431    0.074482     0.14204      1.8219     0.57858    0.017316    0.065712
0.049472    0.044275    0.079029       1.401     0.51232    0.013093    0.042001
0.023487    0.014392   0.0085458      0.9232     0.36941    0.011794    0.022837
0.0046481  -0.0093186   -0.050569     0.51849     0.18816    0.013418    0.009845
-0.0050961   -0.023935   -0.090521     0.25085  -0.0028225    0.017965   0.0062721
-0.010618   -0.031406    -0.11553     0.11378    -0.18309    0.024137   0.0091954
-0.013866   -0.035628     -0.1321    0.062789    -0.33315    0.033231    0.015042
-0.016464   -0.038227    -0.14411    0.049147    -0.44001    0.041676    0.021213
-0.018738   -0.043099    -0.15288    0.042001    -0.49653    0.047847    0.028359
-0.020362   -0.049595    -0.15321    0.030633    -0.49133    0.045249    0.032906
-0.018738   -0.050569    -0.13827    0.011144    -0.42117    0.033881    0.032582
-0.013866    -0.04115    -0.10449  -0.0083442     -0.2984    0.019264     0.02706
-0.0031473   -0.021661   -0.054142   -0.025884    -0.14574   0.0095202     0.01894
0.010495   0.0017248   0.0017248   -0.043748  -0.0015233    0.008221    0.010495
0.023162    0.023487    0.049472   -0.066485     0.10371    0.014392   0.0026992
0.033881    0.038753    0.075131   -0.096692     0.15536    0.024461  -0.0021729
0.039402    0.044599    0.075781     -0.1321     0.16185     0.03453  -0.0057458
0.040377    0.043625    0.055968    -0.16847     0.14464    0.037778  -0.0096434
0.038753    0.036804     0.02706    -0.19771     0.12515    0.028359   -0.016464
0.038103     0.02641  0.00075039     -0.2172     0.11963   0.0091954   -0.024585
0.036804    0.015042   -0.012892    -0.22661     0.14496   -0.015165   -0.029782
0.030957   0.0033489   -0.011592    -0.22661      0.2148   -0.039201    -0.03303
0.021863  -0.0073698  -0.0047713    -0.21914     0.32653   -0.058689   -0.037577
0.012119   -0.012567  0.00010078    -0.21167     0.45548   -0.071357   -0.042774
0.0017248   -0.011267   0.0039985    -0.20908     0.57663   -0.076229   -0.045372
-0.0076946   -0.007045   0.0065969     -0.2068     0.66628   -0.076229   -0.042449
-0.01549  -0.0031473   0.0069217    -0.20485     0.71078   -0.075255   -0.033354
-0.020362  -0.0024977   0.0065969    -0.20355     0.70656   -0.076229   -0.022636
-0.024585  -0.0060706   0.0069217    -0.19868     0.65784   -0.078178    -0.01614
-0.026533   -0.010618   0.0095202    -0.19089     0.57209   -0.077528   -0.019712
-0.026858    -0.01614    0.013743    -0.17887     0.45808   -0.073631   -0.028807
-0.025884   -0.017764    0.017965    -0.15873     0.32978   -0.069083   -0.036927
-0.027508   -0.014516     0.01829    -0.13632     0.20213   -0.070058   -0.041799
-0.032055  -0.0076946    0.013743    -0.12527    0.090397   -0.077203   -0.044073
-0.039201  -0.0037969   0.0085458    -0.12982   0.0049729   -0.084999   -0.041799
-0.043748 -0.00022403   0.0062721    -0.14249   -0.054142   -0.089221   -0.034978
-0.0405  0.00042559   0.0059473    -0.15191    -0.09929   -0.085324   -0.025884
-0.027833  -0.0031473    0.008221    -0.15029    -0.13697    -0.07493   -0.015815
-0.012567  -0.0067202   0.0072465    -0.14022    -0.17107   -0.061288  -0.0054209
-0.00087364   -0.010293 -0.00054884    -0.13989    -0.19543    -0.04927   0.0039985
0.0043233   -0.010943   -0.021661     -0.1649    -0.20875   -0.037252    0.010495
0.00075039   -0.013216   -0.047321    -0.21849    -0.20583   -0.028157    0.012119
-0.0080194   -0.020037   -0.064861     -0.2867    -0.18309   -0.023935   0.0085458
-0.019063   -0.028807   -0.068434    -0.34257    -0.14152   -0.030756   0.0023744
-0.032055   -0.034004   -0.061937    -0.36498   -0.086948   -0.047971  -0.0050961
-0.043099   -0.034978   -0.049595    -0.35524   -0.028482   -0.073306    -0.01484
-0.054792   -0.033679   -0.034978    -0.33315    0.021213    -0.10189   -0.028157
-0.067784   -0.033679   -0.021337    -0.30457    0.049472    -0.12625   -0.044398
-0.079477   -0.035628   -0.013216    -0.24968    0.054019    -0.13892    -0.05739
-0.08305   -0.038227  -0.0063954    -0.14184    0.046223    -0.13632   -0.061613
-0.078178   -0.036278 -0.00022403   0.0072465    0.030633    -0.12073   -0.056416
-0.068758    -0.03238   0.0062721     0.14984   0.0088706   -0.099615   -0.048296
-0.060313   -0.029132   0.0095202     0.24338   -0.021337   -0.081426   -0.037252
-0.056091    -0.02426   0.0078962     0.27229   -0.056741   -0.068109   -0.026209
-0.051544   -0.017439   0.0026992      0.2463   -0.093769   -0.057715   -0.015815
-0.047646   -0.008669  -0.0063954     0.18784    -0.13015   -0.044723  -0.0089938
-0.041475   0.0023744   -0.014191      0.1219     -0.1636   -0.025884  -0.0024977
-0.037252    0.012119   -0.017114    0.067986    -0.18861  -0.0018481   0.0026992
-0.035628     0.01764   -0.011267    0.034855    -0.20518    0.019264   0.0072465
-0.034978    0.016016  -0.0018481    0.021863    -0.20193    0.031607    0.011469
-0.03173   0.0085458   0.0095202    0.020888    -0.16458    0.033881    0.015042
-0.026533   0.0010752    0.016991    0.021538     -0.0824    0.028034    0.016016
-0.022636  -0.0041217    0.021863    0.016341    0.039727    0.020239    0.016991
-0.017764  -0.0060706    0.026735   0.0072465     0.17907    0.012119    0.017965
-0.0099683  -0.0076946    0.031932  -0.0037969     0.30607    0.003024    0.019914
-0.0028225   -0.010293    0.036154   -0.016464     0.40026  -0.0073698     0.01829
-0.00054884   -0.011917    0.037454   -0.029132     0.45093   -0.017439     0.01017
-0.0015233   -0.011267     0.03583   -0.032705     0.45256   -0.027508  -0.0047713
-0.0050961   -0.008669     0.03518   -0.020037     0.41196   -0.037577   -0.021986
-0.011917  -0.0063954    0.039078   0.0046481     0.33952   -0.049595   -0.036278
-0.025884  -0.0050961    0.049147    0.028359     0.24695    -0.06616   -0.050894
-0.041799  -0.0034721    0.059216     0.03453     0.14496   -0.086948   -0.069083
-0.059339  -0.0018481    0.068635    0.018615    0.036154    -0.10676   -0.090521
-0.070707 -0.00054884    0.074157   -0.014516   -0.074605    -0.11715    -0.10416
-0.07493  0.00042559    0.070909   -0.069083    -0.17367    -0.11358    -0.10481
-0.071682      0.0014    0.057267    -0.15093    -0.24156   -0.093444   -0.093119
-0.062262   0.0010752    0.033556    -0.24221    -0.26494   -0.056416   -0.071682
-0.048296 -0.00087364   0.0043233     -0.2958    -0.24156  -0.0089938   -0.042449
-0.03303 -0.00054884   -0.022961    -0.27501    -0.18147     0.03453   -0.013541
-0.016789  -0.0015233   -0.047321    -0.18666    -0.10741    0.064088    0.011794
-0.0011985  -0.0073698   -0.069083   -0.067784   -0.048945    0.078055    0.030957
0.012119    -0.01549   -0.087272    0.039078   -0.025234    0.082602    0.040052
0.017316   -0.020687   -0.097017     0.10631   -0.038876    0.081303    0.038753
0.015367   -0.019712    -0.09929     0.13879     -0.0824    0.072533    0.027385
0.0091954   -0.012892   -0.091495     0.15731    -0.14314    0.056617    0.011794
0.0039985  -0.0034721   -0.075255     0.19661    -0.19933    0.040377  -0.0031473
0.0014   0.0020496   -0.053168     0.27359    -0.23116    0.031282   -0.008669
0.0020496 -0.00087364    -0.03238     0.37363    -0.22661     0.03453  -0.0044465
0.0036737   -0.010943   -0.019712     0.46035    -0.19706    0.047198   0.0059473
0.0010752   -0.025559   -0.027833     0.48731    -0.17205    0.064413     0.01764
-0.0076946   -0.042124   -0.058365      0.4178    -0.17757    0.081627     0.02641
-0.017114   -0.058689    -0.10189     0.23721    -0.21427    0.091696    0.031932
-0.020362   -0.068434    -0.13762   -0.024909    -0.25455    0.091372    0.036479
-0.011592    -0.06551    -0.14736    -0.28865     -0.2565    0.082927    0.042651
0.0091954    -0.04927     -0.1217    -0.47087    -0.21525    0.071558    0.051745
0.03518   -0.024585    -0.07493    -0.52544    -0.15418    0.064088    0.059541
0.054993  0.00010078   -0.034978    -0.47672    -0.11001    0.059865    0.063763
0.063438    0.017316   -0.021661    -0.38674    -0.09929    0.059865    0.064737
0.063438    0.024137   -0.036278    -0.31918    -0.11358    0.067336    0.065387
0.055968    0.023812   -0.067784    -0.30879    -0.12463    0.083251    0.067661
0.049472    0.025761    -0.10156    -0.34907    -0.11098    0.098517    0.067661
0.044599    0.033881    -0.12722    -0.39941   -0.071682     0.10664    0.061489
0.042651    0.046548    -0.13599    -0.40363   -0.024585    0.099817    0.047198
0.038428    0.056292     -0.1204    -0.31951   0.0059473     0.07708    0.031607
0.033881    0.061165   -0.083375    -0.14574 -0.00054884    0.040702     0.01894
0.030308    0.058566   -0.034004    0.076431   -0.042124      0.0014    0.011794
0.028359    0.049147    0.012443     0.28398    -0.10351   -0.029782    0.008221
0.024786     0.03453    0.049147     0.41878     -0.1636   -0.044073   0.0059473
0.020239    0.019264    0.069285     0.45613    -0.21362   -0.037902   0.0020496
0.017965   0.0075714    0.074482     0.40449    -0.25715   -0.017439 -0.00022403
0.016991 -0.00022403    0.065712     0.28821    -0.29482   0.0039985  0.00075039
0.015042  0.00010078    0.049796     0.13782    -0.32666    0.017316   0.0033489
0.010819   0.0078962    0.034855    -0.01549    -0.34874    0.021538   0.0078962
0.0059473     0.01764    0.023812    -0.14964    -0.35751    0.017316    0.013743
0.0017248    0.024786     0.01829    -0.25357    -0.35426   0.0095202    0.024461
0.0010752     0.02706    0.017316    -0.31496      -0.339   0.0036737    0.040377
0.0026992    0.026085    0.020564    -0.33705    -0.31496   0.0033489    0.058566
0.0033489    0.021863    0.028684    -0.31626    -0.28508   0.0052977    0.073507
0.00042559    0.019589    0.042326    -0.22726    -0.23246   0.0049729    0.081303
-0.0018481    0.021538    0.062464   -0.059014    -0.13437   0.0026992    0.080653
0.003024    0.029983    0.084876     0.15114    0.011794   0.0020496    0.075781
0.015692    0.044275     0.10729     0.34862      0.1716   0.0046481    0.071234
0.030308     0.06019     0.12353     0.49121     0.28723   0.0043233    0.066037
0.038103    0.071883     0.12807     0.56949     0.31224    -0.01484    0.058566
0.03518    0.073832     0.12223     0.60489     0.24013   -0.059989    0.041027
0.022512    0.063113     0.10956     0.62178     0.11151    -0.12722    0.013743
0.0023744     0.04395    0.094945     0.63283  -0.0044465    -0.19836    -0.01614
-0.021012    0.020239    0.079354     0.62763   -0.043748    -0.25422   -0.040175
-0.042449  -0.0018481    0.062139     0.59677    0.028359    -0.27631   -0.053168
-0.05739   -0.017764    0.042975     0.53668     0.20733    -0.26169    -0.05804
-0.064536   -0.026209    0.025111     0.45126     0.44509    -0.22109    -0.05739
-0.062912   -0.029132    0.012119      0.3444     0.66141    -0.17172   -0.053817
-0.054142   -0.029132   0.0056225     0.22649     0.78516    -0.12235   -0.048945
-0.042124    -0.02361   0.0023744     0.11801     0.78613   -0.074605   -0.042774
-0.03173   -0.014516  -0.0021729    0.040702     0.66531   -0.034004   -0.037577
-0.025884  -0.0024977  -0.0083442      0.0014     0.44314  -0.0024977   -0.036278
-0.021337   0.0085458   -0.015165  -0.0041217     0.13684    0.013743   -0.036927
-0.014516    0.014068   -0.021661    0.008221    -0.22207   0.0091954   -0.036602
-0.007045    0.013418   -0.027183    0.030633    -0.56994   -0.010618   -0.038876
-0.0031473    0.011144   -0.025234    0.059541    -0.82523   -0.034004   -0.045047
-0.0054209    0.012768   -0.010618    0.087149    -0.92593   -0.048945   -0.052193
-0.0099683    0.019914    0.016991     0.10014    -0.85739   -0.045372   -0.058365
-0.011592    0.028684    0.046223    0.087474    -0.66575   -0.027183   -0.061288
-0.0047713    0.031607    0.065712    0.049472    -0.44001  -0.0031473   -0.064861
0.0095202    0.027385    0.066686  -0.0034721    -0.27696    0.013418   -0.067459
0.023487    0.018615    0.053694   -0.058689    -0.23246    0.016991   -0.069083
0.030308    0.009845    0.037129    -0.10254    -0.31074   0.0062721   -0.070707
0.025111   0.0036737    0.024786    -0.13177    -0.47379    -0.01549   -0.069408
0.0059473  0.00042559    0.016991    -0.14639    -0.64627   -0.044398   -0.069733
-0.019712  -0.0011985    0.009845    -0.15093    -0.74955   -0.078178    -0.07428
-0.045047  -0.0037969   0.0033489    -0.15093    -0.74501    -0.11066   -0.084024
-0.063237   -0.013541   0.0010752    -0.15256    -0.64984    -0.13794   -0.095717
-0.069083   -0.025559    0.003024    -0.15646    -0.51602    -0.15743    -0.09994
-0.061937   -0.035953   0.0052977    -0.16068    -0.37895    -0.16653   -0.098965
-0.046996   -0.040825  0.00075039    -0.16782    -0.24286    -0.16588   -0.094093
-0.030106   -0.040175   -0.014516    -0.18179     -0.0824    -0.15646   -0.087922
-0.019063   -0.034654    -0.03173    -0.20225     0.11931    -0.14314     -0.0837
-0.017114   -0.025884   -0.043423    -0.21979     0.34082    -0.12852   -0.082076
-0.020362   -0.015815   -0.046022    -0.22369     0.53279    -0.11586   -0.082076
-0.023285  -0.0031473   -0.040825    -0.21427     0.64192    -0.10579   -0.085648
-0.019712   0.0088706   -0.032055    -0.19771     0.64127   -0.099615   -0.090521
-0.011592     0.01764   -0.026209    -0.17919     0.54805   -0.098316   -0.094093
-0.0041217    0.022188    -0.02426    -0.16555     0.41423   -0.097017   -0.091495
0.0010752    0.022188   -0.025234    -0.15776      0.2947   -0.088572   -0.083375
0.0036737     0.01894   -0.034329    -0.14281     0.21675   -0.066485   -0.067134
0.0036737    0.015692   -0.052193    -0.10968      0.1703   -0.028157   -0.038551
0.0026992     0.01017   -0.078503   -0.073631      0.1219    0.016341 -0.00087364
0.0036737  -0.0018481    -0.11488   -0.064211    0.052395    0.056942    0.037129
0.0072465   -0.017764    -0.15516   -0.095068   -0.030106    0.092671    0.067986
0.016016    -0.03173    -0.18439    -0.14444    -0.10546     0.12418      0.0865
0.028034   -0.036602    -0.18374    -0.17465    -0.15386     0.14756     0.09397
0.042975   -0.025884    -0.15029    -0.15841     -0.1649     0.16283    0.095594
0.061814  -0.0031473   -0.096367   -0.098316    -0.13859     0.17062    0.095919
0.080653    0.022188   -0.040175   -0.017114   -0.076229     0.17192    0.096244
0.095919      0.0433   0.0039985    0.059216    0.011144     0.16835    0.093321
0.10047    0.056292    0.031932     0.11118     0.10274     0.16413    0.090722
0.09462    0.059216     0.04395     0.13035     0.18264     0.15861    0.090397
0.079354     0.05207    0.044924     0.12385     0.24371     0.14951    0.088124
0.060515    0.040377    0.036804     0.10664      0.2921     0.14107    0.083251
0.0433    0.028684    0.023487    0.097543     0.33887     0.13977    0.072533
0.031282    0.020888    0.010495     0.10534     0.38987     0.14464    0.059216
0.022512    0.015692   0.0026992     0.12255     0.44216     0.15179      0.0433
0.014717    0.011469 -0.00054884     0.12678     0.48471     0.15341    0.030957
0.0026992   0.0085458  -0.0034721     0.09397      0.5016     0.14659    0.026085
-0.012892    0.008221  -0.0099683    0.021863     0.49088     0.13555    0.029658
-0.025884   0.0091954   -0.015815   -0.060963      0.4675      0.1297    0.037778
-0.029782     0.01017   -0.015165    -0.12105     0.45158      0.1349    0.049472
-0.021986   0.0091954   -0.010293    -0.14281     0.44931     0.14594    0.060515
-0.0063954   0.0069217  -0.0037969    -0.13599     0.45288     0.15698    0.066686
0.012119   0.0023744  0.00042559    -0.11943     0.45353     0.16348    0.066362
0.026735 -0.00054884  -0.0028225    -0.11098     0.44184      0.1625    0.061814
0.031607  -0.0034721   -0.012242    -0.11293     0.41423     0.15373    0.055643
0.025436  -0.0073698   -0.022311    -0.12008     0.36973     0.13847    0.050446
0.013743   -0.010943   -0.027833    -0.12203     0.31354     0.11963    0.048172
0.0036737   -0.011592   -0.027833    -0.11033      0.2554     0.10047    0.045249
-0.0037969  -0.0096434   -0.021986   -0.087922     0.20505    0.085525    0.040377
-0.0089938  -0.0083442   -0.010618   -0.059014     0.16965    0.071234    0.033231
-0.011917  -0.0057458   0.0052977   -0.031081     0.15373    0.054668    0.020239
-0.016464  -0.0044465    0.020888    -0.01549     0.15211    0.036804   0.0043233
-0.021986  -0.0076946    0.030957  -0.0080194     0.14789    0.023162  -0.0093186
-0.027833   -0.011917    0.032582   0.0020496      0.1349    0.016991   -0.021012
-0.03303   -0.014191    0.032257    0.021863     0.11768    0.016016   -0.030106
-0.037252   -0.012567    0.035505    0.044924    0.096569    0.016341   -0.036927
-0.04115  -0.0054209    0.041027    0.051096    0.062789    0.012119   -0.037902
-0.048296   0.0046481    0.042975    0.024786   0.0046481  -0.0018481   -0.033679
-0.055441    0.009845    0.039078   -0.021661   -0.068758   -0.018738    -0.03173
-0.059339   0.0039985    0.032906   -0.054142    -0.13924   -0.033354   -0.032705
-0.059989  -0.0089938    0.024461   -0.045047    -0.19154   -0.042774   -0.035303
-0.055441   -0.026209    0.013743   0.0078962    -0.21557    -0.04992   -0.037577
-0.049595   -0.040825   0.0010752    0.089423    -0.21167   -0.056741   -0.033354
-0.044398   -0.051544   -0.011917     0.16803    -0.18374   -0.062587   -0.020362
-0.036927   -0.056416   -0.023285     0.22227    -0.14022   -0.068758  0.00042559
-0.023935   -0.055766   -0.032705     0.24078    -0.09994   -0.072331    0.020888
-0.0060706   -0.048945   -0.039201     0.22584   -0.077203    -0.06681    0.034855
0.009845   -0.036278   -0.041475     0.19401   -0.072656   -0.051868    0.039727
0.019589   -0.020037   -0.042124     0.15926   -0.080127   -0.034329    0.038753
0.022188  -0.0041217   -0.044073     0.13067   -0.092794    -0.02426    0.033556
0.020888   0.0069217   -0.047646     0.11086    -0.10806   -0.027833    0.028684
0.023487   0.0075714   -0.051219    0.094295    -0.12527   -0.041799    0.025436
0.029658   0.0020496   -0.048945    0.078704    -0.14606   -0.065835    0.023487
0.030957  -0.0063954   -0.039526    0.064737    -0.16653   -0.095068    0.019264
0.022837   -0.013216   -0.024909     0.05142    -0.18179     -0.1243    0.010819
0.01017   -0.019388   -0.012892    0.043625    -0.19608    -0.15126 -0.00087364
0.0010752   -0.024585  -0.0041217    0.041676    -0.21265    -0.17335  -0.0099683
-0.0024977   -0.028157   0.0046481    0.042326    -0.23019    -0.19024   -0.011592
-0.0021729   -0.029782    0.013093    0.043625    -0.24448    -0.19738   -0.007045
-0.0054209   -0.033354    0.018615    0.044275       -0.25    -0.19316  -0.0041217
-0.01549   -0.036602    0.021538    0.045249     -0.2487    -0.18114  -0.0044465
-0.02426   -0.036602    0.019589    0.046873    -0.24773     -0.1675  -0.0073698
-0.027183    -0.03303    0.015692    0.049147    -0.24935    -0.15353   -0.012242
-0.022636   -0.029782    0.015692    0.051745    -0.25098    -0.13372   -0.016464
-0.014516   -0.027508    0.019589    0.050771     -0.2435    -0.10741   -0.020037
-0.010293   -0.025559     0.02641    0.047198    -0.21037    -0.07493    -0.02361
-0.010618   -0.025884    0.029658    0.040377    -0.13275   -0.044398   -0.025559
-0.017764   -0.027183    0.029009    0.033881  -0.0050961   -0.019063   -0.025559
-0.024909   -0.025559     0.02641    0.028684     0.15309   0.0033489   -0.025234
-0.028807   -0.021661    0.020564    0.022512     0.30315    0.021863   -0.026533
-0.028157    -0.01549    0.016991    0.015367     0.40676    0.034206   -0.029132
-0.025234   -0.010943     0.01829   0.0065969     0.45223    0.039727   -0.030431
-0.019712  -0.0080194    0.019914  -0.0063954     0.44151    0.039078   -0.031406
-0.012892  -0.0096434    0.016341   -0.024909     0.38825    0.037129    -0.03238
-0.0067202    -0.01484   0.0059473   -0.048296     0.30737    0.039078    -0.03238
-0.0034721   -0.020037   -0.010618   -0.064211     0.21545    0.050446   -0.028807
-0.0044465   -0.020362   -0.029782    -0.06681     0.12385    0.073832   -0.020362
-0.0050961   -0.013541   -0.044398   -0.059989    0.039727     0.10989  -0.0050961
-0.00022403  -0.0018481    -0.04992   -0.055441   -0.031406     0.15081    0.010495
0.0085458    0.009845    -0.04992    -0.06681   -0.088572     0.18329    0.020239
0.013418    0.013418   -0.051219   -0.096692    -0.13567     0.19661    0.022837
0.0085458   0.0062721   -0.054467    -0.13145    -0.17367     0.18849    0.021538
-0.0018481  -0.0060706   -0.059339    -0.15191     -0.2029     0.16445    0.020239
-0.008669   -0.014516   -0.061288    -0.14509    -0.21817     0.13035     0.01764
-0.011592    -0.01614   -0.058365    -0.11131    -0.22304    0.087799    0.013418
-0.010293    -0.01484   -0.051868   -0.063886    -0.22077     0.04395   0.0091954
-0.0080194    -0.01484   -0.044073   -0.018088    -0.22077   0.0010752   0.0062721
-0.0047713   -0.017439   -0.035953    0.013093    -0.23506     -0.0405   0.0075714
-0.0034721   -0.018413   -0.030756    0.026085    -0.26981     -0.0824    0.013093
-0.0067202   -0.010618   -0.027508    0.025761    -0.32341    -0.12235    0.019264
-0.010943   0.0026992   -0.023285    0.023487    -0.38674    -0.16198    0.023487
-0.013866    0.017965   -0.018738    0.024137    -0.44391    -0.19998    0.023162
-0.011592    0.028359   -0.013866     0.02641    -0.47737    -0.23636    0.016666
-0.0076946    0.029333   -0.007045    0.027709    -0.48289    -0.27176   0.0052977
-0.0057458    0.023812   0.0010752    0.020239    -0.45528    -0.30229  -0.0067202
-0.0060706    0.015367    0.009845    0.011144    -0.39097    -0.32731   -0.015815
-0.0067202    0.008221    0.015367   0.0033489    -0.29612    -0.34809   -0.023285
-0.0083442   0.0039985     0.01829  0.00010078    -0.19089    -0.37018    -0.03303
-0.011267   0.0059473     0.01764   0.0036737    -0.10221    -0.39227   -0.042774
-0.01549    0.010495    0.015042    0.011794   -0.051219    -0.41273   -0.048945
-0.018738    0.012443   0.0095202    0.016991   -0.044398    -0.43124   -0.046671
-0.016789    0.010819    0.003024    0.014717   -0.070382    -0.44716   -0.041799
