0.036804    0.009845  0.00010078   -0.034004   -0.024909   -0.076879  -0.0099683
0.029333    0.019914   0.0033489    -0.03303     0.03583   -0.065186   -0.012242
0.01894    0.029983   0.0065969   -0.026858    0.096569   -0.055116   -0.010943
0.0091954    0.036154   0.0072465   -0.014516     0.14951   -0.047646  -0.0080194
0.0014    0.035505   0.0033489   0.0039985     0.18329   -0.041475  -0.0060706
-0.0024977    0.031607  -0.0034721     0.01894     0.19596   -0.034654  -0.0028225
-0.0028225    0.029658  -0.0089938    0.026085     0.19011   -0.028807  -0.0011985
-0.0047713    0.031932   -0.010618    0.024461      0.1716   -0.021986  0.00042559
-0.0096434     0.03583   -0.010293    0.012443     0.15016   -0.016464   0.0043233
-0.017114    0.040052  -0.0096434   -0.011267     0.13457   -0.013216    0.011469
-0.023285     0.04395  -0.0083442   -0.047646      0.1284   -0.015165    0.021538
-0.027833    0.044275   -0.007045   -0.089546     0.12937   -0.019712    0.029333
-0.028807    0.041027  -0.0047713    -0.12365      0.1271   -0.025234    0.029983
-0.024585    0.033881   0.0017248    -0.14119     0.11021   -0.023935    0.028684
-0.019063    0.024137   0.0091954    -0.14411    0.078055   -0.018413    0.024786
-0.014516    0.011469    0.014717    -0.14249    0.029658   -0.012242    0.015042
-0.01549  -0.0021729     0.01894    -0.13047   -0.037577   -0.011592   0.0023744
-0.023285   -0.013541    0.025111   -0.084999    -0.12495   -0.017114  -0.0089938
-0.034004   -0.017114    0.034855    0.015692    -0.22369    -0.02361   -0.014191
-0.04115   -0.012567    0.044924     0.15373    -0.32763   -0.027508   -0.013216
-0.041799  -0.0054209    0.046873     0.27976    -0.44586   -0.030431   -0.013216
-0.036602  -0.0011985    0.029333     0.35154     -0.5852   -0.037252   -0.013541
-0.029457  -0.0034721  -0.0021729     0.35447    -0.76157   -0.045697    -0.01549
-0.024585  -0.0080194   -0.035303      0.3051    -0.98342   -0.059014   -0.017439
-0.023285   -0.010293   -0.056416     0.23006     -1.2319   -0.077853   -0.021337
-0.021012  -0.0041217   -0.060313     0.15276     -1.4586   -0.097991   -0.024909
-0.008669   0.0095202   -0.050569    0.091372     -1.6064    -0.11586   -0.025234
0.010495     0.02706   -0.033354    0.054344     -1.6275    -0.12365   -0.017114
0.030633    0.042651   -0.017114     0.04395      -1.508    -0.12008 -0.00054884
0.045574    0.051096   -0.013216    0.057267     -1.2705    -0.11001    0.017965
0.053044    0.050446   -0.019063    0.080653     -0.9714   -0.096042    0.033231
0.051745    0.042326   -0.027183     0.10339    -0.67712   -0.078503    0.040702
0.045249    0.031932   -0.030431     0.11443    -0.43254   -0.056416    0.041676
0.039727    0.022512   -0.030431     0.11378    -0.25357   -0.031081    0.036479
0.03583    0.011469   -0.029457     0.10209     -0.1334  -0.0093186    0.030308
0.027709 -0.00054884   -0.026533    0.083901   -0.049595   0.0046481    0.021863
0.011469   -0.010943   -0.021661    0.067011    0.013743    0.009845    0.013743
-0.007045    -0.01549   -0.012892    0.056292    0.066362    0.010495    0.008221
-0.020687   -0.013541  -0.0011985    0.050771     0.11118    0.012443   0.0056225
-0.023935  -0.0063954    0.012119    0.048822     0.14724    0.015042   0.0046481
-0.017764   0.0023744    0.021863    0.042975      0.1781    0.018615   0.0039985
-0.0080194    0.010819    0.029009    0.036804     0.20668    0.023812   0.0049729
0.00042559    0.016341    0.032582     0.03583     0.23396    0.032582   0.0069217
0.008221     0.01894    0.032906    0.041351      0.2606    0.045249   0.0088706
0.015367     0.01829    0.030633    0.048172     0.29113    0.057592   0.0088706
0.019264    0.013093    0.026085    0.048822     0.32848     0.06084   0.0039985
0.015367   0.0046481    0.018615    0.043625     0.37655    0.055318  -0.0034721
0.0085458  -0.0024977    0.014392    0.033556      0.4295      0.0433   -0.010293
0.0020496  -0.0044465    0.014068    0.026735     0.47529    0.031932   -0.014191
0.0026992  -0.0054209    0.013093    0.026085     0.50485    0.025111   -0.017439
0.0078962   -0.007045   0.0095202    0.027385     0.51265    0.021863   -0.021012
0.01764   -0.008669   0.0010752    0.027709     0.50258    0.019589   -0.023285
0.023162  -0.0083442  -0.0037969    0.021538     0.47919    0.021213   -0.022311
0.019589  -0.0067202  -0.0015233   0.0085458     0.44801    0.028034   -0.013866
0.012119  -0.0037969   0.0059473  -0.0024977      0.4178    0.037454  -0.0037969
0.0046481  -0.0018481    0.011144  -0.0041217     0.39896    0.046873   0.0039985
-0.0018481  0.00042559    0.010495   0.0036737     0.39864    0.052395    0.008221
-0.0067202      0.0014   0.0075714    0.013418     0.41456    0.053369   0.0085458
-0.0096434 -0.00022403   0.0043233     0.01829     0.43112    0.049796   0.0085458
-0.011592  -0.0044465   0.0017248    0.015042     0.43827    0.046223    0.009845
-0.011592  -0.0093186 -0.00054884   0.0056225     0.43729    0.044275    0.013093
-0.010618    -0.01484  -0.0028225  -0.0060706     0.43729    0.045249    0.014068
-0.0096434   -0.021986  -0.0050961   -0.018088     0.44963    0.044275    0.010495
-0.011592   -0.028482  -0.0060706   -0.029457     0.48276    0.037778 -0.00022403
-0.01549   -0.034004  -0.0076946   -0.038551     0.53343    0.023812   -0.017439
-0.020362   -0.037902   -0.011267   -0.046022     0.58346   0.0052977   -0.034978
-0.024909   -0.037902   -0.018088    -0.04992     0.61529   -0.014191   -0.049595
-0.03173   -0.035303   -0.025884   -0.047971     0.61659    -0.03173    -0.05804
-0.039526   -0.029782   -0.029457     -0.0405     0.58443   -0.044398   -0.059989
-0.04115   -0.022636   -0.025234    -0.03303     0.52304    -0.04862   -0.053168
-0.03303   -0.016464   -0.011267   -0.029132     0.43697   -0.046347   -0.039201
-0.018088   -0.012242    0.008221   -0.029457     0.32913   -0.038876    -0.02426
-0.0015233   -0.012567    0.024461   -0.027183     0.20311   -0.034978   -0.016464
0.011794   -0.020362    0.034206   -0.020687    0.062789   -0.040825   -0.017439
0.016991   -0.029457    0.033556   -0.012892   -0.083375   -0.056741   -0.022961
0.015042   -0.036927    0.021538  -0.0083442    -0.21849   -0.073306   -0.027833
0.01017   -0.038876   0.0023744   -0.010293    -0.33153   -0.081101   -0.029457
0.0052977   -0.035303   -0.013541   -0.016464    -0.41305   -0.075255   -0.028157
0.00075039   -0.028482   -0.020037   -0.019388    -0.46437    -0.05804   -0.024585
0.0014   -0.023285   -0.017439   -0.017114    -0.48354   -0.038227   -0.022961
0.0062721   -0.021337   -0.013541   -0.011917     -0.4686   -0.022311   -0.020362
0.012443   -0.022636  -0.0089938   -0.007045    -0.42312  -0.0093186   -0.015815
0.016666   -0.019063  -0.0047713  -0.0015233    -0.35979   0.0023744  -0.0083442
0.016016   -0.012892  -0.0044465   0.0023744     -0.2919    0.016666 -0.00054884
0.012443  -0.0063954  -0.0080194   0.0052977    -0.23311    0.031932   0.0043233
0.0072465  -0.0021729   -0.012242   0.0039985    -0.18959    0.046223   0.0072465
0.0052977  -0.0031473   -0.015165  -0.0041217    -0.16393    0.055643   0.0085458
0.0023744  -0.0044465   -0.015815   -0.019388    -0.16068    0.054993   0.0085458
-0.0024977  -0.0031473    -0.01549   -0.039851    -0.17822    0.045249   0.0069217
-0.0096434 -0.00022403   -0.010943   -0.056416    -0.21297    0.031282   0.0036737
-0.017764   0.0043233  -0.0031473   -0.059664    -0.24675    0.016666  -0.0018481
-0.024909   0.0069217   0.0046481   -0.043748    -0.26104   0.0091954  -0.0096434
-0.028807   0.0065969    0.010819   -0.013541    -0.24188    0.013743   -0.017764
-0.028482   0.0043233    0.016666    0.019264    -0.18374    0.029009   -0.026533
-0.02426   0.0026992    0.022512    0.030633    -0.10221    0.048822    -0.03303
-0.021661   0.0020496    0.023812      0.0014    -0.02361    0.065062   -0.035628
-0.025234      0.0014    0.014392   -0.068758    0.024786    0.071558   -0.033354
-0.034004 -0.00087364  -0.0089938    -0.16685    0.021538     0.06896   -0.030106
-0.040825  -0.0044465   -0.039201    -0.27793   -0.026209    0.065387   -0.029782
-0.041475  -0.0099683   -0.067784    -0.39162   -0.088572    0.064737   -0.031081
-0.032705   -0.016789   -0.090196    -0.48321    -0.12722    0.068635   -0.027508
-0.015815   -0.021012   -0.098316    -0.49556    -0.11878    0.074806   -0.017764
0.0023744   -0.019388   -0.088572    -0.36076   -0.055441    0.081627  -0.0034721
0.015692  -0.0099683   -0.060963   -0.072981    0.041351    0.083251    0.012768
0.021213   0.0023744   -0.028482     0.28138     0.13457    0.074806    0.026085
0.01829    0.011794  -0.0037969     0.57533     0.18946    0.051745    0.032582
0.013093    0.014392   0.0091954      0.7215     0.19076    0.022188    0.038428
0.010819    0.010819    0.012443     0.70266     0.15049  -0.0021729    0.041676
0.016341   0.0049729   0.0059473     0.55974     0.10274   -0.014191      0.0433
0.026085 -0.00087364  -0.0060706     0.36064    0.081627   -0.010618    0.039727
0.032582  -0.0044465    -0.02361     0.16803     0.10501   0.0010752    0.032257
0.034206  -0.0063954   -0.043099    0.018615      0.1664    0.014068    0.019589
0.032257   -0.008669   -0.060313   -0.080776     0.24306    0.025436   0.0075714
0.023812   -0.010293   -0.072656    -0.14249     0.31257    0.032257 -0.00022403
0.014068   -0.011917   -0.073306    -0.17627     0.35284    0.036804  -0.0028225
0.0059473   -0.016789   -0.060638    -0.18407     0.35382    0.040377  -0.0018481
0.0017248   -0.023285   -0.042774    -0.16425     0.31419    0.039727   0.0017248
0.0020496    -0.02426   -0.028807    -0.12787     0.24533    0.033881   0.0033489
0.0043233   -0.019063   -0.022636   -0.086623      0.1664    0.022837   0.0020496
0.0046481   -0.011917   -0.018738   -0.045372    0.095594    0.010819  -0.0034721
0.0046481  -0.0057458   -0.012242  -0.0034721    0.037454 -0.00087364  -0.0089938
0.0078962  -0.0018481 -0.00054884    0.042651   -0.017114   -0.010618  -0.0060706
0.013743   0.0043233    0.015692    0.091047   -0.080127   -0.019712   0.0049729
0.019589    0.016666    0.036479     0.13814    -0.16165    -0.03173    0.015042
0.020888    0.031607    0.059216      0.1781    -0.25162   -0.046996     0.01894
0.011144    0.042001    0.079679     0.20181    -0.32893   -0.064211     0.01894
-0.0028225     0.04395    0.091696     0.19726    -0.37473   -0.076229    0.018615
-0.011267    0.038103    0.088773     0.15958    -0.38122   -0.081101    0.023487
-0.0089938    0.031607     0.06961     0.10014    -0.35491   -0.078178    0.032582
0.0017248    0.024461    0.042651    0.042001    -0.31042   -0.075579    0.041027
0.014392    0.019264    0.014392     0.01829    -0.25422   -0.079477    0.042975
0.022837    0.016016  -0.0089938    0.034855    -0.19738   -0.087597    0.037778
0.023162    0.012443    -0.02361    0.072858    -0.15418   -0.094093    0.032582
0.015367   0.0095202   -0.029457     0.10339     -0.1334   -0.098316    0.027709
0.0049729   0.0062721    -0.03173     0.10306    -0.13437    -0.10838    0.022512
-0.0054209   0.0059473   -0.033679    0.069285    -0.14899    -0.12917    0.015692
-0.013541   0.0059473   -0.034004   0.0065969    -0.16393    -0.15646   0.0088706
-0.020687   0.0020496   -0.034654   -0.072981     -0.1714    -0.18471  0.00075039
-0.031406  -0.0028225   -0.034654    -0.16003    -0.16847    -0.20583  -0.0089938
-0.046022   -0.008669   -0.034004    -0.24643    -0.15808    -0.21395   -0.015815
-0.061288    -0.01484   -0.040175    -0.33607    -0.15191     -0.2068   -0.022636
-0.072656    -0.02426   -0.056741    -0.43287     -0.1623    -0.18894   -0.029782
-0.077203   -0.033679   -0.081426    -0.51829    -0.19381    -0.16588   -0.038876
-0.074605   -0.035953    -0.10416    -0.56182    -0.23246    -0.14411   -0.046671
-0.068109   -0.032055    -0.11163     -0.5511    -0.25357    -0.12787   -0.047971
-0.05804   -0.021986    -0.10254    -0.49296     -0.2487     -0.1191   -0.038876
-0.04115  -0.0076946   -0.082725    -0.38447    -0.22109    -0.11033   -0.024585
-0.016789    0.011144   -0.058689    -0.22109    -0.18049   -0.095393   -0.012892
0.012119    0.031282   -0.031406   -0.027183    -0.14509    -0.07493  -0.0037969
0.042326    0.049796  -0.0021729     0.15471    -0.14379   -0.054142   0.0075714
0.066037    0.062789    0.027385      0.2921    -0.19478   -0.036927    0.020239
0.07773    0.064737    0.050771     0.37428    -0.28768    -0.03238    0.027385
0.073507    0.054344     0.06084     0.41066    -0.38025   -0.039201    0.024461
0.056617    0.037129    0.056617      0.4204    -0.42702   -0.052518    0.012119
0.033231     0.01764    0.041676     0.41618    -0.40266   -0.065186  -0.0054209
0.010495  -0.0021729    0.019589     0.39702    -0.31074   -0.071357   -0.017114
-0.007045   -0.020362  -0.0024977     0.35966    -0.17952   -0.070058   -0.022311
-0.018088   -0.031081   -0.018413     0.30639   -0.045697   -0.060313   -0.024585
-0.025234   -0.032705   -0.025559     0.24566    0.064088   -0.041799   -0.029457
-0.026858   -0.029132   -0.021986     0.18134     0.14204   -0.019712   -0.032705
-0.022961   -0.023935   -0.011592     0.11736     0.18784  0.00042559    -0.03303
-0.01549   -0.020687  -0.0024977     0.06019     0.20863    0.016341   -0.025559
-0.007045   -0.013541   0.0069217    0.016341     0.21123    0.028684   -0.013866
0.0014  -0.0063954    0.017316   -0.012892     0.20473    0.038753 -0.00022403
0.0052977  -0.0011985    0.025761   -0.028157     0.19531    0.045249    0.010819
0.0056225   0.0023744    0.031932   -0.034978     0.18946    0.048172    0.011794
0.0059473   0.0052977    0.037129   -0.033679     0.19109    0.049147   0.0017248
0.0085458   0.0078962    0.040052   -0.029457     0.19693    0.048497   -0.010618
0.014068   0.0062721    0.039078   -0.029132     0.20603    0.045899   -0.019388
0.024786   0.0020496    0.036479   -0.037902     0.21707     0.04395   -0.023935
0.030633  -0.0028225     0.03453   -0.051868     0.22877    0.042651    -0.02361
0.027385  -0.0073698    0.033231   -0.062912     0.23786    0.041351   -0.020687
0.016341   -0.010943    0.031932   -0.062587     0.24533    0.038103   -0.018738
0.0039985   -0.012892    0.029983   -0.052518      0.2515    0.033231   -0.022636
-0.0050961   -0.012242     0.02706   -0.043423     0.25767    0.031932   -0.029782
-0.012242  -0.0099683    0.022188   -0.046347     0.26547    0.034855   -0.033354
-0.017114   -0.010618     0.01894   -0.064861     0.28008      0.0433   -0.027183
-0.019063   -0.010943     0.01829   -0.090521     0.30055    0.057267   -0.013541
-0.015815   -0.011267    0.020564    -0.10871     0.32263    0.075456      0.0014
-0.0054209   -0.010943    0.020564    -0.11391      0.3431    0.091047    0.011469
0.0069217   -0.011592    0.016016    -0.11326     0.36453    0.096893    0.015692
0.015042   -0.013216   0.0049729    -0.11813     0.39377     0.09462    0.014392
0.016016   -0.017764   -0.012892    -0.13275     0.43242    0.085525    0.009845
0.012119   -0.022311   -0.034004    -0.15743     0.47822    0.076106   0.0049729
0.010819   -0.021012   -0.055441    -0.18504     0.52337     0.06896   0.0023744
0.015042   -0.012892   -0.070707    -0.20583      0.5578    0.060515 -0.00087364
0.024786   0.0026992   -0.077528    -0.20908     0.57079    0.050121  -0.0034721
0.034206    0.020239   -0.075904    -0.18959     0.54903    0.033881  -0.0031473
0.035505     0.03583   -0.062587    -0.14964     0.48796    0.013093  0.00042559
0.027709    0.044275   -0.035628   -0.090845     0.38857  -0.0099683   0.0017248
0.011794    0.044599  -0.0018481   -0.023935     0.26709   -0.031406  -0.0024977
-0.007045    0.035505    0.026085     0.03583     0.15438   -0.043423  -0.0093186
-0.02361    0.023812    0.039402    0.075781    0.073832   -0.045047   -0.014516
-0.033354    0.013093    0.041027    0.086824    0.028684   -0.038876   -0.017764
-0.038551   0.0059473    0.031932    0.069934   0.0043233   -0.033679   -0.015815
-0.043099  0.00075039    0.016341    0.037129   -0.011267   -0.035303   -0.012892
-0.046022  -0.0011985  -0.0018481   0.0049729   -0.023935   -0.044723  -0.0080194
-0.047321  -0.0031473   -0.012242    -0.01614   -0.031406   -0.055441  -0.0011985
-0.044398  -0.0060706  -0.0096434   -0.022961   -0.036927   -0.063886   0.0059473
-0.037902  -0.0099683   0.0026992   -0.019063   -0.043099   -0.064211    0.012119
-0.032055   -0.012242    0.015692   -0.010943   -0.055766   -0.055441    0.016341
-0.030431   -0.010293    0.025761  -0.0060706   -0.080776     -0.0405    0.019264
-0.028157  -0.0034721    0.029009  -0.0050961    -0.11651   -0.025559    0.021213
-0.02426   0.0026992    0.026085  -0.0089938    -0.15776   -0.017764    0.024461
-0.025559   0.0039985    0.019264   -0.021986    -0.20648   -0.019388    0.024137
-0.031081   0.0020496    0.009845   -0.043099    -0.27144   -0.025559    0.016016
-0.037252  -0.0028225  0.00075039   -0.062262    -0.35784   -0.029132   0.0023744
-0.045372  -0.0099683  -0.0063954   -0.068434    -0.46892   -0.027183   -0.011917
-0.055441   -0.018738   -0.016789   -0.050894    -0.60599   -0.021661   -0.026209
-0.067784   -0.025884    -0.03173   -0.011592    -0.76125    -0.01614   -0.036927
-0.078503   -0.030756   -0.040825    0.045249    -0.91261   -0.011267   -0.042774
-0.076554   -0.029457   -0.034654     0.10826     -1.0243  -0.0067202   -0.045372
-0.058689   -0.019063   -0.013541     0.16543     -1.0627  0.00042559   -0.044398
-0.025884   0.0039985     0.01829     0.20181      -1.013    0.011469   -0.038551
0.0075714    0.032582    0.048822     0.20733    -0.89247    0.023487   -0.030756
0.029658    0.057267    0.065062     0.18102    -0.73137    0.031607   -0.023285
0.038753    0.069285    0.058566     0.13165    -0.56441    0.028034   -0.020037
0.036804    0.066362    0.032257    0.076431    -0.41435    0.012443    -0.01614
0.030308     0.05272  -0.0034721    0.031607    -0.28898  -0.0034721   -0.010943
0.018615     0.03518   -0.034978   0.0065969    -0.19251  -0.0099683   -0.007045
0.0065969     0.01894   -0.050894   0.0010752     -0.1269  -0.0076946  -0.0037969
-0.0041217   0.0078962    -0.04862    0.010819   -0.085324  -0.0076946  -0.0018481
-0.0096434      0.0014   -0.035303    0.025436   -0.058365   -0.013216  -0.0021729
-0.0089938  -0.0031473    -0.02361    0.038103   -0.040825   -0.021012   -0.007045
-0.0063954  -0.0063954   -0.022636    0.033556   -0.032705   -0.028157   -0.019063
-0.011267   -0.010293   -0.035953  -0.0041217   -0.042449   -0.036278   -0.036927
-0.022311   -0.015815   -0.054792   -0.073955   -0.062912   -0.048296   -0.053492
-0.035303   -0.021337   -0.069733    -0.14346   -0.072656   -0.060638   -0.062262
-0.046996   -0.024909   -0.070707    -0.17042   -0.052518   -0.072006   -0.058365
-0.053168   -0.022961   -0.058689    -0.13924  0.00042559    -0.08305   -0.046347
-0.050894   -0.013866   -0.036927   -0.064861    0.073182   -0.092145    -0.03173
-0.043099  -0.0021729   -0.016464    0.015367     0.14139   -0.091495   -0.017764
-0.034978    0.011469  -0.0044465    0.070259     0.18816   -0.079802  -0.0099683
-0.026209     0.01829  -0.0028225     0.08585     0.20765   -0.061937   -0.008669
-0.019388    0.016016  -0.0073698    0.072533     0.20635   -0.045372   -0.011267
-0.011917   0.0062721   -0.011592    0.046548     0.19369   -0.032705   -0.012892
-0.007045  -0.0057458   -0.013541    0.021538     0.17615   -0.022636   -0.010293
-0.010618    -0.01549   -0.014516   0.0043233     0.15796   -0.011917  0.00042559
-0.019388   -0.019063   -0.017764  -0.0011985     0.14042  0.00010078     0.01829
-0.026209   -0.017114    -0.02426   0.0036737      0.1258    0.012768    0.036154
-0.025559  -0.0093186   -0.029132    0.014068     0.11866    0.023487    0.048822
-0.017439  -0.0011985   -0.029457    0.029983     0.11768    0.032906    0.053694
-0.0089938   0.0065969   -0.024585    0.048172     0.12483    0.040702    0.055643
-0.0041217    0.014392    -0.01549    0.059216     0.13782    0.046223    0.060515
-0.0054209     0.01894  -0.0034721    0.062139     0.15276    0.048497    0.064413
-0.0080194    0.018615   0.0065969    0.057592     0.16283    0.044275    0.062464
-0.010943    0.016991    0.013743    0.051745     0.16478    0.034855    0.055318
-0.013216    0.017965    0.014717    0.048172     0.16056    0.025111    0.048497
-0.01614    0.021863    0.010495    0.050121     0.15731     0.01764    0.045899
-0.017439    0.024137   0.0039985    0.058566     0.16315     0.01017    0.045249
-0.018738    0.023162 -0.00054884    0.065062     0.18524   0.0026992    0.044275
-0.021986    0.022188 -0.00087364    0.067661     0.22454  -0.0021729    0.039727
-0.026533     0.01894   0.0039985    0.067011     0.27229  -0.0041217     0.03518
-0.030106    0.017316     0.01017    0.061489     0.31679  -0.0063954    0.033556
-0.028807    0.018615    0.015042     0.05142       0.347  -0.0089938    0.035505
-0.02361    0.021538    0.016341    0.041027     0.35966   -0.011267    0.038428
-0.017114    0.022837    0.015042    0.036154     0.35771   -0.011592    0.038428
-0.011917    0.019264    0.011469    0.037454     0.34147  -0.0073698    0.033231
-0.0080194    0.012768    0.010819    0.044275     0.30607      0.0014    0.022512
-0.0060706   0.0046481    0.012119    0.047198     0.23494    0.011469    0.016341
-0.0047713  -0.0031473    0.013743    0.041676     0.11086     0.01894    0.017316
-0.0044465  -0.0076946    0.015367    0.029658   -0.072331    0.021863    0.020888
-0.0063954  -0.0093186    0.016341    0.016666    -0.30197    0.020239    0.022837
-0.0067202  -0.0073698     0.01764   0.0091954    -0.54233    0.015692    0.019589
0.00042559  -0.0037969    0.015367    0.009845    -0.74306    0.010819    0.012443
0.013743  -0.0028225   0.0078962    0.016016    -0.86389   0.0036737   0.0039985
0.024786  -0.0047713  -0.0021729    0.020888    -0.89117  -0.0028225  0.00010078
0.031282  -0.0083442   -0.011267    0.021863    -0.84212   -0.010293   0.0017248
0.036479   -0.010943   -0.017439    0.017316    -0.74273   -0.016789   0.0091954
0.040702   -0.011592   -0.022636     0.01017    -0.61996   -0.021661    0.016991
0.041676  -0.0099683   -0.026533   0.0039985    -0.49101   -0.026533    0.021213
0.042651   -0.007045   -0.026858   0.0020496    -0.37018   -0.033354    0.022512
0.041676  -0.0031473   -0.022311   0.0039985    -0.26722   -0.039851    0.021538
0.041351 -0.00022403   -0.015165   0.0026992    -0.18991   -0.045372    0.019264
0.036154 -0.00087364  -0.0083442  -0.0037969    -0.14022   -0.050569    0.015042
0.023162  -0.0067202  -0.0054209    -0.01614     -0.1204   -0.059339   0.0085458
0.0065969    -0.01484   -0.008669    -0.03238    -0.12885   -0.071357    0.003024
-0.0018481   -0.026533   -0.015165   -0.048296    -0.14736   -0.085648   0.0010752
0.0010752   -0.036602   -0.022636    -0.05739    -0.15516   -0.098965 -0.00022403
0.0095202     -0.0405   -0.030106   -0.059989    -0.12885    -0.10838  -0.0018481
0.013418   -0.038227   -0.036278   -0.057715   -0.055116    -0.11358  -0.0011985
0.01017   -0.031406   -0.042449   -0.051219    0.063438    -0.10838   0.0059473
0.0014   -0.021661   -0.047646   -0.041475     0.20408   -0.091495    0.016341
-0.0041217   -0.010943    -0.04862   -0.028482     0.33823    -0.06681    0.025111
-0.0028225  0.00075039    -0.04115   -0.019063     0.44671   -0.043099    0.029333
0.0052977    0.008221   -0.027833   -0.020037     0.52272   -0.028482    0.029333
0.014717    0.011144   -0.014516   -0.027508     0.56721    -0.02426    0.029983
0.016016    0.009845  -0.0093186   -0.035303     0.58313   -0.027508    0.034206
0.012119   0.0052977   -0.010618   -0.039851     0.56657   -0.034004    0.036804
0.0078962  0.00042559   -0.010618   -0.042449     0.51167   -0.036602    0.030633
0.0095202  -0.0028225  -0.0063954   -0.041475     0.42527   -0.034329     0.01764
0.012768  -0.0060706   0.0020496   -0.034329     0.32198   -0.027508   0.0065969
0.013418  -0.0076946   0.0059473   -0.018738     0.22844   -0.017439 -0.00022403
0.0088706  -0.0083442   0.0010752  -0.0031473     0.15633  -0.0076946  -0.0015233
0.00010078  -0.0067202   -0.013866   0.0049729     0.10177 -0.00022403  0.00075039
-0.008669  -0.0050961   -0.034329  -0.0080194    0.055968   0.0039985   0.0017248
-0.011592  -0.0024977   -0.056091    -0.04862    0.015367   0.0052977  -0.0024977
-0.0076946      0.0014   -0.071032    -0.10481   -0.014516   0.0043233  -0.0096434
-0.0018481   0.0046481   -0.073631    -0.14606   -0.024909   0.0010752   -0.019712
0.0046481   0.0078962   -0.062587    -0.14314   -0.014516  -0.0067202   -0.031081
0.0095202    0.010495   -0.040175   -0.084024    0.010819   -0.021661   -0.038227
0.012119    0.012768   -0.012242     0.01764    0.042001   -0.047971   -0.042449
0.012119    0.012119     0.01764      0.1284    0.071558   -0.082076   -0.043748
0.012119    0.011469    0.042651     0.21675    0.093645     -0.1178   -0.045372
0.015042    0.011794    0.054668     0.26482     0.10242    -0.14931   -0.051219
0.01829    0.011469    0.051745     0.26125    0.098517    -0.16685   -0.058689
0.018615   0.0075714    0.037129     0.21188    0.083901     -0.1649    -0.06681
0.012768   0.0033489    0.014392     0.13814    0.067661    -0.14087   -0.069733
0.00042559  -0.0021729  -0.0083442    0.067661    0.058241    -0.10156   -0.065186
-0.013541  -0.0076946   -0.025234    0.021538    0.062139   -0.055441   -0.054792
-0.020037  -0.0083442   -0.034329   0.0078962    0.074157  -0.0096434   -0.043099
-0.016464  -0.0067202   -0.035628    0.018615    0.080328    0.029009   -0.031406
-0.0050961 -0.00054884   -0.032055    0.041351    0.072208    0.055318   -0.023285
0.0069217   0.0062721   -0.027833    0.057267    0.056942    0.067986   -0.018088
0.014717   0.0088706   -0.026858    0.048497    0.047198    0.069285   -0.017114
0.014392   0.0043233   -0.028807   0.0026992    0.055968    0.067011   -0.015815
0.0056225  -0.0044465   -0.028157   -0.070382    0.087149    0.066686   -0.013866
-0.007045    -0.01484   -0.024585    -0.14801     0.13067    0.070584   -0.010293
-0.019388   -0.021986    -0.02361    -0.20583     0.16868    0.072858  -0.0089938
-0.028482   -0.026209   -0.028807    -0.23344     0.18622    0.073182    -0.01614
-0.033679   -0.027508   -0.044398    -0.22856     0.18264    0.073832   -0.027833
-0.033679   -0.028482   -0.059989    -0.20323     0.16056    0.077405   -0.037577
-0.027183   -0.026858   -0.068109     -0.1727     0.12125    0.083901   -0.039851
-0.018088   -0.021661    -0.06616    -0.13827    0.060515    0.087149   -0.034978
-0.010293    -0.01484    -0.05804   -0.096692   -0.018088    0.082277   -0.025559
-0.0057458  -0.0063954   -0.046347   -0.050244   -0.097341    0.069285   -0.015165
0.0010752   0.0023744   -0.028807   -0.021661    -0.15711    0.055643  -0.0057458
0.012443    0.011144  -0.0024977   -0.023285    -0.18959     0.05272   0.0059473
0.028684     0.01894    0.027709   -0.053817    -0.20648    0.063763    0.016991
0.042975    0.024461    0.048822   -0.087272    -0.21979      0.0852    0.026735
0.054019    0.026735    0.054993   -0.094093    -0.23603     0.10242    0.033881
0.058891    0.025761    0.047523   -0.055766    -0.26104     0.10599    0.036479
0.057917    0.021538    0.036804    0.026085    -0.29223    0.095269    0.037129
0.049796    0.014717    0.027709     0.12515    -0.33088    0.075781    0.040377
0.035505   0.0072465    0.021863     0.21382    -0.37148    0.055318    0.047198
0.01829  -0.0028225    0.015367     0.27002    -0.40558    0.038428    0.050446
0.0036737   -0.012567   0.0088706     0.28496    -0.42572    0.024137    0.046873
-0.0060706   -0.017439   0.0049729     0.26612    -0.42865   0.0091954    0.035505
-0.011917   -0.018088   0.0043233     0.23039    -0.40526  -0.0057458    0.019914
-0.012892   -0.013866   0.0062721     0.19304    -0.35232   -0.022311   0.0078962
-0.011267   -0.008669    0.010495     0.16088    -0.26819   -0.040175   0.0017248
-0.0073698  -0.0037969    0.015367     0.13165    -0.14931   -0.058689 -0.00054884
-0.0041217  0.00010078    0.019589     0.10404   0.0043233   -0.073955  -0.0021729
0.00075039   0.0033489    0.015367    0.080003      0.1781   -0.079477  -0.0041217
0.0056225   0.0052977   0.0033489    0.056292     0.34245   -0.071682  -0.0080194
0.0059473   0.0039985  -0.0083442     0.03518     0.46035   -0.052843   -0.012242
-0.0011985  -0.0015233   -0.017439     0.01829     0.51102   -0.030431   -0.013541
-0.012242  -0.0089938   -0.022311   0.0072465     0.49056   -0.019388  -0.0093186
-0.020687   -0.012892   -0.020362   0.0017248      0.4191   -0.021012 -0.00054884
-0.02361   -0.010293    -0.01549 -0.00054884     0.33043   -0.027183   0.0049729
-0.021337  -0.0037969   -0.012892  -0.0021729     0.25183   -0.031081   0.0059473
-0.016464 -0.00054884   -0.011267  -0.0021729     0.19628   -0.032705   0.0023744
-0.013541  -0.0015233  -0.0080194  -0.0028225     0.16218   -0.033354  -0.0024977
-0.013216  -0.0054209  -0.0080194  -0.0037969     0.14496   -0.034329  -0.0073698
-0.01549  -0.0076946   -0.011267  -0.0050961     0.13587   -0.036927   -0.010943
-0.016464  -0.0099683   -0.013866  -0.0093186     0.12743   -0.043423   -0.014516
-0.01549    -0.01549   -0.011917    -0.01614     0.11508   -0.055116   -0.020037
-0.012242   -0.020687  -0.0093186   -0.027833    0.096244   -0.067134   -0.028807
-0.0089938   -0.022311  -0.0063954   -0.040175    0.066362   -0.077853   -0.042774
-0.0067202   -0.018088  -0.0024977   -0.052518     0.03583   -0.084999   -0.056741
-0.0063954  -0.0076946   0.0023744   -0.063561    0.016991   -0.087597   -0.065835
-0.0089938   0.0043233   0.0085458   -0.071032    0.012443   -0.086948   -0.067134
-0.012892    0.013743    0.016991   -0.076554    0.014392   -0.084024   -0.059339
-0.015815    0.017316    0.022512   -0.092794    0.010819   -0.075904   -0.046347
-0.017764    0.013743    0.017965    -0.12138  -0.0076946   -0.062262   -0.037902
-0.016789   0.0056225   0.0056225    -0.15191   -0.042774   -0.047321   -0.038227
-0.014191  -0.0060706   -0.011267     -0.1675   -0.092145   -0.036278   -0.045697
-0.011917   -0.016789   -0.027833    -0.15808    -0.14606   -0.032055   -0.055441
-0.012892    -0.02361   -0.041475     -0.1269    -0.19966   -0.033679   -0.062587
-0.017114   -0.027508   -0.050244   -0.077853    -0.24578   -0.039851   -0.060313
-0.021012   -0.026858    -0.04927   -0.008669    -0.27826   -0.045372   -0.052193
-0.02426   -0.020037   -0.037577    0.076106    -0.29417   -0.045372   -0.045372
-0.024909  -0.0073698   -0.013216     0.15698    -0.29093   -0.036278   -0.037902
-0.020037   0.0091954     0.01894     0.20473    -0.27306   -0.019063   -0.025234
-0.012242    0.023487    0.050771     0.20538    -0.25325   0.0033489   -0.007045
-0.0041217    0.033556    0.074157     0.15991    -0.24026    0.021538   0.0065969
0.0010752    0.036479    0.083251    0.088448    -0.23993    0.033556   0.0056225
0.0036737     0.03583    0.074806    0.014068     -0.2487     0.03518  -0.0067202
0.008221    0.030633    0.053369   -0.041799    -0.24643    0.027385    -0.02426
0.013418    0.020888    0.028034   -0.071357    -0.21362    0.012119   -0.040175
0.016991   0.0078962   0.0056225   -0.077203    -0.14736 -0.00022403    -0.04927
0.016016  -0.0054209   -0.012892   -0.069408   -0.059989  -0.0054209   -0.049595
0.0088706   -0.017114   -0.022636   -0.059339    0.021863  -0.0044465   -0.042449
-0.0011985   -0.024909   -0.020037   -0.055441    0.080653  -0.0021729   -0.032055
-0.0093186   -0.028482   -0.008669    -0.05739     0.11671 -0.00087364   -0.020037
-0.012892   -0.027833   0.0043233   -0.059664     0.13392  -0.0011985  -0.0067202
-0.012892   -0.026858   0.0091954   -0.062912     0.13977  -0.0028225   0.0056225
-0.0093186    -0.02426    0.003024   -0.068434     0.13425  -0.0037969    0.011794
-0.0041217   -0.018088  -0.0099683    -0.07493     0.11281  -0.0063954    0.013743
-0.0028225  -0.0096434    -0.02426   -0.077853     0.07773   -0.010293    0.014068
-0.0050961  -0.0018481   -0.034004   -0.073955    0.034855   -0.014191    0.016341
-0.0096434  0.00042559   -0.034654   -0.063561  -0.0093186   -0.017764    0.019264
-0.01614      0.0014   -0.026209   -0.050894   -0.048296   -0.021661    0.020239
-0.025884 -0.00087364    -0.01484   -0.041475   -0.077853   -0.026858    0.017316
-0.035953  -0.0057458   -0.007045   -0.036927   -0.095393   -0.029457   0.0095202
-0.045697  -0.0099683  -0.0044465     -0.0405    -0.10676   -0.028482   0.0020496
-0.052843  -0.0093186   -0.007045   -0.052193    -0.11845    -0.02426   0.0010752
-0.052518  -0.0060706   -0.011267   -0.062912    -0.13404   -0.020687   0.0056225
-0.045047  -0.0050961   -0.012892   -0.064861    -0.15223   -0.018738     0.01017
-0.033354  -0.0050961  -0.0093186   -0.056741     -0.1727   -0.016789    0.010819
-0.019712  -0.0034721  -0.0037969   -0.043099    -0.19836   -0.018413    0.010819
-0.008669   0.0033489 -0.00087364   -0.026858    -0.23733   -0.020037    0.015042
-0.00054884    0.012768  -0.0031473   -0.010293    -0.30327   -0.023285     0.02641
0.0069217    0.019914  -0.0099683   0.0039985    -0.40299   -0.029782    0.037129
0.012443    0.022188   -0.016464    0.013418    -0.51927   -0.042774    0.041676
0.016341    0.020564   -0.018088    0.011144    -0.61638   -0.060638    0.036479
0.019589    0.014392   -0.014191  -0.0044465    -0.65341   -0.076554    0.023487
0.021863   0.0078962  -0.0073698   -0.027833    -0.61768   -0.085324     0.01017
0.022188 -0.00054884  -0.0037969   -0.050894    -0.52511   -0.089221  -0.0015233
0.021538  -0.0054209  -0.0073698   -0.067459    -0.40851   -0.089871  -0.0050961
0.021863   -0.007045   -0.011267   -0.075579    -0.28638   -0.084349 -0.00022403
0.024786  -0.0050961  -0.0076946   -0.080451    -0.16295   -0.071357    0.010495
0.022512  -0.0044465   0.0033489   -0.078178     -0.0405   -0.055441    0.019264
0.012119  -0.0080194    0.015367   -0.070382    0.071558   -0.036602    0.023487
-0.0031473   -0.011267    0.020888   -0.057065     0.16803    -0.01484    0.019589
-0.014191   -0.013866     0.01764   -0.042449     0.24955   0.0033489   0.0075714
-0.018738   -0.016464   0.0052977   -0.030431     0.32231    0.015367  -0.0050961
-0.015165   -0.015815   -0.011267   -0.029457     0.39247    0.022188   -0.011592
-0.0093186   -0.010618   -0.025884   -0.037252     0.46393     0.02641   -0.011592
-0.0050961  -0.0041217   -0.036278   -0.046022     0.52954    0.032906  -0.0037969
-0.007045   0.0043233   -0.042449   -0.042124      0.5867    0.041027   0.0049729
-0.013216    0.012119   -0.045372   -0.020037     0.62698    0.047198   0.0088706
-0.020687    0.020888   -0.043099    0.016016     0.63315     0.04395   0.0059473
-0.024909    0.028684   -0.034329    0.055968     0.58995    0.031932   0.0046481
-0.023285     0.03453   -0.019388    0.091372     0.49933    0.014392   0.0065969
-0.016464    0.039402  -0.0031473     0.11183      0.3811  -0.0050961   0.0088706
-0.0089938    0.041027    0.011144     0.11671     0.25637   -0.024585    0.010495
-0.0021729    0.036479    0.024137     0.11086     0.14074   -0.042774    0.010819
0.0023744     0.02706    0.029658     0.10306    0.045899   -0.059989    0.014068
0.0062721    0.014717    0.029983    0.095594   -0.026858   -0.072006    0.020564
0.0062721   0.0062721    0.029009    0.090722   -0.088247    -0.07493    0.027709
0.0020496   0.0039985    0.030633    0.087799    -0.15711    -0.06616    0.034206
-0.0031473   0.0062721    0.031607    0.084226    -0.25162   -0.048296    0.039727
-0.0099683   0.0091954    0.029009    0.074806    -0.38577   -0.030106    0.042651
-0.018413    0.010819    0.021538    0.056292    -0.57383   -0.021986    0.042651
-0.028482    0.008221    0.012768    0.033881    -0.80997   -0.028807    0.037778
-0.038227   0.0023744   0.0056225    0.012443     -1.0688   -0.050569    0.029333
-0.043748   -0.007045  -0.0037969  -0.0031473     -1.3076   -0.083375    0.014392
-0.044073    -0.01614   -0.014516   -0.012892     -1.4752     -0.1178  -0.0047713
-0.043748   -0.022636   -0.022636   -0.019712     -1.5252    -0.14476   -0.022636
-0.046671   -0.023935   -0.026858   -0.028482     -1.4346    -0.15841   -0.036602
-0.052843   -0.019063   -0.027833   -0.036278     -1.2095    -0.15646   -0.044398
-0.059339  -0.0050961   -0.027183   -0.039526    -0.88955    -0.14152   -0.043423
-0.064211    0.013418   -0.026209   -0.034654    -0.53778    -0.11748   -0.035628
-0.062912    0.029983   -0.023935   -0.022311    -0.21492   -0.091495   -0.026858
-0.053168     0.03583   -0.017439  -0.0080194     0.03453   -0.067134   -0.022636
-0.034004    0.029658  -0.0050961   0.0052977     0.19401   -0.045047   -0.024909
-0.013216    0.017965   0.0056225    0.015042     0.27261   -0.025884   -0.027833
-0.00022403   0.0043233   0.0095202    0.017316      0.2947   -0.010293   -0.025559
-0.00054884  -0.0057458   0.0023744    0.011144     0.28853   0.0043233   -0.019388
-0.013216  -0.0099683   -0.013541  -0.0067202     0.28268     0.01764   -0.013541
-0.03303   -0.008669    -0.03303   -0.030106     0.30022    0.028359  -0.0089938
-0.04862  -0.0063954   -0.051544   -0.048296     0.34375     0.03583  -0.0099683
-0.052518  -0.0047713   -0.063237   -0.050569     0.40806    0.038753   -0.016464
-0.044398  -0.0031473   -0.064861    -0.03303     0.47854    0.038103   -0.026209
-0.031406 -0.00022403    -0.04992  0.00042559      0.5435    0.035505   -0.037902
-0.020362   0.0065969   -0.025884    0.040052     0.59515    0.029009   -0.046022
-0.01484    0.012443  -0.0041217    0.076106     0.63055    0.020564   -0.049595
-0.016789    0.015692    0.010495     0.10112     0.65037    0.015367   -0.044073
-0.023285    0.017316    0.015367     0.11248     0.65491    0.014392   -0.029782
-0.027833    0.015042     0.01017     0.11021     0.64842    0.016341    -0.01614
-0.022961   0.0085458  0.00075039    0.099167     0.63185     0.01829  -0.0073698
-0.0096434 -0.00054884  -0.0099683    0.081627     0.61139    0.020564  -0.0024977
0.0043233  -0.0099683   -0.020362    0.061489       0.588    0.029983   0.0033489
0.017965   -0.016789   -0.030106    0.041676     0.56721    0.047847   0.0091954
0.028359   -0.018413   -0.037577     0.02641     0.55292    0.071883    0.017965
0.030633   -0.017114   -0.037902    0.017316     0.54675    0.093645    0.026085
0.027709   -0.014191   -0.028482    0.013418      0.5448     0.10599    0.030633
0.023487   -0.010618   -0.017439    0.013093     0.53733     0.11054    0.029658
0.022512  -0.0076946  -0.0099683    0.016991     0.51557     0.10794    0.026735
0.027385  -0.0034721  -0.0096434    0.025436     0.48049     0.10436    0.022837
0.034855   0.0043233   -0.012567    0.033881     0.43957     0.10112     0.01894
0.04395    0.015367   -0.012892    0.039402     0.39572    0.096569    0.015042
0.050121    0.022837   -0.010618    0.042326     0.34602    0.085525    0.011794
0.053044    0.021538   -0.010293    0.039727     0.29373    0.068635    0.011144
0.053369    0.010819   -0.013216    0.034206     0.24013    0.051745    0.010819
0.048822  -0.0044465   -0.017439    0.030308     0.18784    0.041027    0.008221
0.041351   -0.017764   -0.020362    0.031607     0.13977     0.03453   0.0049729
0.03453   -0.022961   -0.020362    0.038753    0.096244    0.029658   0.0020496
0.032582   -0.019388   -0.018088    0.046548    0.054993    0.026085 -0.00054884
0.036804   -0.012242   -0.016789     0.05142    0.014068    0.018615  -0.0011985
0.045574  -0.0054209   -0.016789    0.050771    -0.01614   0.0069217   0.0017248
0.053694  -0.0015233   -0.015815    0.042651   -0.023285  -0.0083442   0.0065969
0.058241    0.003024   -0.008669    0.028684  -0.0021729   -0.022311    0.010819
0.051096   0.0056225   0.0023744    0.012768    0.044275    -0.03173    0.014392
0.029658   0.0056225    0.014068  -0.0024977     0.10534   -0.034654    0.013743
0.0039985  0.00075039    0.022188   -0.013866     0.16283   -0.030431    0.010819
-0.014191  -0.0083442    0.023812   -0.016464       0.207   -0.020037   0.0088706
-0.020037    -0.01614    0.025111  -0.0093186     0.23591  -0.0041217    0.011794
-0.019063   -0.017764    0.025436   0.0039985     0.25378    0.013743     0.01829
-0.017114    -0.01549    0.022837    0.012768     0.26612    0.030308     0.02706
-0.012242   -0.012242    0.014392  -0.0041217     0.27846    0.037778    0.038428
-0.0024977  -0.0089938  -0.0011985   -0.058689     0.28333    0.036479    0.047198
0.0078962  -0.0063954   -0.021986    -0.14769     0.27879     0.02706    0.053694
0.014068  -0.0054209   -0.045697    -0.24578     0.25995    0.015367    0.053694
0.014717  -0.0034721   -0.067784    -0.32958     0.22065   0.0075714    0.051096
0.008221   0.0010752   -0.081101    -0.38934     0.14951   0.0078962    0.048172
-0.00022403   0.0069217   -0.079152    -0.41695    0.050771    0.016666    0.047847
-0.0034721    0.015692   -0.055116    -0.37473   -0.054467    0.029333    0.048172
-0.0018481    0.031282   -0.010943    -0.21914    -0.13924    0.041027    0.046223
0.0020496    0.047523    0.045899      0.0433    -0.18894    0.048172    0.038428
0.0069217    0.057267     0.10047     0.33465    -0.20388    0.046223     0.02706
0.0056225    0.055643     0.14074     0.55682    -0.19933    0.033231    0.014392
-0.0031473    0.045899     0.15926     0.65296    -0.18926    0.011144   0.0036737
-0.015815    0.032257     0.15731     0.62146    -0.18439   -0.015165  -0.0044465
-0.027183    0.016016     0.14269     0.50323    -0.18829   -0.040825   -0.011592
-0.034004   0.0036737      0.1206     0.35544    -0.20745   -0.060963   -0.020037
-0.034978  -0.0028225    0.093321     0.21772    -0.23863   -0.071357   -0.027833
-0.034978  -0.0015233     0.06084     0.10761    -0.27241   -0.071682   -0.032705
-0.035628   0.0043233    0.024461    0.037129    -0.30035   -0.064536   -0.032705
-0.032705    0.012768   -0.013866   0.0085458    -0.32243   -0.053168   -0.028482
-0.025234     0.01829   -0.053168   0.0043233    -0.33932   -0.044398   -0.024909
-0.01549    0.017965   -0.088247  -0.0073698    -0.35037   -0.041475   -0.025234
-0.0080194    0.013093    -0.11878   -0.045697    -0.35134   -0.042124   -0.027833
-0.0034721   0.0078962    -0.13892    -0.11618    -0.33737   -0.042449   -0.028482
0.0020496   0.0056225    -0.14249    -0.20388    -0.30814   -0.040825   -0.029132
0.0091954    0.012119     -0.1295    -0.27923    -0.27436   -0.037252    -0.02426
0.018615    0.023162    -0.11033    -0.32146    -0.25975   -0.034978   -0.012892
0.030308    0.029983   -0.090845    -0.32178    -0.28411   -0.033679   0.0049729
0.041676    0.026085    -0.07428    -0.27988    -0.35264   -0.035628    0.023162
0.048497    0.012768   -0.062262    -0.20388    -0.43871   -0.041799    0.037778
0.049796  -0.0044465   -0.054792    -0.10774    -0.50757   -0.050244    0.044924
0.047198   -0.018738   -0.051544    -0.02361    -0.53226   -0.059664    0.042001
0.041027   -0.024909   -0.052843    0.008221    -0.50627    -0.06681    0.029658
0.033556    -0.02361   -0.060313   -0.029132    -0.44294   -0.072006    0.014392
0.027385   -0.019712   -0.072656    -0.11618    -0.36401   -0.076554      0.0014
0.023812   -0.017764   -0.086623    -0.20518    -0.28476   -0.084349  -0.0063954
0.017316   -0.020687   -0.096042    -0.25195    -0.21785   -0.098641  -0.0080194
0.0026992   -0.027833   -0.097991    -0.24708     -0.1675    -0.11521  -0.0060706
-0.017439   -0.033354   -0.093769    -0.20972    -0.13599    -0.12495  -0.0060706
-0.039526   -0.035953   -0.085324    -0.13827    -0.12138    -0.11943  -0.0099683
-0.053168   -0.031081   -0.070058  -0.0031473    -0.11293    -0.09929    -0.01614
-0.04992   -0.015165   -0.042449      0.2096   -0.091495   -0.073306   -0.018738
-0.032055    0.012443   0.0049729       0.461    -0.04862   -0.049595    -0.01484
-0.0057458    0.042326    0.058566      0.6796   0.0072465   -0.034654   -0.007045
0.021213    0.068635     0.10014       0.804    0.051745   -0.028482      0.0014
0.042975    0.083901     0.11995     0.80822    0.064088   -0.027183   0.0052977
0.053369    0.084226     0.11443     0.71273    0.037778   -0.021661   0.0078962
0.050446    0.070909    0.090397     0.56624   -0.021337   -0.011592   0.0043233
0.037454    0.050446     0.06019     0.41618   -0.096042   0.0062721  -0.0024977
0.022837    0.027709    0.034855     0.28723     -0.1649     0.02641   -0.011267
0.008221   0.0059473    0.019914     0.18427    -0.21395    0.043625   -0.015815
-0.0047713   -0.011592    0.013418     0.10436    -0.24058    0.054668    -0.01484
-0.01484   -0.021337    0.010819    0.042001    -0.25357    0.055968  -0.0080194
-0.020362   -0.024585    0.008221  -0.0063954     -0.2591     0.05207  0.00010078
-0.026858   -0.025234   0.0065969   -0.044073     -0.2552    0.049147   0.0036737
-0.03173   -0.021661   0.0046481   -0.075579    -0.24091    0.054668   0.0039985
-0.034329   -0.017114   0.0033489    -0.10221    -0.21752    0.066037 -0.00054884
-0.036927    -0.01614   0.0026992    -0.12398    -0.18926    0.078379  -0.0083442
-0.037902   -0.018738   0.0020496    -0.13957    -0.15743    0.089098   -0.017764
-0.037577   -0.023935   0.0023744    -0.15158    -0.12235    0.098193   -0.026533
-0.036927   -0.030431   0.0046481    -0.16003   -0.089871     0.10599   -0.032705
-0.037252   -0.038227   0.0072465     -0.1675   -0.063237     0.11054   -0.034329
-0.036602   -0.044398    0.008221    -0.17659   -0.039526     0.10696   -0.030106
-0.036927   -0.046996   0.0075714    -0.19316    -0.01614    0.092996   -0.025559
-0.039201   -0.046671    0.003024    -0.21817   0.0039985    0.067661   -0.020362
-0.042124   -0.044398  -0.0044465    -0.24773    0.018615    0.033231   -0.017764
-0.042774   -0.040175   -0.010618    -0.27534    0.023162  -0.0034721   -0.019063
-0.036927   -0.035953   -0.016789    -0.29612    0.011469   -0.042124   -0.020687
-0.025884   -0.034654   -0.021337    -0.30522   -0.022311   -0.080776   -0.023285
-0.01549   -0.036927   -0.029132    -0.30229   -0.070058    -0.11326   -0.024909
-0.010943   -0.035628   -0.038876    -0.29547    -0.10871    -0.13567   -0.024909
-0.0099683   -0.026533   -0.045372    -0.28248     -0.1178    -0.14411   -0.022636
-0.011917    -0.01549     -0.0405    -0.25455   -0.095393    -0.14087   -0.021661
-0.014516  -0.0080194   -0.024585    -0.20453   -0.055766    -0.13307    -0.02361
-0.017764  -0.0047713  -0.0060706    -0.14281    -0.01484    -0.12398   -0.027508
-0.021986  -0.0018481   0.0095202   -0.084024    0.020564    -0.11391   -0.028157
-0.027183  0.00075039    0.016016   -0.043423    0.049147    -0.10026   -0.023935
-0.028807   0.0020496    0.013743   -0.028807    0.073832   -0.084999   -0.014516
-0.026858   0.0043233   0.0059473   -0.037252    0.099492   -0.069408  -0.0015233
-0.021337   0.0075714  -0.0076946   -0.058365     0.12288   -0.052518    0.010819
-0.01549    0.009845   -0.021661   -0.081751     0.13912   -0.034654    0.021863
-0.007045    0.011794   -0.030106   -0.097017     0.14659   -0.020362    0.026085
0.0085458    0.013743   -0.030106    -0.10286     0.15049   -0.015815    0.020239
0.024786    0.015367   -0.023285    -0.09994     0.15406   -0.021661   0.0059473
0.031282    0.014392    -0.01614   -0.094093     0.15861   -0.039201   -0.011267
0.023812    0.013093  -0.0093186   -0.087922     0.15893   -0.060963   -0.025234
0.009845    0.012768  -0.0024977   -0.079802     0.15211   -0.077853   -0.033679
-0.0044465    0.013743   0.0062721    -0.06681     0.14074   -0.081751   -0.036278
-0.011917    0.013743    0.015042   -0.050569      0.1297   -0.073631   -0.036278
-0.0073698    0.012443    0.023162   -0.034654     0.12288   -0.059014   -0.034329
0.0043233    0.010495    0.028684   -0.021337      0.1206   -0.045697   -0.031406
0.016341   0.0091954    0.029333   -0.010618     0.11671   -0.038876   -0.029457
0.021538    0.011794    0.022512  -0.0034721     0.10404   -0.039526   -0.032055
0.01894    0.016991    0.013418   0.0010752    0.078055   -0.041799   -0.037902
0.011469    0.021863    0.003024   0.0010752    0.036804   -0.041799   -0.044398
0.0017248    0.023487  -0.0050961  0.00010078   -0.018413   -0.039526   -0.044073
-0.008669    0.020888  -0.0080194  -0.0011985   -0.081751   -0.037577   -0.036602
-0.019712    0.013743  -0.0054209  -0.0018481    -0.13957   -0.037902   -0.029132
-0.029132   0.0065969   0.0033489  -0.0024977    -0.17627   -0.042449   -0.030431
-0.034329   0.0010752    0.012768  -0.0024977    -0.17887   -0.050244   -0.035303
-0.033679  -0.0041217    0.016016  -0.0047713    -0.14054   -0.056416   -0.040175
-0.028807   -0.010618     0.01017  -0.0063954    -0.06551   -0.055116    -0.04115
-0.022311   -0.020037 -0.00054884  -0.0083442    0.032257   -0.047321   -0.038876
-0.022311   -0.030106  -0.0093186  -0.0073698     0.13165   -0.039201   -0.038227
-0.030106   -0.038227    -0.01614  -0.0067202      0.2122   -0.035953   -0.043423
-0.042449   -0.044398   -0.020687  -0.0076946     0.26969   -0.038227   -0.051219
-0.052843   -0.048296   -0.021337   -0.011592     0.31192   -0.044398   -0.055441
-0.061937   -0.051219   -0.017114   -0.013216     0.33855   -0.049595   -0.052518
-0.06616   -0.052193   -0.010618   -0.012242     0.34212   -0.053492   -0.043748
-0.063886   -0.048945  -0.0076946   -0.010618     0.31062   -0.056091   -0.032705
-0.051544   -0.039201   -0.011267  -0.0076946     0.24403    -0.05804   -0.021661
-0.033354   -0.025234   -0.018738  -0.0044465     0.15991    -0.05739   -0.011267
-0.016464   -0.012242   -0.025559   0.0033489    0.087799   -0.054142  -0.0041217
-0.0089938  -0.0047713   -0.026858    0.014068    0.041676   -0.047646  -0.0067202
-0.010943  -0.0041217   -0.022311    0.027385    0.027709   -0.043099   -0.012892
-0.015165  -0.0083442    -0.01549    0.040052    0.046223   -0.044723   -0.018738
-0.017114   -0.014191  -0.0047713    0.045899    0.089748   -0.050244   -0.020362
-0.01614   -0.019063   0.0052977    0.046223     0.14432   -0.054467   -0.017114
-0.012242   -0.021337    0.009845    0.042975     0.19661   -0.054792  -0.0083442
-0.007045   -0.023935   0.0065969    0.040377     0.22649   -0.047971   0.0010752
-0.00054884   -0.027508  0.00010078    0.038103     0.22519   -0.036278    0.010495
0.0072465   -0.030106  -0.0018481    0.036479     0.19921    -0.02426     0.01829
0.015042   -0.034004  0.00042559    0.040052     0.16478   -0.016789    0.023162
0.017965   -0.037577   0.0075714    0.049796     0.13327    -0.01484    0.025111
0.01764   -0.042124    0.016991    0.062789     0.11151    -0.01614    0.025111
0.016341   -0.045372    0.024137    0.072858    0.097868   -0.016789    0.024461
0.015367   -0.046347    0.024786    0.074482    0.082927   -0.010293    0.022837
0.013093   -0.042124    0.017965    0.071883    0.053369 -0.00054884    0.021863
0.01017    -0.03303   0.0072465    0.067011  -0.0024977   0.0059473    0.021863
0.008221   -0.022961  -0.0011985    0.061489   -0.088572   0.0059473    0.019914
0.009845    -0.01549  -0.0073698    0.054993    -0.20063   0.0043233    0.021538
0.011469   -0.013866   -0.011917    0.044924    -0.32146   0.0062721    0.028034
0.012119    -0.01614   -0.016464    0.033556    -0.42475    0.012768    0.035505
0.012443   -0.019712   -0.022311    0.027385    -0.49556    0.022512    0.042975
0.0091954   -0.021337   -0.028807     0.02706    -0.52966    0.027709    0.048822
0.0026992   -0.017439   -0.032055    0.030308    -0.52869    0.024461    0.050446
-0.00087364  -0.0096434   -0.027833    0.033231    -0.49653    0.017316    0.048497
0.00042559  0.00075039   -0.017439    0.037129    -0.44521    0.012443     0.04395
0.0065969    0.011794  -0.0054209      0.0433    -0.38934    0.013093    0.041027
0.012119     0.01764   0.0039985    0.050446    -0.34549     0.01894    0.042975
0.016016     0.01764   0.0072465    0.055968    -0.31789    0.028359    0.048172
0.01894    0.013743   0.0039985    0.058891    -0.30424     0.03453    0.048822
0.022188   0.0088706  -0.0028225    0.054344    -0.29677    0.036479    0.044599
0.022188   0.0036737   -0.011592    0.042326    -0.28638    0.034855    0.036804
0.016341 -0.00087364   -0.018088    0.028034    -0.26429    0.032257    0.029009
0.0062721  -0.0031473   -0.022961    0.015367    -0.22207    0.029658    0.021863
-0.0011985  -0.0024977   -0.026209   0.0085458    -0.16555    0.025436    0.018615
-0.0028225  0.00075039   -0.027508   0.0059473    -0.10676    0.019914    0.020239
0.00010078   0.0039985    -0.02426   0.0056225   -0.056416    0.015692    0.026735
0.0049729   0.0069217   -0.017114   0.0065969   -0.018738    0.015042    0.033231
0.0091954    0.011144  -0.0096434    0.013093    0.012768    0.020888    0.037778
0.015042     0.01829  -0.0044465    0.024786     0.04395    0.032906    0.039727
0.021213     0.02641  -0.0024977    0.038753    0.075456    0.045899    0.036804
0.024461    0.030957  -0.0011985    0.048497     0.10566     0.05207    0.030957
0.022188    0.030633 -0.00087364    0.051745      0.1323    0.050446    0.021863
0.016341    0.028359  0.00075039    0.048497     0.15438    0.045574    0.010819
0.012443    0.029009 -0.00054884    0.041676     0.16803    0.040702   0.0017248
0.013093    0.032906  -0.0047713     0.03583     0.17095    0.039402 -0.00022403
0.016991    0.037129   -0.011267    0.032582     0.16673    0.039402   0.0049729
0.01894    0.039078   -0.017439    0.031932     0.15698    0.036804    0.011469
0.015042    0.040702   -0.019712    0.035505     0.15049    0.031282    0.014392
0.0072465    0.040377   -0.021337    0.042326     0.15406    0.026085    0.014717
-0.0031473    0.037454    -0.02426    0.049472     0.16803    0.022188    0.013418
-0.012892    0.031607   -0.029457    0.056617     0.18914    0.013743    0.011794
-0.020362    0.023812   -0.034329    0.062139     0.20895  0.00042559    0.010495
-0.02426    0.016016   -0.037252    0.065712      0.2187   -0.010943    0.009845
-0.023285    0.011469   -0.038227    0.067986     0.21285   -0.017764    0.012443
-0.019388    0.013743   -0.038876    0.067011     0.19011    -0.01614    0.015692
-0.013866    0.022512   -0.040825    0.063438     0.15503  -0.0076946    0.019589
-0.0076946    0.033881   -0.043099    0.058566     0.11703   0.0036737    0.022837
-0.0018481    0.042326   -0.045697    0.054344    0.079029    0.016991    0.025111
0.0043233    0.045899   -0.047971    0.048497    0.042975    0.024461    0.023487
0.0088706    0.044924   -0.046347    0.041676   0.0091954    0.022188    0.020564
0.011469      0.0433    -0.04115    0.030957   -0.019388    0.012443    0.020888
0.011469    0.047198   -0.030431    0.021538   -0.041799  -0.0018481    0.022188
0.0095202    0.054344   -0.015815    0.017965   -0.060963   -0.014516    0.019914
0.0043233    0.057267    0.003024    0.021213    -0.07428   -0.022961    0.011794
-0.0018481    0.053044    0.022837    0.029983   -0.082076   -0.025234  0.00010078
-0.007045    0.042326    0.036154    0.040377   -0.086948    -0.02361  -0.0099683
-0.0044465    0.030308    0.040052     0.04395   -0.094743   -0.021986   -0.017764
0.003024    0.023812    0.036479    0.039402    -0.11098   -0.025559   -0.021986
0.0085458    0.022188    0.025761    0.030633    -0.13729   -0.033354   -0.023285
0.008221    0.023812    0.010819    0.018615     -0.1662   -0.040825   -0.025234
0.003024    0.027385  -0.0067202   0.0036737    -0.18699   -0.042449   -0.029132
-0.0047713    0.028684   -0.022311  -0.0096434    -0.18569   -0.039526   -0.030431
-0.012567    0.025761   -0.030756   -0.017114    -0.15386   -0.035628   -0.029132
-0.018413    0.018615   -0.031081    -0.01614   -0.086298   -0.035303   -0.026858
-0.019712   0.0095202   -0.025884  -0.0076946    0.013418   -0.038227   -0.027833
-0.021012  0.00042559   -0.020687  -0.0015233     0.13457   -0.038227   -0.028807
-0.021012  -0.0047713   -0.020362  -0.0031473     0.26125   -0.030106    -0.02426
-0.018088  -0.0031473   -0.021986   -0.010618      0.3798   -0.015815   -0.013541
-0.011592   0.0026992   -0.021986   -0.019388     0.47399   0.0043233 -0.00022403
-0.0034721    0.011144   -0.021986   -0.024909     0.53636    0.029009   0.0095202
-0.00022403    0.016341   -0.021337   -0.021986     0.56234    0.054019    0.014717
-0.0018481    0.016016   -0.020362   -0.010618     0.55292    0.072858    0.016016
-0.0031473    0.013418   -0.019712   0.0065969     0.51979    0.077405    0.015692
0.0010752    0.011144   -0.018738    0.027709      0.4727    0.067986    0.016991
0.008221    0.012768    -0.01549    0.044924     0.41878    0.049796    0.019589
0.012443    0.013743  -0.0099683     0.05207     0.35317    0.032257     0.01829
0.009845   0.0091954  -0.0047713    0.031607     0.26547    0.017316   0.0059473
0.0010752 -0.00054884  -0.0018481   -0.027183     0.16218   0.0059473   -0.014191
-0.0099683  -0.0096434  -0.0024977    -0.10124    0.065062    0.003024   -0.030106
-0.018738  -0.0099683 -0.00087364    -0.14671  0.00010078   0.0075714   -0.035303
-0.018413  -0.0024977    0.008221    -0.13469   -0.027183    0.015042   -0.028807
-0.0034721   0.0088706    0.024786   -0.068758   -0.034654    0.021213   -0.014191
0.019914    0.016341    0.044924     0.01894   -0.053492    0.021863  -0.0021729
0.037778    0.017316    0.058566    0.086175    -0.11066    0.015367   0.0020496
0.041676    0.011144     0.06084     0.10274    -0.21167   0.0056225  -0.0034721
0.029658   0.0020496     0.05272    0.070259    -0.33802  -0.0024977    -0.01549
0.010495  -0.0050961    0.039402    0.016991    -0.46437  -0.0034721   -0.029782
-0.0044465   -0.010293     0.01894   -0.027508    -0.58228 -0.00022403   -0.040175
-0.010293   -0.013216  -0.0034721   -0.046347    -0.69791  0.00010078   -0.042449
-0.0067202   -0.013216   -0.018088   -0.037577    -0.81484  -0.0063954   -0.036602
-0.0015233   -0.013866   -0.018088  -0.0089938    -0.91683   -0.020362   -0.023935
-0.00087364    -0.01549   -0.011267    0.023812    -0.98569   -0.034978  -0.0083442
-0.0076946   -0.017439   -0.008669    0.036154     -1.0058   -0.047646   0.0017248
-0.01549    -0.01614   -0.017764  -0.0034721      -0.974   -0.059989  0.00075039
-0.021986   -0.013216   -0.037252    -0.10903    -0.88175   -0.072331   -0.010293
-0.027833   -0.010618   -0.062587    -0.25552       -0.72   -0.078178   -0.027508
-0.032055   -0.011917    -0.08305    -0.39292    -0.48906   -0.079802   -0.043748
-0.035628   -0.015165   -0.089221    -0.46957    -0.21135   -0.078827   -0.054792
-0.037577   -0.017439   -0.078178    -0.45528    0.071558   -0.078178   -0.057715
-0.039201   -0.018413   -0.056416    -0.35914     0.30899   -0.077528   -0.054142
-0.040825   -0.019712   -0.029782    -0.22337     0.46003   -0.078503   -0.047971
-0.042449   -0.022636  -0.0080194     -0.0837     0.50485   -0.078827   -0.045372
-0.043423   -0.026858   0.0072465    0.038103     0.46555   -0.076554   -0.044398
-0.042124   -0.025884    0.022837     0.12288     0.39604   -0.067459   -0.039201
-0.037902   -0.017439    0.042001     0.15406      0.3418   -0.048945    -0.02426
-0.03303  -0.0050961    0.061489     0.13327     0.32328   -0.025884  -0.0034721
-0.028807   0.0072465     0.07708    0.082927     0.33043  -0.0015233    0.017965
-0.022961    0.016341     0.08585     0.03453     0.33465    0.021863    0.031932
-0.012242     0.01829      0.0865    0.014068     0.31744    0.038428    0.031607
-0.00054884    0.016666    0.083576    0.033881     0.27521    0.045899    0.019589
0.0078962    0.010495    0.080003    0.091696      0.2122    0.044924   0.0052977
0.013743   0.0026992    0.074482     0.17127     0.13132    0.042001  -0.0037969
0.01764  -0.0050961    0.063113     0.24923     0.03518    0.039727  -0.0063954
0.018615   -0.011592     0.04395     0.30185   -0.071682    0.036804  -0.0028225
0.01829   -0.017764    0.019589     0.31776    -0.18861    0.029333   0.0020496
0.016341   -0.025234 -0.00054884     0.29892    -0.32048    0.013743    0.003024
0.012768   -0.030756   -0.012242      0.2541    -0.46015    -0.01549   0.0023744
0.0088706    -0.03173   -0.013216     0.19531    -0.58228   -0.057065  -0.0011985
0.0010752   -0.030106  -0.0076946     0.13717    -0.64984    -0.10416  -0.0047713
-0.011267   -0.029132  -0.0031473    0.090722    -0.64042    -0.14379  -0.0044465
-0.023285   -0.026209  -0.0044465    0.061489    -0.56117    -0.16847 -0.00022403
-0.027508   -0.024909   -0.011267    0.045574    -0.45203    -0.17659   0.0010752
-0.027183   -0.024585   -0.020687    0.036154    -0.35784    -0.17367  -0.0037969
-0.024585   -0.027833   -0.026533    0.023812    -0.30229     -0.1688   -0.013541
-0.023285   -0.034329   -0.028157   0.0017248    -0.28378    -0.16555   -0.028482
-0.028157   -0.043423   -0.028157    -0.03303    -0.27793    -0.16588   -0.042449
-0.034329   -0.050569   -0.028157   -0.080451    -0.25455    -0.16523   -0.050569
-0.036602   -0.051868   -0.028807    -0.13567    -0.19251    -0.16393   -0.052843
-0.034004   -0.049595   -0.032055    -0.19933   -0.090196    -0.15776   -0.051544
-0.029132   -0.043748   -0.036602    -0.27988    0.032906    -0.14444   -0.045697
-0.023285   -0.038551   -0.039526    -0.37862     0.15179    -0.12268   -0.036927
-0.021661   -0.034978     -0.0405    -0.48646     0.23851   -0.090196   -0.028482
-0.021986   -0.034978   -0.043423     -0.5891     0.27814   -0.054792   -0.021986
-0.024909   -0.035953   -0.045697    -0.67387     0.26774   -0.023285   -0.017439
-0.028157   -0.034004    -0.04862     -0.7187     0.21382 -0.00087364   -0.018088
-0.032705   -0.030106   -0.052193     -0.6703      0.1349    0.012119   -0.021337
-0.035303    -0.02426    -0.04992    -0.47542    0.059865    0.020564   -0.024909
-0.032055   -0.012892   -0.033354    -0.13469     0.01894    0.033556   -0.023935
-0.020362   0.0069217  -0.0011985     0.28008    0.023487    0.049147   -0.018088
-0.0041217    0.029333    0.040702     0.65491    0.061165    0.062789   -0.010618
0.014068    0.042975    0.080003     0.89462     0.10891    0.070909   -0.008669
0.027385      0.0433     0.10079     0.95374     0.14659    0.076431   -0.012892
0.033881    0.033231    0.095269     0.85402     0.16413    0.083251   -0.018088
0.034855    0.019914    0.067336     0.67148     0.16283    0.095269   -0.016464
0.033231   0.0091954    0.033556     0.48147     0.15406     0.11573  -0.0037969
0.029658   0.0036737   0.0072465     0.32491     0.15146     0.13944    0.016016
0.022837   0.0023744   -0.008669     0.21025     0.16413     0.15731    0.032906
0.016341   0.0062721   -0.016464     0.13684     0.20311     0.16315    0.043625
0.014717    0.013418   -0.018413    0.094295     0.26579     0.15341    0.048172
0.017316     0.01829   -0.018088    0.074482      0.3444     0.12937    0.047523
0.021538    0.019264   -0.018088     0.06831     0.43404     0.10112    0.043625
0.024786    0.017316   -0.018738    0.068635     0.52499    0.077405     0.03583
0.025436    0.014717   -0.017439    0.070259      0.5984    0.061814     0.02641
0.021863    0.014068   -0.016464    0.062789     0.63997    0.054344     0.01829
0.014068    0.016016   -0.016464    0.042326      0.6377    0.050446    0.012443
0.0062721     0.01764   -0.019388   0.0039985     0.59255    0.047198   0.0095202
-0.0018481     0.01764   -0.027833   -0.048945     0.51297    0.039727   0.0088706
-0.0067202    0.017965   -0.037252   -0.095717     0.42332     0.02641   0.0095202
-0.0076946    0.018615   -0.043099    -0.11618     0.35544    0.011469   0.0088706
-0.0060706    0.020564   -0.044398    -0.10806     0.33043  -0.0028225   0.0062721
-0.0050961    0.022837   -0.042774   -0.084024     0.34829   -0.011917      0.0014
-0.0060706    0.023162   -0.038227   -0.059989     0.39279   -0.018088  -0.0028225
-0.0093186    0.020239    -0.03173   -0.046347     0.44119   -0.022961  -0.0057458
-0.011592    0.015042    -0.02361   -0.050244     0.46815   -0.029132  -0.0044465
-0.010293   0.0088706    -0.01614   -0.067134     0.44996   -0.034329 -0.00054884
-0.0041217   0.0033489  -0.0089938   -0.085973     0.37623   -0.034654   0.0046481
0.0017248  -0.0018481  -0.0047713    -0.10449     0.25735   -0.034329   0.0072465
0.0010752  -0.0024977  -0.0018481     -0.1204     0.12223   -0.037252   0.0069217
-0.0021729 -0.00087364  -0.0024977    -0.13242  -0.0015233   -0.042449   0.0059473
-0.0099683   0.0026992   -0.010618    -0.14087    -0.10026    -0.04927   0.0043233
-0.019388   0.0059473   -0.025234    -0.14509    -0.17042   -0.058365   0.0026992
-0.028482   0.0072465   -0.040175    -0.14379    -0.21492   -0.070382   0.0033489
-0.03303   0.0075714   -0.047971    -0.13664     -0.2435   -0.082725   0.0043233
-0.03173   0.0056225    -0.04862    -0.12852    -0.26494   -0.089546   0.0059473
-0.025884   0.0017248   -0.045047      -0.123    -0.28735   -0.089546   0.0062721
-0.019712  -0.0031473   -0.040175    -0.12073    -0.32113   -0.084024   0.0059473
-0.01484  -0.0054209   -0.038876     -0.1204    -0.37018   -0.073306   0.0039985
-0.0093186  -0.0044465   -0.044398    -0.11943    -0.43319   -0.061937    0.003024
-0.0015233   0.0010752   -0.054467    -0.11326    -0.51537   -0.052843   0.0020496
0.0046481   0.0062721   -0.067784   -0.097017    -0.60891   -0.051219      0.0014
0.0085458   0.0072465   -0.077528   -0.071682    -0.69986   -0.058689   0.0020496
0.0095202   0.0017248   -0.073955   -0.044398    -0.75703   -0.073631   0.0043233
0.01017  -0.0050961   -0.053492   -0.021986    -0.74533    -0.09182   0.0065969
0.009845   -0.011267   -0.023285  -0.0099683    -0.64204    -0.10514    0.003024
0.0059473   -0.012892   0.0072465   -0.010618    -0.45203    -0.10709  -0.0047713
-0.00054884   -0.010618    0.027385   -0.019063     -0.2146   -0.097666   -0.012242
-0.0063954  -0.0089938    0.032906   -0.031081    0.012119     -0.0824   -0.014191
-0.0083442  -0.0067202     0.02641   -0.039851     0.17615   -0.066485   -0.010943
-0.0063954  -0.0034721    0.015367   -0.040175     0.25702   -0.054467  -0.0050961
0.00075039 -0.00022403   0.0039985   -0.033679     0.26352   -0.045372    0.003024
0.010495   0.0010752  -0.0073698    -0.03303     0.22357   -0.038227    0.013418
0.016991  -0.0015233   -0.019063   -0.043423     0.16933   -0.030431    0.021863
0.021213  -0.0099683   -0.030106   -0.061288     0.12353   -0.021012     0.02706
0.020888   -0.021012   -0.040825   -0.076554    0.096244  -0.0096434    0.024461
0.016016   -0.029782   -0.046996   -0.080776    0.079354   0.0023744    0.012119
0.0088706    -0.03173   -0.046022   -0.072331    0.066362   0.0091954  -0.0041217
-0.00022403   -0.029132   -0.038551   -0.051868     0.05142   0.0052977    -0.01549
-0.011267   -0.022311   -0.021986    -0.02426    0.034206  -0.0093186    -0.01484
-0.023285   -0.010618  0.00010078   0.0020496    0.020564   -0.029457  -0.0057458
-0.029132  0.00010078    0.022837    0.014392   0.0085458   -0.044073    0.008221
-0.025559   0.0046481    0.038428    0.010495  -0.0067202   -0.046996    0.019264
-0.01549   0.0023744    0.047523  -0.0031473   -0.028482    -0.04115    0.021863
-0.0044465  -0.0057458     0.05142   -0.014191   -0.062587    -0.03303    0.016991
0.0014    -0.01549    0.053369   -0.011592    -0.11163   -0.028482    0.011469
0.0023744   -0.022636    0.051096    0.008221    -0.16847   -0.026858   0.0091954
0.003024   -0.022311    0.041027    0.038753    -0.22077   -0.027508   0.0078962
0.0085458    -0.01614    0.029333    0.065712    -0.26527   -0.029132   0.0075714
0.015042   -0.008669    0.016341    0.080003    -0.30522   -0.032055   0.0088706
0.019589  -0.0024977    0.003024     0.07708    -0.33965   -0.034329    0.011469
0.019914   0.0017248  -0.0089938    0.054019    -0.35686   -0.034654   0.0095202
0.017965   0.0046481   -0.019388    0.016991    -0.34387   -0.034654   0.0017248
0.016991   0.0052977   -0.028807   -0.021012    -0.29905   -0.037577  -0.0073698
0.021863   0.0049729   -0.033679   -0.048945    -0.23116   -0.040825   -0.013541
0.027385   0.0065969   -0.034004   -0.056091     -0.1636   -0.043748   -0.013866
0.027709     0.01017    -0.03173   -0.043423    -0.11521   -0.045047   -0.012567
0.024461    0.012119   -0.026209   -0.017114   -0.094418   -0.044723   -0.014516
0.021538    0.014068   -0.013216    0.014392   -0.094418   -0.043423   -0.019388
0.022512     0.01894   0.0023744    0.038103    -0.09994   -0.041475   -0.021337
0.023487    0.025111    0.012119    0.047198    -0.10091   -0.036602   -0.016789
0.021213    0.027709    0.012443    0.041351    -0.09117   -0.028482  -0.0018481
0.014717    0.023162   0.0052977    0.024786   -0.068758   -0.016789     0.01829
0.0056225    0.012119  -0.0063954   0.0062721    -0.03238  -0.0021729    0.036804
-0.0021729   0.0023744   -0.017114  -0.0080194    0.021538    0.013093    0.050121
-0.0054209  -0.0044465   -0.024909   -0.013866    0.095269    0.024786    0.054668
-0.0063954  -0.0099683   -0.028157   -0.015165     0.18102    0.032906    0.047198
-0.0060706    -0.01614   -0.024585   -0.011592     0.25995    0.041676    0.028359
-0.0044465   -0.022636   -0.013866  -0.0024977     0.31192     0.05272   0.0088706
-0.0011985   -0.023285      0.0014   0.0078962     0.33465    0.061165  -0.0054209
0.0065969   -0.017439    0.011794    0.016341      0.3327    0.063113  -0.0083442
0.016016  -0.0083442     0.01829    0.019914     0.31711    0.059865  -0.0028225
0.025436 -0.00087364    0.019264    0.022837     0.29145    0.054344 -0.00054884
0.029658   0.0026992    0.017316    0.024786     0.25767    0.047847  -0.0041217
0.024137   0.0049729    0.011144    0.026085     0.21935    0.040052   -0.010618
0.011144   0.0062721   0.0017248    0.026085     0.17874    0.034206   -0.013866
-0.0028225   0.0085458  -0.0093186    0.028359     0.13847    0.028684   -0.015165
-0.014191    0.011469   -0.014516    0.035505     0.10501    0.023487   -0.019712
-0.022311    0.010819   -0.012242    0.044275    0.076106    0.017965   -0.028482
-0.027183    0.008221   -0.007045    0.052395    0.042975    0.016341   -0.035303
-0.032705   0.0069217  -0.0067202    0.056292  -0.0024977    0.019589   -0.036602
-0.035628   0.0046481   -0.010618    0.055318    -0.06616    0.026735   -0.032055
-0.035628   0.0020496   -0.013541    0.054993    -0.14671    0.033231    -0.02361
-0.030756 -0.00087364   -0.012242    0.055643    -0.23993    0.035505   -0.016464
-0.02361      0.0014  -0.0076946    0.054993    -0.33478    0.032257   -0.010293
-0.017439   0.0069217 -0.00087364    0.055643    -0.42442    0.024137  -0.0047713
-0.015815    0.014717   0.0069217    0.058241    -0.50887    0.016666  -0.0021729
-0.017764     0.01829    0.014068    0.060515    -0.60177    0.013093  -0.0028225
-0.021661    0.013093    0.014717    0.044599    -0.70895    0.014068  -0.0089938
-0.024585 -0.00022403   0.0059473  -0.0067202    -0.82101    0.013418   -0.016789
-0.030431   -0.015815   -0.010618   -0.094743    -0.91488   0.0059473   -0.024585
-0.04115   -0.027508   -0.033354    -0.19836    -0.95841  -0.0054209   -0.032705
-0.055766   -0.034329   -0.055766    -0.29742    -0.92722   -0.019712   -0.036602
-0.068434   -0.037252   -0.071357    -0.37927    -0.81939   -0.034654   -0.036927
-0.07428   -0.036927   -0.076879    -0.42117    -0.65276   -0.048296   -0.034654
-0.075255   -0.034978   -0.071682    -0.37245    -0.45041   -0.058689   -0.034978
-0.074605   -0.029132   -0.059664    -0.19771    -0.23409   -0.064861   -0.036278
-0.072006   -0.021012   -0.043423    0.066362   -0.019388   -0.062912   -0.034004
-0.071357   -0.011917   -0.021986     0.31776     0.17452   -0.055766   -0.024909
-0.06681 -0.00054884   0.0036737     0.46263     0.32783   -0.044073   -0.013866
-0.056416    0.012119    0.030957      0.4714     0.42105   -0.033354  -0.0041217
-0.038876    0.019914    0.050771      0.3811     0.44834   -0.022961   0.0010752
-0.016464    0.016991    0.055643     0.26157      0.4217   -0.018088 -0.00054884
0.003024   0.0039985    0.040052      0.1716     0.36031   -0.022636  -0.0096434
0.015692   -0.010943    0.010819     0.13847     0.28853   -0.036602   -0.020687
0.01764   -0.021661   -0.017439     0.15958     0.22259   -0.054142   -0.031406
0.0095202   -0.024909    -0.03238     0.21155     0.17452   -0.068758   -0.038227
-0.0024977   -0.019063   -0.030756     0.26092     0.14561   -0.073955   -0.036927
-0.010293  -0.0063954   -0.018088     0.28268      0.1362   -0.071357   -0.025884
-0.0057458    0.011794  -0.0044465     0.27586     0.13684   -0.062912  -0.0080194
0.011144    0.032906   0.0043233     0.24501     0.13457   -0.051544    0.012768
0.036154    0.053369   0.0036737     0.19628     0.12158   -0.038551    0.029658
0.060515    0.064088  -0.0034721     0.13847    0.097218   -0.024585     0.04395
0.074806    0.062139    -0.01614    0.079679    0.067336  -0.0047713    0.055968
0.077405    0.046548   -0.030756    0.018615    0.038428    0.020888    0.065387
0.06831    0.025111   -0.044398   -0.038551    0.021213    0.046873    0.073507
0.050446    0.010819   -0.052193   -0.083375    0.022188    0.066686    0.079679
0.031932   0.0052977   -0.047971    -0.10481    0.040702    0.076106    0.085525
0.016341   0.0043233   -0.029782   -0.098316    0.072533    0.074482    0.087799
0.0069217   0.0046481  -0.0080194   -0.071357     0.10761    0.065062    0.082927
0.0023744   0.0017248   0.0017248   -0.043423     0.13814    0.054019    0.067011
0.0033489  -0.0018481  -0.0083442   -0.034654     0.15926    0.047523    0.048497
0.012443 -0.00022403   -0.031406   -0.050894     0.17387    0.044275    0.036479
0.023487    0.008221   -0.052843   -0.075904     0.17842    0.040702    0.032582
0.028359    0.019914   -0.059989   -0.086298     0.16705    0.030633    0.029333
0.027385    0.029333   -0.051868   -0.072981     0.14107    0.014068    0.021538
0.020564    0.031282   -0.031081   -0.032705     0.10599  -0.0063954   0.0088706
0.012443    0.026085  -0.0054209    0.021538    0.065387   -0.023935  -0.0063954
0.0023744    0.016016    0.017316     0.06831    0.029009   -0.037252   -0.019712
-0.0060706   0.0059473     0.03518    0.092346   0.0052977   -0.040825   -0.029132
-0.013866  -0.0041217     0.04395    0.089748   0.0033489   -0.039201   -0.033354
-0.020037   -0.011267    0.044924    0.071558    0.029333   -0.032055    -0.03173
-0.022961   -0.014516    0.042001    0.045574    0.080328   -0.022636   -0.024585
-0.021986   -0.014516    0.038103    0.021863     0.14496  -0.0073698   -0.013216
-0.022636   -0.010943    0.034206  0.00075039      0.2096     0.01017  -0.0028225
-0.024585  -0.0034721    0.033231   -0.015815     0.26384    0.023487  0.00042559
-0.027508   0.0088706     0.03453   -0.027833     0.29795    0.026085  -0.0041217
-0.03173     0.01829    0.041027   -0.033679     0.30932    0.019264    -0.01549
-0.038876    0.020888    0.048172   -0.034654     0.30185     0.01017   -0.027183
-0.046022    0.017965    0.053369   -0.033679     0.28333   0.0049729   -0.036927
-0.04862    0.011794     0.05272   -0.034978     0.26579   0.0020496   -0.042774
-0.046996   0.0062721    0.041676   -0.043748     0.25637   -0.010293   -0.043423
-0.043099  0.00075039    0.023812   -0.059989      0.2515    -0.03173   -0.037902
-0.039526  -0.0041217   0.0036737   -0.076229     0.24501   -0.051219    -0.03238
-0.039851   -0.011267   -0.011267   -0.089221     0.23266   -0.058365   -0.028807
-0.045047    -0.01484   -0.019712   -0.094093     0.21025   -0.051219   -0.028482
-0.055116   -0.013541   -0.020687   -0.088247     0.17225   -0.037252    -0.03238
-0.064861  -0.0093186    -0.01614   -0.073955     0.12645   -0.027833   -0.037252
-0.06616  -0.0076946  -0.0080194   -0.062912    0.079679   -0.025559   -0.039526
-0.055116  -0.0073698  0.00010078   -0.060313    0.039078   -0.024909   -0.039201
-0.037902  -0.0050961   0.0036737   -0.069083   0.0065969   -0.021661   -0.036927
-0.022311  -0.0018481   0.0010752   -0.084999   -0.020687   -0.012242   -0.035953
-0.012567  -0.0011985  -0.0037969   -0.098316   -0.044398 -0.00022403   -0.034329
-0.0034721  -0.0018481  -0.0047713    -0.10481   -0.066485   0.0069217   -0.029782
0.0072465  -0.0018481 -0.00054884    -0.10156   -0.095393    0.003024   -0.023285
0.017316  -0.0018481   0.0052977   -0.092145    -0.14704   -0.011592   -0.018413
0.024461  -0.0021729   0.0088706   -0.085324    -0.23409    -0.03303   -0.017439
0.024461  -0.0047713   0.0056225    -0.08305    -0.34095   -0.056416   -0.023285
0.019589   -0.008669  -0.0037969   -0.082725    -0.43222   -0.079477   -0.036927
0.012443   -0.012242  -0.0099683   -0.076554    -0.46697   -0.096042   -0.053492
0.0056225   -0.013216  -0.0050961   -0.057715    -0.43092    -0.10254   -0.063237
-0.00087364  -0.0096434   0.0062721   -0.025559    -0.34549   -0.096042   -0.061288
-0.0044465  -0.0044465     0.01829    0.011144    -0.25227   -0.084024   -0.047646
-0.0044465 -0.00087364     0.02706    0.042001    -0.17887   -0.073631   -0.030431
-0.0024977 -0.00087364    0.027385    0.055968     -0.1217   -0.068434   -0.016789
-0.00087364  -0.0015233    0.023162    0.048822   -0.067134    -0.06616  -0.0096434
-0.0011985  -0.0018481     0.01764    0.031607  -0.0089938   -0.064861  -0.0041217
0.00010078 -0.00054884   0.0085458    0.015367    0.046873   -0.059339  0.00075039
0.0052977   0.0046481  -0.0057458 -0.00022403    0.092346    -0.04862   0.0052977
0.012119    0.015042   -0.020687   -0.022311     0.11573   -0.034329   0.0085458
0.01764    0.028034   -0.034329   -0.056416     0.10761   -0.020687   0.0095202
0.019589     0.03583   -0.047646   -0.096042    0.058891   -0.011267    0.003024
0.01829    0.034206    -0.05804    -0.12235   -0.042449  -0.0076946   -0.011267
0.015367    0.026735   -0.061937    -0.10968    -0.18114   -0.011917   -0.027183
0.016991    0.020564   -0.056741   -0.047646    -0.31789   -0.018413   -0.034329
0.022512    0.020564   -0.045047    0.045574    -0.41305   -0.019388    -0.03173
0.029658    0.022512   -0.030106     0.13165    -0.44586   -0.012892   -0.024585
0.034206    0.024786   -0.014516      0.1781    -0.41793   0.0036737   -0.015165
0.03453    0.025111 -0.00022403     0.17939    -0.35004    0.021863  -0.0054209
0.029983    0.023162    0.011144     0.14626    -0.26299     0.03453   0.0043233
0.024786     0.01894    0.013093    0.096893    -0.17692    0.040702   0.0095202
0.019589    0.009845   0.0056225    0.052395    -0.10579    0.039078   0.0069217
0.014392 -0.00087364  -0.0076946    0.022512   -0.053168    0.028034  -0.0021729
0.0043233   -0.011267   -0.020037   0.0059473    -0.01614   0.0085458   -0.012242
-0.010943   -0.016464   -0.030756  -0.0067202    0.013743   -0.017114   -0.020687
-0.024585   -0.016464   -0.039526   -0.032055      0.0433   -0.039851   -0.023935
-0.033679   -0.014191   -0.044723   -0.077203    0.079679   -0.054792   -0.022636
-0.036278   -0.013541   -0.047646    -0.12755     0.12288   -0.062262   -0.015165
-0.037577   -0.017764   -0.047971    -0.15905      0.1677   -0.064536  -0.0054209
-0.036602   -0.023285    -0.04927    -0.15613     0.20505   -0.061288   0.0039985
-0.034978   -0.024909    -0.04862    -0.12203     0.22487   -0.052518    0.009845
-0.035628   -0.023285   -0.049595   -0.075255     0.22032   -0.041799    0.012768
-0.034978   -0.022311    -0.04862   -0.021337     0.18979   -0.034329    0.013418
-0.031081   -0.020362   -0.038227    0.047847     0.14367   -0.031081    0.013093
-0.022961   -0.016464   -0.013866      0.1245     0.10371   -0.026533    0.014392
-0.0099683  -0.0063954    0.022188     0.18849    0.089423    -0.01614     0.01764
0.0088706   0.0069217    0.060515      0.2174     0.10144  -0.0073698    0.024461
0.027385    0.020564    0.086175      0.2044     0.12807  -0.0037969    0.033881
0.039402    0.030308    0.094295     0.16348     0.15536  -0.0067202    0.040377
0.0433    0.035505    0.084876     0.11378     0.17517   -0.010618    0.039078
0.039727    0.035505    0.065712     0.06896     0.18816   -0.015815    0.030308
0.032257    0.031607    0.044599     0.03518     0.19531   -0.018413    0.020888
0.020564    0.022188    0.020888    0.012119     0.19141   -0.018738    0.016341
0.0095202    0.011144  -0.0028225  -0.0076946     0.17485   -0.016464    0.017316
0.0010752      0.0014    -0.02426   -0.030756     0.14561   -0.011592    0.021863
-0.0041217  -0.0089938   -0.044073   -0.061613     0.10794  -0.0037969     0.02641
-0.0073698   -0.019388   -0.058689   -0.096367    0.071883   0.0043233    0.030308
-0.008669   -0.028807    -0.06616     -0.1269    0.042001    0.011144    0.034206
-0.0047713   -0.035303   -0.070707    -0.14639    0.016016    0.013418    0.036804
0.003024   -0.038227   -0.076229    -0.15548   -0.010943    0.011469    0.038753
0.011144   -0.036602     -0.0824     -0.1623   -0.047321   0.0039985    0.038753
0.013418    -0.03238   -0.088572    -0.17919   -0.092145  -0.0011985    0.036154
0.012119   -0.028482   -0.091495    -0.20193    -0.14314  -0.0037969    0.034206
0.01017   -0.023935   -0.084024    -0.21362    -0.19771  -0.0018481    0.034206
0.011794   -0.018738   -0.066485    -0.19219     -0.2552    0.003024    0.039402
0.012768   -0.013541   -0.039526    -0.12657    -0.30944    0.010819    0.048172
0.010819  -0.0089938  -0.0099683    -0.02426    -0.35102    0.020239    0.057267
0.0043233  -0.0083442    0.013093    0.087474    -0.37603    0.028684    0.061165
-0.0034721   -0.012892    0.026085     0.17712    -0.37733    0.033231     0.06019
-0.0083442   -0.018738    0.026735     0.21805    -0.35232    0.031932    0.055643
-0.0063954   -0.023285    0.021538     0.20733    -0.30327    0.023812    0.044599
-0.0031473   -0.025559    0.015042     0.15828    -0.23701    0.014717    0.029333
-0.0034721   -0.029782   0.0088706    0.090722      -0.161      0.0014    0.015042
-0.0093186   -0.036278  0.00075039    0.026735   -0.080127   -0.013541   0.0017248
-0.016464   -0.039526   -0.012242   -0.022961  -0.0060706   -0.026209  -0.0080194
-0.023935   -0.038551   -0.027183   -0.054792    0.053369   -0.030756   -0.013541
-0.031081   -0.033679   -0.035628   -0.070707    0.095269   -0.030431   -0.017439
-0.033354   -0.028157    -0.03303   -0.066485     0.11898   -0.031081   -0.021986
-0.028807    -0.02361   -0.019712   -0.042124     0.12645   -0.034978   -0.024909
-0.018413   -0.019712  -0.0021729  -0.0047713     0.12678   -0.037577   -0.022961
-0.0041217   -0.011592     0.01764    0.035505     0.12807   -0.034004   -0.015815
0.0091954 -0.00087364     0.03583    0.067986     0.13197   -0.025234  -0.0083442
0.01764   0.0065969    0.046223    0.082602     0.14139   -0.017114  -0.0034721
0.01894   0.0085458    0.046223    0.079354     0.15536   -0.013541  -0.0018481
0.014068   0.0088706    0.039402    0.061165     0.16933   -0.017764  -0.0021729
0.0052977   0.0085458    0.030957    0.037778     0.17127   -0.027183 -0.00054884
-0.0054209   0.0075714    0.023812    0.016341     0.14626   -0.035953   0.0010752
-0.013541    0.008221    0.012443   0.0033489    0.090397   -0.039851  0.00075039
-0.017114    0.013093  -0.0037969  -0.0044465     0.01829   -0.036602  -0.0050961
-0.01549    0.017965   -0.020037  -0.0083442   -0.052518   -0.029782   -0.013541
-0.010293    0.021213    -0.03173   -0.011592    -0.10384   -0.025234   -0.026209
-0.0057458    0.022512   -0.038876   -0.014191     -0.1295   -0.027508    -0.04115
-0.0024977    0.022512     -0.0405   -0.014516    -0.12527   -0.033679   -0.052843
0.00010078    0.019589   -0.034329   -0.010943   -0.097017   -0.036602   -0.057715
0.00075039    0.017965   -0.021337  -0.0076946   -0.055116   -0.034004   -0.055766
-0.0015233     0.01764   -0.007045  -0.0050961   -0.014516   -0.026858   -0.052843
-0.0047713    0.016341   0.0017248  -0.0031473    0.015367   -0.019063   -0.050244
-0.0089938    0.013743   0.0043233  -0.0041217    0.033231   -0.011592   -0.043099
-0.013541    0.012443   0.0072465  -0.0083442    0.040702  -0.0067202    -0.03173
-0.013541    0.012119    0.012119   -0.010943    0.044924  -0.0047713   -0.015165
-0.0073698    0.010495    0.012443  -0.0067202    0.049147  -0.0047713      0.0014
-0.0015233   0.0062721   0.0059473    0.003024     0.05272  -0.0034721    0.013418
0.00010078 -0.00054884  -0.0047713    0.012768    0.057917  -0.0018481    0.017965
-0.0047713  -0.0037969   -0.011917     0.01894    0.066686  -0.0018481    0.016991
-0.014516  -0.0028225   -0.013541     0.02641    0.074806  -0.0031473    0.012443
-0.021337   0.0020496   -0.010943    0.037129    0.077405  -0.0031473   0.0075714
-0.021986   0.0075714  -0.0073698    0.050121    0.071558  -0.0028225   0.0043233
-0.014191    0.011144  -0.0060706    0.057592    0.059541  -0.0018481 -0.00054884
0.00075039    0.010819  -0.0076946    0.057267    0.047198  -0.0031473  -0.0031473
0.016666   0.0052977  -0.0096434     0.05142     0.03518  -0.0060706  -0.0054209
0.025436  -0.0028225   -0.010618    0.041351    0.026085   -0.010293  -0.0067202
0.022188   -0.012567   -0.010293    0.028034     0.01764   -0.010943   -0.007045
0.0072465   -0.022961   -0.012567    0.013418   0.0088706   -0.010293  -0.0089938
-0.013866    -0.03303   -0.018738  0.00010078  -0.0031473   -0.010618   -0.010293
-0.034329   -0.042449   -0.027183  -0.0057458   -0.021012    -0.01484   -0.011592
-0.050569    -0.04992   -0.035303  -0.0031473   -0.041799    -0.02361   -0.013866
-0.053168   -0.052518   -0.037902   0.0033489   -0.063237   -0.035953   -0.016789
-0.040825   -0.047971   -0.034654    0.011469   -0.080776   -0.045372   -0.019712
-0.020687   -0.038227    -0.02426     0.01894   -0.086623   -0.045697   -0.021012
-0.0018481   -0.025884  -0.0083442    0.025436     -0.0837   -0.033354   -0.017764
0.0075714   -0.012567    0.010495    0.033881   -0.078503   -0.012242  -0.0099683
0.0072465      0.0014    0.028359     0.04395   -0.079152   0.0075714  -0.0018481
0.00010078    0.014068    0.038103    0.053694   -0.085648    0.014392   0.0020496
-0.011592    0.022512    0.038428     0.06019   -0.091495   0.0085458      0.0014
-0.020687    0.027385    0.033556    0.055968   -0.093119 -0.00087364  -0.0021729
-0.024585    0.029009    0.028034    0.041676   -0.089221  -0.0067202  -0.0076946
-0.023935    0.030308    0.024137    0.021538    -0.08305  -0.0057458   -0.010293
-0.020362    0.031282    0.023487   0.0036737   -0.075255  -0.0028225  -0.0089938
-0.010943    0.033881    0.022188  -0.0093186   -0.057065  0.00075039 -0.00054884
0.0036737     0.03453    0.017965   -0.017439   -0.021012  0.00075039    0.010819
0.016991     0.03453    0.013418   -0.016789     0.03518  -0.0011985    0.021213
0.020888    0.032582   0.0085458   -0.012892     0.10079  -0.0034721    0.026085
0.011794    0.028034   0.0049729  -0.0093186     0.16413  -0.0028225    0.024137
-0.0011985    0.022188  0.00075039   -0.011917     0.21155   0.0010752     0.01894
-0.011267    0.014392  -0.0041217   -0.020687     0.23071   0.0036737    0.012119
-0.014191   0.0049729   -0.010618   -0.028807     0.21317    0.003024   0.0059473
-0.011592  -0.0037969   -0.016464   -0.028482     0.15763 -0.00087364   0.0023744
-0.0063954  -0.0093186   -0.020687   -0.020362    0.070584   -0.011592   0.0046481
-0.00087364  -0.0099683   -0.026858    -0.01484    -0.03173   -0.029457   0.0095202
0.00010078  -0.0050961   -0.039201    -0.02426    -0.12398   -0.050569    0.012443
-0.0024977  0.00042559   -0.055766   -0.047971    -0.18212   -0.064861   0.0085458
-0.0080194   0.0072465    -0.06681   -0.072981    -0.19771    -0.06681      0.0014
-0.01614    0.014392   -0.068758   -0.085648    -0.18894   -0.059014  -0.0031473
-0.023285    0.022512   -0.060638   -0.081426    -0.18342    -0.04992  -0.0015233
-0.032055    0.030957   -0.045047   -0.060313    -0.19608   -0.045372   0.0039985
-0.042124    0.036479    -0.02426   -0.025884    -0.22207   -0.046347   0.0078962
-0.050569    0.039078  -0.0054209   0.0095202    -0.25195    -0.04992   0.0049729
-0.054142    0.037129   0.0078962    0.034855    -0.27371   -0.053168  -0.0044465
-0.050244    0.032257    0.016016    0.044599    -0.28183   -0.055441   -0.015165
-0.038227    0.026735    0.020564    0.039402    -0.28216   -0.053492   -0.019063
-0.022961    0.020888    0.019589    0.029983    -0.28281   -0.042124   -0.019388
-0.0080194     0.01829    0.013418    0.021538    -0.29353   -0.020362    -0.01614
0.0010752    0.017965   0.0020496    0.017316    -0.31431    0.008221   -0.012567
0.0046481     0.01829  -0.0063954    0.014068    -0.33965    0.032257  -0.0099683
0.0046481    0.014717  -0.0067202    0.012768    -0.36498    0.045574   -0.010293
0.0059473   0.0062721  -0.0018481     0.01017    -0.38837    0.048172   -0.010293
0.0049729  -0.0034721   0.0026992   0.0046481    -0.40591    0.042001   -0.010943
-0.00054884   -0.010943   0.0056225  -0.0041217    -0.41403    0.031607   -0.011917
-0.0073698   -0.014191   0.0056225  -0.0099683    -0.41111    0.020888   -0.016464
-0.010943   -0.013541    0.003024  -0.0076946    -0.39519    0.016341   -0.024909
-0.011267   -0.013541  -0.0031473 -0.00054884    -0.36498    0.019589   -0.035628
-0.010943   -0.017439  -0.0089938   0.0075714    -0.31918    0.026085   -0.044073
-0.0073698   -0.023285   -0.010293    0.013418    -0.25617    0.034206   -0.046996
-0.0018481   -0.027508  -0.0076946    0.017965    -0.18049    0.040052   -0.043748
0.0059473   -0.029132  -0.0028225    0.021538    -0.10221    0.043625   -0.037252
0.012768   -0.024909   0.0043233    0.020564   -0.032705     0.04395   -0.031081
0.019914   -0.017114   0.0078962    0.017316    0.021213    0.047198   -0.024909
0.025111   -0.010618   0.0059473    0.013418    0.064088    0.062139    -0.01614
0.032906  -0.0054209  -0.0031473    0.012443     0.10826      0.0865  -0.0044465
0.041351  -0.0044465    -0.01549    0.012768     0.16673     0.11151   0.0075714
0.046223  -0.0073698    -0.02426    0.011144     0.23526     0.12515    0.014717
0.047523    -0.01484   -0.026209   0.0078962     0.30055     0.12125    0.015367
0.045249   -0.021337   -0.023285   0.0036737     0.35284     0.10047    0.010819
0.040377   -0.024585   -0.020687  -0.0041217     0.38402    0.067336   0.0039985
0.03518   -0.023285   -0.020037    -0.01549      0.3876    0.028684  -0.0024977
0.031607   -0.017764   -0.018738   -0.025559     0.35901   -0.008669  -0.0031473
0.028684  -0.0067202    -0.01614   -0.030106     0.29697   -0.035953  -0.0044465
0.023162   0.0026992   -0.012567   -0.024909     0.20928   -0.050569  -0.0083442
0.01764   0.0026992  -0.0073698   -0.013216     0.11281   -0.060963   -0.015815
0.012768  -0.0054209  -0.0018481  0.00010078     0.02641   -0.072656   -0.019388
0.011794   -0.013216 -0.00054884   0.0075714   -0.035953   -0.085648   -0.017114
0.012119   -0.016464  -0.0073698   0.0075714   -0.069733    -0.10059   -0.012567
0.013743   -0.015815   -0.019388   0.0039985   -0.074605    -0.11196  -0.0076946
0.016016   -0.011267   -0.026858   0.0020496   -0.054792    -0.11683 -0.00022403
0.020888  -0.0060706   -0.024909   0.0043233   -0.020687    -0.11456   0.0085458
0.025761  -0.0031473   -0.017114   0.0091954    0.017316    -0.10546    0.016016
0.026085  -0.0050961  -0.0099683    0.003024     0.05142   -0.092469    0.020564
0.01894   -0.010943  -0.0083442   -0.027508    0.073832   -0.080776    0.020239
0.0065969   -0.018088   -0.016789   -0.090521    0.081952   -0.072331    0.015042
-0.0063954   -0.023285    -0.03238    -0.18374    0.080653   -0.067134   0.0046481
-0.012567   -0.024585   -0.048296    -0.29417    0.076755   -0.069083   -0.007045
-0.013541   -0.025559   -0.059664    -0.39649    0.077405   -0.075579   -0.012567
-0.016464   -0.030756   -0.067784    -0.48094    0.079354   -0.083375   -0.010293
-0.027508   -0.042124   -0.080776    -0.54785    0.076106   -0.091495  -0.0041217
-0.040825   -0.051544   -0.097666    -0.56896    0.073832   -0.097666   0.0043233
-0.04992   -0.045372    -0.10481    -0.48906    0.092021   -0.098316    0.013743
-0.050569   -0.022636   -0.087597    -0.27826     0.14074   -0.088247    0.023487
-0.042449   0.0072465   -0.043748    0.029333      0.2096   -0.073306    0.029333
-0.028157    0.036154    0.019589     0.34797     0.27326   -0.054142     0.02641
-0.010618    0.058891      0.0852     0.58248     0.31094   -0.040175    0.017965
0.0075714    0.075131     0.13652      0.6809     0.32198   -0.037577    0.009845
0.01894    0.084226     0.16445     0.65361     0.31646   -0.047646   0.0020496
0.022188    0.088448     0.16673     0.54935     0.30412   -0.063886  -0.0083442
0.019914    0.083901     0.15244     0.43502     0.28918   -0.078503   -0.021661
0.014717    0.073507     0.12678     0.35869     0.26904   -0.085648   -0.034654
0.0046481    0.058891    0.097218     0.34147     0.24208     -0.0824   -0.042774
-0.0063954    0.045574    0.067986     0.37103     0.20798   -0.070707   -0.043423
-0.014191    0.030957    0.040052     0.40806     0.16835   -0.055116   -0.031406
-0.012567    0.015042    0.009845     0.40091     0.13132   -0.036278  -0.0076946
-0.0037969  -0.0011985   -0.027183     0.32328     0.10404   -0.014191    0.020888
0.0085458   -0.010943   -0.064861     0.19044     0.10144    0.011469    0.044275
0.020888    -0.01484   -0.092469     0.05142     0.12678     0.03583    0.055643
0.028684   -0.017114    -0.10286   -0.044723     0.16965    0.053369     0.05272
0.032257   -0.017439   -0.096692   -0.066485      0.2122    0.061814    0.039727
0.030308    -0.01549   -0.081101   -0.020037     0.23754     0.06084    0.026735
0.023812   -0.013541   -0.061613    0.055968     0.23916    0.054344    0.020239
0.016991   -0.010943   -0.042124     0.11768      0.2174    0.045249    0.019589
0.012768  -0.0083442   -0.026533     0.14009     0.18004    0.032257    0.019914
0.011469  -0.0031473   -0.015815     0.12807     0.13814    0.013418    0.020564
0.010819   0.0062721  -0.0089938    0.099167    0.099492  -0.0093186    0.021538
0.0052977    0.016016  -0.0057458    0.070909    0.068635   -0.032705    0.021863
-0.0031473    0.020888  -0.0041217     0.05142    0.049472   -0.050244    0.016666
-0.011917    0.021213  -0.0015233    0.039402    0.041676   -0.061613   0.0059473
-0.017764    0.019589    0.003024    0.030633    0.036804   -0.064861  -0.0073698
-0.024909    0.017316    0.008221    0.020239     0.02641   -0.061613    -0.01614
-0.034329    0.015042    0.013418   0.0046481    0.003024   -0.057065   -0.017764
-0.043423    0.011794     0.01829   -0.016789   -0.044723   -0.053168   -0.018088
-0.047646   0.0075714    0.021213   -0.045372    -0.12235   -0.050244   -0.019063
-0.046347   0.0052977    0.025111   -0.078178    -0.22434   -0.050569   -0.023285
-0.040175   0.0043233    0.030308    -0.11066    -0.33348   -0.056091   -0.030106
-0.033354   0.0059473    0.029333    -0.13762    -0.43547   -0.064536   -0.036278
-0.03173   0.0072465    0.016991    -0.15841    -0.53031   -0.072656   -0.039851
-0.033354   0.0072465  -0.0041217    -0.17692    -0.62808   -0.081101   -0.039851
-0.032705   0.0052977   -0.030431    -0.19641    -0.73884   -0.088896   -0.039526
-0.029132   0.0026992   -0.054467    -0.21102    -0.86324   -0.096042   -0.038876
-0.030106 -0.00022403   -0.071682    -0.21752    -0.98439   -0.098641     -0.0405
-0.037902  -0.0011985   -0.078503     -0.2159     -1.0877   -0.095393   -0.042124
-0.047321 -0.00087364   -0.077203    -0.21135     -1.1575   -0.086948   -0.040175
-0.055766  -0.0015233   -0.069408    -0.20713     -1.1679   -0.077853   -0.036602
-0.058689  -0.0021729   -0.059664    -0.20518     -1.0935   -0.070382   -0.032055
-0.056741  -0.0028225   -0.050894    -0.19868    -0.93177   -0.063561   -0.027508
-0.049595  -0.0044465   -0.046996    -0.18407    -0.70765   -0.057715    -0.02426
-0.041799   -0.008669    -0.04927     -0.1636    -0.46178   -0.049595   -0.020037
-0.033679   -0.013866   -0.054142    -0.13599    -0.23019   -0.035953   -0.013216
-0.024909    -0.01614   -0.051219   -0.093444   -0.038551   -0.017439  -0.0073698
-0.014516   -0.013541    -0.03303   -0.034329     0.10664   0.0033489  -0.0037969
-0.0021729  -0.0054209  0.00075039    0.030633     0.20765    0.026085  -0.0057458
0.011469   0.0065969    0.046548    0.082277     0.26839    0.045249  -0.0093186
0.019264     0.01764     0.08585     0.10566     0.29568    0.061489  -0.0096434
0.022837    0.021538     0.10501    0.095269     0.30639    0.074157  -0.0060706
0.018615    0.020239    0.096893    0.058241     0.30997    0.083901  -0.0018481
0.0095202     0.01764    0.072208   0.0052977     0.31322    0.091372  -0.0044465
-0.0015233    0.014717    0.042975   -0.052193     0.31809    0.098193  -0.0099683
-0.011267    0.010495     0.01764   -0.098316     0.32426     0.10436   -0.011592
-0.019712   0.0069217   0.0010752      -0.123     0.32946     0.10534   -0.010618
-0.022636   0.0020496   -0.012892    -0.12657     0.33011     0.10047   -0.008669
-0.019063 -0.00087364   -0.027183    -0.12008     0.33011    0.091372  -0.0034721
-0.015165  -0.0024977   -0.036927    -0.11456     0.33368    0.081952   0.0026992
-0.013541  -0.0047713   -0.036602    -0.11326     0.34505    0.074806   0.0075714
-0.018413   -0.010293   -0.028482    -0.11163     0.36291    0.071883    0.009845
-0.030106   -0.018088   -0.016789    -0.10351     0.38175    0.072208    0.008221
-0.0405   -0.025234   -0.010293   -0.089546     0.40189    0.074806   0.0072465
-0.044073   -0.028482  -0.0099683   -0.080451      0.4165    0.078379   0.0095202
-0.037577   -0.030106    -0.01614   -0.091495     0.41845    0.083901     0.01017
-0.026533   -0.029782   -0.023935    -0.12495     0.40189    0.091047    0.009845
-0.014191   -0.027508   -0.029132     -0.1675     0.35869    0.094295    0.013093
-0.0057458   -0.022311    -0.03303    -0.19478     0.28853    0.089098    0.019589
-0.0041217   -0.015815   -0.037252    -0.19121     0.19921     0.07708    0.028034
-0.0044465  -0.0089938   -0.044398     -0.1675     0.10989    0.061165    0.039402
-0.0024977  -0.0031473   -0.053168    -0.14606    0.038428    0.044275    0.050771
-0.0015233  -0.0021729   -0.060638    -0.13145  -0.0054209    0.029009    0.056292
-0.0041217  -0.0089938   -0.059989    -0.11001   -0.026858    0.014392    0.049147
-0.010293   -0.022636   -0.046996   -0.060313   -0.039851 -0.00054884    0.029333
-0.018738   -0.037252   -0.022311    0.024137   -0.063237   -0.021012   0.0049729
-0.029782   -0.046022   0.0059473      0.1297    -0.10514   -0.051544   -0.019388
-0.042774   -0.047971    0.029333     0.22649    -0.15873   -0.090196   -0.036927
-0.052518   -0.046022    0.043625     0.28756     -0.2042    -0.13047   -0.045047
-0.05804   -0.043748    0.044599     0.29892    -0.22044    -0.16847   -0.045372
-0.056091   -0.041799     0.03453     0.26449    -0.18764    -0.20096   -0.040825
-0.046347   -0.039526     0.01894     0.20116    -0.10481    -0.22077   -0.036927
-0.033354   -0.037252   0.0046481     0.13327    0.012443     -0.2172   -0.034654
-0.020037   -0.031081  -0.0067202    0.076431     0.13327    -0.18894   -0.034654
-0.0083442   -0.022636   -0.010943    0.038103     0.23104    -0.15093    -0.03303
-0.0021729   -0.016789  -0.0099683    0.016991     0.28691    -0.11975   -0.027833
-0.0015233   -0.013541  -0.0080194   0.0046481     0.29762    -0.10481   -0.019712
-0.0015233   -0.013216   -0.011917   -0.011267     0.27521    -0.10709  -0.0096434
0.0020496   -0.013866   -0.023285   -0.036278     0.23851    -0.11651   0.0023744
0.0075714   -0.011592    -0.04115   -0.068758     0.19953    -0.11748    0.014392
0.013743   -0.007045    -0.05804    -0.10059     0.16445    -0.10546    0.026735
0.023487  -0.0024977   -0.069408    -0.11813     0.13425   -0.079152    0.040702
0.03453   0.0046481   -0.070707    -0.11033     0.11281   -0.045697    0.050121
0.042651    0.013743   -0.055766   -0.077203    0.096569   -0.015165    0.050771
0.045574    0.025111   -0.027183   -0.027508    0.079354   0.0095202    0.044599
0.0433    0.032582   0.0078962    0.033556    0.055318    0.029009    0.037129
0.039402    0.033556    0.041027     0.09397    0.023162    0.044275    0.030308
0.03583    0.028034    0.059216     0.14107   -0.014191    0.054668    0.026735
0.029009    0.021213    0.058241      0.1638   -0.056416    0.064737    0.024786
0.019589    0.014068    0.046873     0.16153   -0.097991    0.076755    0.024137
0.011794   0.0085458    0.037778     0.14107    -0.13599    0.089423    0.023162
0.0065969   0.0036737    0.031932     0.11183    -0.16425     0.10177    0.023487
0.003024 -0.00087364    0.025761    0.083576    -0.17724     0.11411    0.024137
0.0017248  -0.0050961     0.01829    0.066037    -0.17659     0.12353    0.024461
0.00075039  -0.0076946    0.012443    0.055318    -0.15841     0.12905    0.023487
0.0036737   -0.010618   0.0095202    0.037778     -0.1243     0.12743    0.018615
0.0075714    -0.01484   0.0072465  -0.0063954    -0.07428     0.12093   0.0091954
0.013093   -0.018413   0.0033489   -0.079477  -0.0099683     0.11411  -0.0041217
0.01894   -0.018088  -0.0028225    -0.16295    0.064413     0.11216    -0.01484
0.021213   -0.019063   -0.010618    -0.24156     0.14399     0.11248   -0.018088
0.016016   -0.020362   -0.020037    -0.30619     0.21447     0.11736   -0.015815
0.0052977   -0.021012   -0.031406    -0.35296      0.2567     0.12613  -0.0096434
-0.0067202   -0.021337   -0.039851    -0.35329     0.27002     0.13652  -0.0011985
-0.015815   -0.018413   -0.037252    -0.25877     0.26449     0.14496     0.01017
-0.018738    -0.01549   -0.018088   -0.053168     0.24403     0.15114    0.022837
-0.019063   -0.012567    0.013418     0.20765     0.19726     0.15114    0.035505
-0.018088   -0.011267    0.043625     0.42917     0.11931     0.13749    0.044599
-0.017439  -0.0096434    0.058891     0.54383    0.014717     0.10956    0.042001
-0.011592  -0.0083442    0.057267     0.53636   -0.092145    0.071883    0.028684
-0.00022403  -0.0057458    0.044924     0.43632    -0.17757    0.030308   0.0075714
0.011794  -0.0021729    0.029009     0.29795    -0.22434  -0.0044465  -0.0089938
0.01829   0.0010752    0.013418     0.17452    -0.23051   -0.028157   -0.018088
0.019914  0.00042559  0.00042559    0.094945    -0.21297   -0.038876   -0.020037
0.016991  -0.0050961   -0.010293    0.059865    -0.19413   -0.038876   -0.021986
0.0065969   -0.010293   -0.020037    0.050771    -0.18991   -0.034978   -0.028482
-0.0089938   -0.013541   -0.028807    0.049147    -0.20875   -0.032705   -0.034329
-0.025884    -0.01484   -0.031081    0.046548    -0.24675   -0.034329   -0.036602
-0.038551   -0.011917   -0.025559     0.04395    -0.28898   -0.042774   -0.034329
-0.043423  -0.0060706   -0.017439      0.0433    -0.32081   -0.054467   -0.030431
-0.042124  0.00042559  -0.0093186    0.042001    -0.33802    -0.06551   -0.029457
-0.036278   0.0036737  -0.0018481    0.038753     -0.3416   -0.076229   -0.028807
-0.031406   0.0046481   0.0026992    0.032582    -0.33445   -0.087597   -0.027183
-0.025884   0.0056225   0.0023744    0.025111    -0.31334   -0.099615   -0.024909
-0.019388   0.0078962   0.0020496    0.014392    -0.27988    -0.11131   -0.025884
-0.010618   0.0085458   0.0026992 -0.00054884    -0.24903    -0.12722   -0.033679
0.00075039   0.0078962  0.00010078   -0.017764    -0.24545    -0.14541   -0.040175
0.014392   0.0069217  -0.0067202   -0.031406    -0.27176    -0.16523   -0.037577
0.028359   0.0091954   -0.015165   -0.042124    -0.31366    -0.18212   -0.023935
0.039402    0.013743   -0.021986   -0.051868    -0.34777    -0.19251  -0.0041217
0.046873    0.022188   -0.026533   -0.060313    -0.35199    -0.19154    0.014717
0.049796    0.029009    -0.03173   -0.064536    -0.31529    -0.18114    0.024461
0.047847    0.030957   -0.042449   -0.064211    -0.24448     -0.1623    0.023812
0.040377    0.028034   -0.054467   -0.060963    -0.15223    -0.13762    0.019914
0.032257    0.024137   -0.061288   -0.057715   -0.059339    -0.11033     0.01829
0.024137    0.022188   -0.065186   -0.056741    0.017965   -0.084349    0.019914
0.019264    0.022512   -0.065186   -0.056091    0.063113   -0.061613    0.020239
0.01829    0.024137   -0.059989   -0.054467     0.06961   -0.046022    0.020564
0.022188    0.026085    -0.04992   -0.055116    0.042975   -0.039851    0.016016
0.028034    0.028359   -0.035628   -0.059014   0.0020496   -0.039851    0.008221
0.037129    0.031282   -0.016789   -0.062587   -0.034329   -0.041475  0.00010078
0.048497    0.035505   0.0023744   -0.066485    -0.04992   -0.039526  -0.0028225
0.060515    0.039727    0.019264    -0.07428   -0.036602   -0.034654   0.0033489
0.068635    0.042001    0.028359   -0.089546   0.0020496   -0.025234    0.014717
0.067661    0.040702    0.028359    -0.10579    0.047847   -0.014191    0.020239
0.057917     0.03453    0.020564    -0.11228    0.073832  -0.0047713    0.016341
0.041027    0.024786   0.0078962    -0.10156    0.063763  -0.0050961   0.0033489
0.020239    0.012443  -0.0093186   -0.077528    0.012768   -0.013541  -0.0096434
0.0017248  0.00010078   -0.026858   -0.055441   -0.071682   -0.023935   -0.016789
-0.0083442  -0.0067202   -0.037577   -0.048945    -0.16653   -0.029132   -0.015815
-0.0073698  -0.0041217   -0.044398   -0.056091    -0.24578   -0.021661  -0.0067202
0.0039985   0.0062721   -0.049595   -0.063886    -0.29645  -0.0034721   0.0020496
0.017316    0.020239   -0.052843   -0.055116    -0.31756    0.015042   0.0069217
0.028034    0.035505   -0.046671   -0.021661    -0.31334    0.025111   0.0065969
0.033231    0.046548   -0.029132    0.032582    -0.29158    0.024461   0.0059473
0.032582    0.050121  -0.0089938    0.092021    -0.25487    0.016666   0.0043233
0.026735    0.046873   0.0010752     0.14139    -0.19933   0.0088706   0.0023744
0.019914    0.038428   0.0023744     0.16803    -0.12105   0.0043233   0.0069217
0.015367    0.028359   0.0026992     0.17095   -0.015165   0.0069217    0.019914
0.0085458    0.017965   0.0046481     0.15438     0.11281    0.011144    0.033231
0.00075039    0.011144   0.0075714     0.12775     0.25085    0.015367    0.040702
-0.0047713    0.008221   0.0091954    0.099817      0.3785    0.023162    0.040377
-0.0089938   0.0085458   0.0059473    0.076755      0.4714    0.034855    0.038428
-0.0099683   0.0088706  0.00010078    0.060515     0.51687    0.048497    0.037454
-0.0096434   0.0078962  -0.0083442    0.051745     0.52142    0.058891    0.032257
-0.0060706   0.0088706    -0.01614    0.045249     0.49771    0.062464    0.020564
-0.00054884    0.011794   -0.019388    0.037778     0.45873    0.060515   0.0069217
0.0043233    0.014392   -0.017114    0.031282     0.41358    0.056942  -0.0015233
0.009845    0.014392   -0.011592    0.029983     0.36713     0.05272  -0.0024977
0.013418    0.012443  -0.0063954     0.03453     0.32361    0.044924  0.00042559
0.013743    0.010495  -0.0063954    0.038428     0.28593    0.037129   0.0020496
0.010819   0.0095202  -0.0089938    0.037778     0.25118    0.030308  0.00075039
0.0043233    0.009845   -0.011592    0.033881     0.21642    0.023487  -0.0050961
-0.0024977    0.014068  -0.0099683    0.027709     0.18004    0.015367  -0.0096434
-0.008669    0.020239  -0.0041217     0.01764     0.14432   0.0049729  -0.0096434
-0.011267    0.024137   0.0052977   0.0043233     0.10501  -0.0054209  -0.0083442
-0.012242    0.021538    0.016666  -0.0093186    0.062789   -0.011592  -0.0080194
-0.014191    0.016016    0.027709   -0.021337    0.017316  -0.0093186  -0.0057458
-0.014191    0.008221    0.036154   -0.032705   -0.029782  -0.0034721  0.00042559
-0.013216 -0.00087364    0.037454    -0.04115   -0.083375   0.0020496     0.01017
-0.014191   -0.008669    0.033881   -0.051219    -0.15581   0.0017248     0.01894
-0.020687   -0.017114    0.021538   -0.067134    -0.25682  -0.0080194    0.019264
-0.03173   -0.026858   0.0036737   -0.077203    -0.38837    -0.02361    0.012119
-0.044723   -0.035953    -0.01484   -0.064211    -0.54135   -0.042449   0.0023744
-0.050569   -0.041475   -0.028482    -0.02361    -0.69921   -0.060963  -0.0028225
-0.047646   -0.042449   -0.035303    0.025111    -0.84537   -0.077528 -0.00022403
-0.038227   -0.039851   -0.036602    0.057267    -0.95873   -0.088247   0.0059473
-0.029457   -0.037577   -0.034978    0.056292     -1.0136    -0.09182   0.0062721
-0.026533   -0.037902   -0.034329    0.026085    -0.98309   -0.091495  -0.0073698
-0.031081   -0.038227   -0.035303   -0.017764    -0.85934   -0.089221   -0.027183
-0.042124   -0.036278   -0.035953   -0.060638    -0.66251   -0.087922   -0.044723
-0.055116   -0.033354   -0.034004   -0.088247    -0.42735    -0.09182   -0.055766
-0.067784   -0.027833   -0.028157   -0.096692    -0.18634    -0.09994   -0.058365
-0.076229   -0.020037   -0.019388   -0.084349    0.041351    -0.10774   -0.053492
-0.076879   -0.011592   -0.013216   -0.060313     0.24241    -0.10968   -0.044723
-0.067459  -0.0054209   -0.012892    -0.03238     0.40546    -0.10416   -0.037902
-0.050569  -0.0037969   -0.013541   -0.010618     0.52466   -0.093769   -0.036927
-0.030756   -0.008669   -0.010943   0.0052977     0.60229   -0.082725   -0.039526
-0.017114   -0.019388  -0.0076946    0.010819     0.64614   -0.072656   -0.044073
-0.01484   -0.032705  -0.0063954   0.0059473     0.67148   -0.064536    -0.04927
-0.019712   -0.038227  -0.0015233  -0.0034721     0.68415   -0.057065   -0.053168
-0.026209   -0.036278   0.0036737   -0.012567     0.68025   -0.053492   -0.050244
-0.032055   -0.027833   0.0078962   -0.018413     0.65524   -0.054467   -0.046022
-0.036602   -0.019712   0.0078962   -0.018088     0.60522   -0.062262   -0.042124
-0.036602    -0.01484     0.01017   -0.014516     0.54285   -0.076879   -0.040175
-0.03303   -0.013866    0.012768   -0.010618     0.48699   -0.093119   -0.038876
-0.029457   -0.015815    0.017316   -0.012242     0.45093    -0.10221   -0.034329
-0.029457   -0.015165    0.022837   -0.021012     0.43372    -0.10124   -0.024909
-0.036602   -0.010943    0.029333   -0.035303     0.42203   -0.093119    -0.01549
-0.046996  -0.0060706    0.035505   -0.051544     0.40351   -0.078503  -0.0089938
-0.056091  -0.0021729    0.040702   -0.067134     0.36713   -0.060963   -0.011592
-0.064211 -0.00054884    0.040702   -0.081426     0.30867   -0.042124   -0.019388
-0.069083   0.0010752    0.034855   -0.089871     0.23006   -0.024909   -0.027833
-0.070707    0.003024    0.024461   -0.092794     0.13587   -0.010618   -0.031081
-0.067134   0.0033489    0.009845   -0.087922    0.022837 -0.00087364   -0.029457
-0.057065   0.0036737  -0.0050961   -0.075579    -0.11618    0.003024   -0.027183
-0.043423   0.0026992   -0.016789    -0.06551    -0.27826    0.008221   -0.024585
-0.029132  0.00042559   -0.024585   -0.069083    -0.44683    0.022188   -0.020362
-0.020037  -0.0018481   -0.030756    -0.08305    -0.59625    0.040702   -0.011267
-0.01484 -0.00054884   -0.032705   -0.089546    -0.69401    0.056292 -0.00054884
-0.011592   0.0043233   -0.029782    -0.06681    -0.71188    0.062139     0.01017
-0.012242   0.0091954   -0.022961  -0.0080194    -0.64204    0.056617    0.016666
-0.015165    0.011144   -0.012892    0.071883     -0.5027    0.042326    0.019264
-0.015815    0.011144   0.0017248     0.14984    -0.33445    0.021863    0.017316
-0.0080194   0.0095202    0.014717     0.20246    -0.18049  0.00010078    0.012768
0.008221   0.0062721    0.018615      0.2187   -0.069083   -0.016789   0.0052977
0.022837 -0.00087364    0.008221     0.19823  -0.0037969   -0.021337  -0.0041217
0.030308   -0.010293    -0.01484     0.15601    0.031282   -0.020362   -0.013541
0.029333   -0.017114   -0.036927     0.11216    0.050446   -0.022311   -0.020362
0.022512   -0.018413   -0.051219    0.080328    0.064088   -0.029457   -0.023935
0.014068   -0.018088   -0.054467    0.061489    0.074157   -0.039201   -0.025559
0.0069217   -0.018088   -0.047971    0.050121    0.076755   -0.045372   -0.024585
0.0023744   -0.019388   -0.037577    0.042326    0.069934   -0.045372    -0.02426
0.0010752   -0.018413   -0.027833    0.034855    0.061165   -0.036927   -0.023285
0.0056225   -0.014191   -0.021012    0.029658    0.054344   -0.018088   -0.019388
0.017316  -0.0044465   -0.015165    0.025761    0.048822    0.009845   -0.013541
0.032582   0.0069217  -0.0057458    0.022188    0.046873    0.039402  -0.0076946
0.042975    0.012443   0.0062721     0.01894    0.047523    0.064737  -0.0015233
0.041676    0.013743    0.013418    0.016991    0.050121    0.083576   0.0065969
0.030308    0.014717    0.016016    0.015042    0.049796     0.09462    0.018615
0.011794     0.01764    0.015042    0.012443     0.04395    0.097543    0.034206
-0.0024977    0.021538    0.014068   0.0085458    0.036479    0.092996    0.046223
-0.0099683     0.02641    0.016666      0.0014    0.025436    0.081303    0.053369
-0.0054209    0.029983    0.020239  -0.0076946    0.015042    0.064413    0.054344
0.0059473    0.030308    0.022188   -0.012892    0.011469    0.047523    0.053694
0.015042    0.027385    0.019264   -0.011267    0.023162    0.032257    0.053044
0.019264    0.024137    0.015367  -0.0054209    0.062464    0.019914    0.046873
0.018615     0.01764   0.0085458 -0.00087364     0.12483    0.008221     0.03518
0.014717   0.0056225  -0.0018481 -0.00054884     0.20311  -0.0015233    0.017965
0.0075714  -0.0047713   -0.012567  -0.0060706     0.27651  -0.0083442  0.00010078
-0.00087364   -0.012242   -0.019063   -0.014516     0.31354   -0.010618   -0.018088
-0.0057458   -0.016789   -0.022961    -0.02361     0.29243   -0.013541   -0.028807
-0.0054209   -0.018088   -0.025884   -0.031081     0.21577   -0.014191   -0.031081
-0.0011985   -0.015165   -0.025884   -0.036927     0.10242  -0.0083442   -0.024909
0.0062721  -0.0083442   -0.022636    -0.04115   -0.016464   0.0043233   -0.014516
0.016341 -0.00054884   -0.015815   -0.042124    -0.11033    0.020239  -0.0060706
0.024461   0.0056225  -0.0057458     -0.0405    -0.15905    0.030633  -0.0031473
0.026085   0.0078962   0.0062721   -0.036278    -0.16068    0.031282  -0.0047713
0.019264   0.0046481    0.015692   -0.028157    -0.13047    0.026085  -0.0073698
0.0088706  -0.0067202    0.018615   -0.013866   -0.088896    0.022512   -0.010293
0.0010752   -0.019063    0.015367   0.0023744   -0.057065    0.020239  -0.0099683
-0.0024977   -0.024585   0.0069217    0.015042   -0.044073    0.016016  -0.0076946
-0.0047713   -0.020687  -0.0034721    0.019589   -0.045047    0.014068  -0.0060706
-0.0096434   -0.011917   -0.013216    0.016341   -0.054467    0.015367  -0.0037969
-0.017114  -0.0034721   -0.018088    0.008221   -0.064861    0.013743  -0.0050961
-0.022961      0.0014   -0.015815  -0.0018481    -0.07493   0.0085458   -0.011592
-0.025559  0.00042559  -0.0083442   -0.010293    -0.08305  0.00075039   -0.021661
-0.024909  -0.0060706 -0.00087364   -0.011592   -0.086948  -0.0050961   -0.030756
-0.024585   -0.013541   0.0026992  -0.0093186   -0.086298  -0.0076946   -0.036278
-0.022636   -0.018738   0.0010752  -0.0080194   -0.082725  -0.0080194   -0.037577
-0.017114   -0.019712  -0.0034721  -0.0093186   -0.079802  -0.0044465   -0.034978
-0.0073698   -0.015815  -0.0050961  -0.0099683   -0.076229  0.00042559   -0.031406
0.0026992   -0.007045   0.0017248   -0.007045    -0.07428   0.0046481   -0.027833
0.01017   0.0059473    0.012443 -0.00087364   -0.073306   0.0069217   -0.024909
0.013418    0.020239    0.016016   0.0033489   -0.075904    0.008221   -0.020037
0.014392    0.033556    0.010495   0.0039985   -0.084674    0.010495   -0.011267
0.012768    0.039727      0.0014   0.0023744    -0.09929    0.012768 -0.00054884
0.011144    0.038753  -0.0037969  -0.0018481    -0.11066    0.012443   0.0088706
0.008221    0.030633  -0.0037969  -0.0080194    -0.11391   0.0052977    0.015367
0.0039985    0.019264  0.00042559  -0.0096434    -0.11001  -0.0076946    0.017965
-0.0031473    0.009845   0.0059473  -0.0057458    -0.10026   -0.021012    0.015042
-0.014516   0.0020496    0.012443   0.0075714    -0.09117   -0.028482    0.009845
-0.026858  -0.0015233    0.014392    0.023487   -0.090521   -0.027833 -0.00022403
-0.032705   0.0010752    0.011144    0.029009    -0.10091   -0.022636   -0.012892
-0.029782   0.0091954   0.0026992    0.017965    -0.11878   -0.018088   -0.021337
-0.020687    0.022188  -0.0054209  -0.0047713    -0.14119   -0.016464   -0.019388
-0.011917    0.032257   -0.013216   -0.028482    -0.16295    -0.01614  -0.0093186
-0.007045    0.033881   -0.020687   -0.047646    -0.18439    -0.01549  0.00042559
-0.0034721    0.025436   -0.032705   -0.060963    -0.20096   -0.013216   0.0069217
-0.00087364    0.016016   -0.047971   -0.068758    -0.20583  -0.0089938    0.011144
0.0065969   0.0088706   -0.063886   -0.073955    -0.19316  -0.0021729    0.016016
0.016341   0.0091954   -0.078503   -0.080451     -0.1636    0.003024    0.021213
0.022837    0.012443   -0.089546   -0.085648    -0.12138   0.0026992    0.025761
0.023162     0.01829   -0.096042     -0.0824   -0.078827  -0.0028225    0.028359
0.020239    0.022837    -0.09182   -0.067134   -0.047646   -0.010618    0.027709
0.018615    0.021863   -0.077203   -0.037252   -0.034004    -0.01614    0.022512
0.014392    0.016991   -0.052843   0.0043233   -0.034978   -0.020037    0.012119
0.0072465    0.011469    -0.02426    0.051096   -0.047646    -0.02426   0.0033489
-0.0031473   0.0091954   0.0023744    0.091372   -0.064861   -0.032055   0.0039985
-0.010293    0.012119    0.023812      0.1206   -0.080451   -0.042449    0.010495
-0.012892    0.018615    0.042651      0.1362   -0.085973   -0.051868    0.016991
-0.011592    0.024786    0.055318     0.14172   -0.076554    -0.05804    0.012119
-0.010943    0.029658    0.059865     0.13977   -0.058689   -0.059014  -0.0031473
-0.010943    0.034855    0.056292     0.13197   -0.039851   -0.055766   -0.024585
-0.013866    0.036804      0.0433     0.11833   -0.022961   -0.051219   -0.042449
-0.019712    0.032257    0.021863    0.099492   -0.012892   -0.050244   -0.051868
-0.027183    0.022512  -0.0024977    0.079679   -0.008669   -0.051868   -0.049595
-0.03303   0.0091954   -0.020037    0.061814  -0.0054209   -0.057715   -0.034978
-0.033679  -0.0015233   -0.027183    0.044924  -0.0011985   -0.063886   -0.012567
-0.028157  -0.0057458   -0.029782    0.027385      0.0014    -0.06616    0.008221
-0.020687  -0.0047713   -0.034329   0.0052977   0.0046481   -0.061937    0.023487
-0.013216  -0.0024977   -0.043423   -0.021661   0.0085458   -0.050894    0.030957
-0.0031473 -0.00022403   -0.049595   -0.050894    0.014392   -0.036927    0.032906
0.013418   0.0033489   -0.050569   -0.075255     0.01894    -0.02361    0.030957
0.034206   0.0062721   -0.044398    -0.09182    0.016991    -0.01614    0.029333
0.051096    0.010819   -0.034654   -0.097341     0.01017   -0.013866    0.030957
0.061814    0.014068   -0.022636   -0.094418  -0.0024977   -0.016464    0.029983
0.064088    0.016341   -0.010943   -0.084999   -0.013866   -0.025884    0.023812
0.056617    0.015692   0.0017248   -0.069733   -0.015815   -0.041475    0.015042
0.0433   0.0075714    0.013743   -0.055766   -0.010943   -0.058689   0.0049729
