0.29827     0.54058     0.06961    0.047523     0.28398  -0.0024977    0.073832
0.20635     0.47887    0.064088    0.060515     0.25897   0.0095202    0.068635
0.11541     0.33985    0.054019    0.072208      0.2541    0.013093     0.06019
0.031607     0.17842    0.042326    0.086824      0.2593    0.009845    0.051096
-0.027833    0.053694    0.034855     0.10631      0.2593   0.0052977      0.0433
-0.049595  -0.0044465    0.037454      0.1297     0.25085   0.0062721    0.036154
-0.034978   0.0043233    0.049472     0.14724     0.23429    0.012768    0.031282
-0.0021729    0.058241    0.066686     0.15503      0.2135    0.020888    0.031607
0.027385     0.12288    0.080653     0.15114     0.19174    0.025111    0.033231
0.041676     0.16315    0.080978     0.13977      0.1716    0.028684    0.031282
0.03583     0.15471    0.065712     0.12613     0.15114    0.030957    0.028359
0.021863    0.097868    0.041676     0.11411      0.1284     0.03518    0.027385
0.014392    0.015042    0.014717     0.10306     0.10534    0.039727    0.029009
0.025761   -0.055766  -0.0099683    0.093321    0.086824    0.040702    0.034206
0.055643   -0.090521   -0.027508    0.083251    0.075456    0.033556    0.040377
0.095594   -0.086623    -0.03173    0.074157    0.070584    0.016341    0.042975
0.12775   -0.060963   -0.023935    0.066362    0.067011  -0.0083442    0.041027
0.14204   -0.039851   -0.011592    0.058241    0.056942   -0.031406    0.032906
0.13392   -0.053492   0.0026992    0.050121    0.033231   -0.047646    0.023162
0.11118    -0.11748    0.012119    0.042975  -0.0089938   -0.055116    0.014392
0.083901     -0.2107    0.011144    0.031282   -0.068758   -0.058365     0.01017
0.063763    -0.30782  -0.0018481   0.0069217    -0.13957   -0.061613   0.0085458
0.055968    -0.40169   -0.019712   -0.030431    -0.20972   -0.069733   0.0078962
0.056617    -0.48386   -0.043423   -0.072981    -0.26689     -0.0824   0.0033489
0.058566    -0.51634   -0.071357    -0.11033    -0.29353   -0.096042  -0.0060706
0.061165    -0.44846    -0.09929    -0.12917    -0.27728    -0.10709   -0.014191
0.071558    -0.27111    -0.11488    -0.12527    -0.21297    -0.11001   -0.020037
0.094945   -0.055116    -0.11066    -0.10546    -0.11651    -0.10709   -0.021337
0.13295    0.088773   -0.088247   -0.076879   -0.021986    -0.10091   -0.018088
0.17712    0.088448   -0.062262   -0.052193    0.042975   -0.094093   -0.013216
0.21707   -0.048945   -0.043423    -0.03238    0.066362   -0.086948   -0.011267
0.23786    -0.23701   -0.035303   -0.013541    0.059216   -0.076879   -0.012567
0.23201    -0.36628   -0.029782   0.0078962     0.04395    -0.06616   -0.014516
0.20863     -0.3783   -0.020687    0.031607    0.033231   -0.053168   -0.013216
0.18297    -0.27014   -0.010618    0.051745    0.026735   -0.044723   -0.011592
0.1638   -0.069733  -0.0067202    0.062789     0.02641   -0.045372   -0.011267
0.15276     0.19758   -0.016464    0.057267    0.034206   -0.054792   -0.010618
0.14302      0.5016   -0.038227    0.042001     0.04395    -0.06616  -0.0096434
0.12678     0.79296   -0.063237    0.026085    0.049147    -0.07493  -0.0096434
0.10664      1.0197   -0.078827    0.017965    0.048822   -0.079152  -0.0099683
0.089098      1.1515   -0.073955     0.01894    0.040052   -0.077203  -0.0093186
0.076755      1.1727   -0.053168    0.023162    0.028684   -0.072006  -0.0057458
0.064737      1.0716   -0.026858    0.024137    0.016016   -0.069083 -0.00022403
0.044924     0.85369  -0.0080194    0.019264   0.0017248   -0.071682   0.0052977
0.013093     0.55195  -0.0031473    0.011144   -0.015815   -0.077528   0.0095202
-0.019063     0.23071   -0.012242   0.0017248   -0.036602   -0.085973   0.0072465
-0.041799   -0.040175   -0.023935  0.00042559   -0.057065   -0.092145  -0.0041217
-0.054467    -0.21979   -0.024585    0.008221   -0.071682   -0.093769   -0.017764
-0.060313    -0.31236  -0.0054209    0.022837   -0.081101   -0.089221   -0.027183
-0.066485    -0.36466    0.033556    0.042001   -0.081101   -0.079152   -0.027508
-0.077853    -0.43741    0.081627    0.060515   -0.072331   -0.063886   -0.018738
-0.084999    -0.56571     0.11963     0.07773    -0.05739   -0.043099   -0.008669
-0.075579    -0.74631     0.13879    0.090072   -0.044073   -0.021986  -0.0047713
-0.040825    -0.94346     0.13067    0.095594   -0.036278  -0.0063954   -0.008669
0.016341     -1.1029    0.091372    0.095269   -0.034004   0.0023744   -0.016464
0.0852     -1.1679    0.022188    0.087799   -0.034329   0.0069217   -0.022311
0.14821     -1.0913   -0.065186     0.07773   -0.037252    0.012768   -0.019712
0.19076     -0.8405    -0.15061    0.071234   -0.045047    0.020239   -0.010943
0.2057    -0.41468    -0.20843    0.071883   -0.054467    0.024137  -0.0067202
0.20213     0.12775    -0.22629    0.077405   -0.059664    0.023162   -0.013866
0.20051     0.66985     -0.2042    0.081952   -0.054792    0.020888   -0.028807
0.19758      1.1142    -0.15516    0.081303   -0.043099    0.017316   -0.043748
0.17517      1.4016   -0.095717    0.079029   -0.034329     0.01764   -0.057065
0.11248      1.5004   -0.039526     0.06896   -0.037902    0.022512   -0.069733
0.011794      1.4101  0.00075039    0.044275   -0.055116    0.029009   -0.079802
-0.10416      1.1623    0.019589 -0.00022403   -0.081426    0.028359   -0.081751
-0.19998     0.82154    0.016016    -0.05804    -0.11033    0.018615   -0.078503
-0.25065     0.46815  0.00042559     -0.1204    -0.13404   0.0036737   -0.072331
-0.25195     0.16803   -0.019063    -0.17172    -0.14314  -0.0083442   -0.063561
-0.21167   -0.044723   -0.033354    -0.20096     -0.1321   -0.012892   -0.052193
-0.161    -0.17302   -0.038551    -0.20518    -0.10189  -0.0083442    -0.04115
-0.13567    -0.24058   -0.030756    -0.18601   -0.059989  0.00010078   -0.032055
-0.16425    -0.27599    -0.01614    -0.15386   -0.018738     0.01017   -0.025234
-0.25    -0.29515   0.0010752    -0.11845   0.0085458    0.020888    -0.02361
-0.35686    -0.30489    0.015042   -0.088572     0.01829    0.029983   -0.027508
-0.43352    -0.30197    0.022837   -0.067459    0.011144    0.039078   -0.029457
-0.44294    -0.28703    0.024461   -0.052193  -0.0063954    0.048172   -0.025884
-0.3848    -0.26364    0.024786   -0.039851   -0.028807    0.054344    -0.01614
-0.28703    -0.23766    0.025761   -0.029782   -0.050569    0.056617  -0.0021729
-0.18342    -0.21232    0.027385   -0.020037   -0.071032     0.06084    0.014717
-0.099615    -0.19186    0.028034  -0.0073698   -0.097341    0.066686    0.031282
-0.042774    -0.17789    0.028034   0.0036737    -0.14087    0.072533    0.045574
-0.0089938    -0.17172    0.024461   0.0069217    -0.20875    0.070909    0.054344
0.0039985    -0.17237    0.017965  -0.0015233     -0.2945    0.058566    0.062464
0.0043233    -0.17432   0.0095202    -0.02361    -0.37927    0.039727    0.067986
0.0043233    -0.17594   0.0020496   -0.053817    -0.44586    0.020239     0.06896
0.0078962    -0.18082  -0.0028225   -0.079802    -0.47152   0.0056225    0.066037
0.013093    -0.18991  -0.0034721   -0.091495    -0.43677  -0.0021729    0.063113
0.016991    -0.20778  -0.0024977   -0.087272    -0.33705  -0.0063954    0.061165
0.017316    -0.23051  -0.0028225   -0.067459    -0.18699   -0.013216    0.063438
0.016016     -0.2552  -0.0060706   -0.037252   -0.020362   -0.021012    0.067011
0.016341    -0.27826   -0.011917  -0.0028225     0.11606   -0.025234    0.066362
0.020239     -0.2945   -0.017439    0.026735     0.19661   -0.023935    0.063763
0.025111    -0.30587   -0.018738    0.046223     0.22389   -0.021986    0.061814
0.028034    -0.30814    -0.01614    0.054344     0.21415   -0.019712    0.060515
0.031932    -0.29775   -0.011917    0.053694     0.18946   -0.017439    0.058891
0.039078    -0.26527  -0.0083442    0.049796      0.1664   -0.012567    0.057592
0.042975      -0.212  -0.0047713    0.046548     0.14432  -0.0080194    0.056942
0.039078    -0.14899  -0.0015233    0.046223     0.10696   -0.008669    0.055968
0.025436   -0.093119 -0.00022403    0.046873    0.042326    -0.01484    0.053369
0.0072465   -0.054142  0.00010078    0.044924   -0.044398   -0.021337    0.048172
-0.010943   -0.032705  0.00010078    0.039727    -0.13177   -0.021661    0.037778
-0.02426   -0.021337  -0.0024977    0.031932    -0.19348   -0.014516    0.024137
-0.027508   -0.013541  -0.0037969    0.026085    -0.21135  -0.0028225    0.014068
-0.018088  -0.0050961  -0.0024977    0.026735    -0.17984   0.0091954    0.011469
0.0046481    0.010819   0.0065969    0.032582    -0.11293    0.017965    0.013743
0.050771    0.033556    0.027385    0.039402   -0.035628    0.023162    0.016666
0.12678    0.062139    0.052395    0.043625    0.029009     0.02641    0.014392
0.21675    0.091372    0.073182      0.0433    0.071558    0.029983    0.003024
0.29145     0.10924    0.081627    0.037129    0.089748    0.034855   -0.012242
0.32231     0.10242    0.075781     0.02641    0.089423    0.037778    -0.02426
0.30282    0.072858    0.058891    0.016016    0.080978    0.039727   -0.027183
0.25345    0.035505    0.038428     0.01017    0.070584    0.038103   -0.022311
0.20668    0.013743    0.019914    0.012443    0.064088    0.032906   -0.015815
0.18524    0.019589   0.0078962    0.019589     0.06896     0.02641   -0.011267
0.18849    0.047523  -0.0011985    0.030308    0.093645    0.024137  -0.0067202
0.19076    0.073182   -0.011592    0.040377     0.14756    0.026085  -0.0011985
0.15081    0.073832   -0.020362    0.045249     0.22259     0.02706  0.00075039
0.046873    0.036154   -0.029782    0.040702     0.30477    0.023162  -0.0050961
-0.10611   -0.027833    -0.04115    0.028684     0.37136    0.013093   -0.018088
-0.25747   -0.088896   -0.054467    0.015692     0.39604  -0.0024977   -0.035303
-0.35037    -0.12268   -0.063561    0.012768     0.36194   -0.020037   -0.050569
-0.36238    -0.12203    -0.06551    0.022512     0.27749   -0.034654   -0.058689
-0.31204    -0.09182   -0.064211    0.042651     0.16673   -0.042449   -0.054142
-0.24708   -0.054142   -0.061613    0.065387    0.057592   -0.041475   -0.036602
-0.22467   -0.028482   -0.059014     0.07773   -0.034978   -0.031406   -0.013541
-0.27793   -0.024909   -0.052843    0.074482    -0.10189   -0.016789    0.008221
-0.38577   -0.036927   -0.039526    0.058891    -0.13729  -0.0057458    0.021538
-0.49263   -0.052518   -0.020037    0.037778    -0.14249  -0.0021729    0.027385
-0.54915   -0.056741 -0.00022403    0.022837    -0.12592  -0.0054209    0.025111
-0.53713   -0.042124    0.017965     0.01894   -0.097666   -0.014516    0.016341
-0.4621  -0.0037969    0.036479    0.024137   -0.062262   -0.023935   0.0056225
-0.34842    0.057267    0.059541    0.032906   -0.013866   -0.028807  -0.0037969
-0.22661     0.12125    0.087474    0.039402    0.062139   -0.028482  -0.0060706
-0.11521     0.15049     0.10826    0.040052     0.18329   -0.025234  -0.0031473
-0.025234      0.1271     0.11313    0.040052      0.3457   -0.018738  0.00010078
0.038753    0.074806     0.10177    0.040052     0.52174  -0.0067202 -0.00054884
0.0865    0.026735    0.084226    0.038753      0.6705   0.0065969  -0.0028225
0.131   -0.007045    0.067661    0.030957      0.7556    0.016341  -0.0031473
0.18329   -0.040175    0.051745    0.015692     0.76437    0.019264 -0.00087364
0.24306   -0.080127    0.034855  -0.0034721     0.70201    0.015367  0.00075039
0.28821    -0.10676    0.018615   -0.026533     0.57079   0.0072465  0.00042559
0.29113   -0.092145   0.0065969   -0.052193     0.37298 -0.00022403   -0.007045
0.24338   -0.019388 -0.00054884   -0.075255     0.12093  -0.0024977   -0.016464
0.16445    0.092996 -0.00022403   -0.093119    -0.15516      0.0014   -0.025234
0.0865     0.19434   0.0072465    -0.10579    -0.41305   0.0085458   -0.028482
0.03583     0.24208    0.011469    -0.11715    -0.62028    0.013093   -0.024909
0.025436     0.23754   -0.014191     -0.1308    -0.77781    0.010819   -0.020037
0.055968     0.20473   -0.087272    -0.14996    -0.90806   0.0020496   -0.017114
0.12028     0.16445    -0.20258    -0.16782     -1.0227   -0.012242   -0.013866
0.20408     0.12613     -0.3351    -0.17107      -1.099   -0.025234   -0.010293
0.28528    0.088773    -0.45528    -0.14834     -1.1042   -0.028807  -0.0080194
0.33498    0.048172    -0.54038    -0.10449     -1.0211   -0.022636  -0.0099683
0.33952   0.0017248    -0.57871   -0.044723    -0.86226   -0.010618    -0.01484
0.30639   -0.046671    -0.56182    0.019914    -0.66153   0.0020496   -0.021986
0.26612   -0.086298    -0.44618    0.080003    -0.45171   0.0091954   -0.027833
0.24176    -0.10319    -0.14281     0.12775    -0.26202    0.012443   -0.032055
0.23689   -0.093119     0.35512     0.15536    -0.10838    0.013093   -0.034004
0.23234   -0.071032     0.89592     0.15958   0.0095202    0.011794   -0.037252
0.19986   -0.050244      1.2652     0.14951    0.099492   0.0085458   -0.041475
0.12418   -0.036602       1.323     0.13327     0.16575   0.0039985   -0.044073
0.0039985   -0.032055      1.0729     0.11313     0.20928  -0.0028225   -0.046671
-0.14444   -0.029782     0.64192    0.088448     0.22909  -0.0099683   -0.051868
-0.2945   -0.025234     0.20246    0.059541     0.23104    -0.01614   -0.059339
-0.4189   -0.015165    -0.11293    0.026085      0.2187   -0.018088   -0.062912
-0.49166  -0.0037969    -0.25877  -0.0089938     0.18979    -0.01484   -0.062262
-0.49848   0.0059473    -0.26462   -0.036927      0.1297  -0.0089938   -0.054792
-0.44164    0.013093    -0.19706   -0.051868    0.033231  -0.0060706   -0.039851
-0.34062    0.024461    -0.12138   -0.052518   -0.082076   -0.010943   -0.020362
-0.22402    0.049472   -0.075579   -0.043423    -0.18569   -0.020687 -0.00087364
-0.11748    0.088773   -0.068109   -0.028807    -0.25845    -0.03238    0.015042
-0.036927     0.14042   -0.081426   -0.013866     -0.2984   -0.038551    0.025111
0.020239     0.19726   -0.092794  -0.0028225    -0.30782   -0.037577    0.032257
0.065712     0.24695   -0.089221  -0.0011985    -0.28735   -0.034654    0.035505
0.10469     0.27391    -0.07493  -0.0057458    -0.24091   -0.035628    0.033231
0.13132     0.27099   -0.060313    -0.01549    -0.17789   -0.039851    0.027385
0.14074     0.23981   -0.052843   -0.024585    -0.10644   -0.041475    0.019914
0.12743     0.18134   -0.058365   -0.033679   -0.034329   -0.041799    0.013743
0.090722    0.098517   -0.078827   -0.041799    0.028359   -0.046347   0.0072465
0.042001   0.0069217    -0.10838   -0.050569    0.076106   -0.060313  -0.0018481
0.0023744   -0.067459    -0.13469   -0.052518     0.10566   -0.078827   -0.011267
-0.010293    -0.10124    -0.14346   -0.050894     0.12418   -0.093444   -0.017764
0.0017248   -0.089221    -0.13729   -0.046671     0.13749   -0.096692   -0.012892
0.022512   -0.044073    -0.12398   -0.038227     0.14626   -0.082076   0.0017248
0.031282    0.016016    -0.11066   -0.025234     0.14756   -0.056416     0.01764
0.029658    0.071883    -0.10124  -0.0089938     0.14107   -0.032055    0.029333
0.025436     0.11054   -0.090845    0.009845      0.1219   -0.018738    0.036154
0.027385     0.12645   -0.080127    0.025111    0.079029   -0.016789    0.037454
0.035505     0.11898    -0.05804    0.027709   0.0010752   -0.021986    0.033881
0.042326    0.092671  -0.0057458     0.01764    -0.11391   -0.034654    0.027385
0.042975    0.063113    0.088448  -0.0021729     -0.2435   -0.051868    0.016016
0.040052     0.05207      0.2187   -0.023935    -0.35167   -0.071682  0.00075039
0.033556     0.06019     0.36324    -0.04115    -0.40753   -0.087922   -0.018088
0.022512    0.071883     0.48309   -0.044398    -0.39097   -0.092469   -0.037577
0.0078962    0.066362     0.55292   -0.028482    -0.30814   -0.084024   -0.051219
-0.0067202     0.03518      0.5565   0.0026992    -0.18017   -0.063886   -0.055116
-0.019063   -0.016464     0.48894    0.037454   -0.039851   -0.035953   -0.049595
-0.026209   -0.068758     0.36583    0.062139    0.088773  -0.0089938   -0.043099
-0.029457   -0.097017     0.20798    0.069285     0.19076   0.0075714   -0.037902
-0.027833   -0.092145  -0.0093186    0.059216     0.26514   0.0078962   -0.033354
-0.02361   -0.064211    -0.36173     0.03583     0.31581  -0.0037969   -0.029132
-0.021661   -0.029457    -0.84797   0.0056225     0.35317   -0.016464   -0.028157
-0.017764   0.0065969     -1.3202   -0.021012     0.38662   -0.022311    -0.03173
-0.007045    0.046548     -1.6031   -0.037252      0.4152   -0.024585   -0.038227
0.012119    0.086824     -1.6041   -0.038227     0.43632   -0.022636   -0.043099
0.038103     0.11606     -1.3478   -0.025234     0.44963   -0.018088   -0.043099
0.067986      0.1219    -0.94184  -0.0047713     0.44963   -0.012892     -0.0405
0.09462     0.10566    -0.51829    0.016016     0.42397   -0.011267   -0.036927
0.11378    0.070909    -0.18244    0.029658     0.36129   -0.016789   -0.034004
0.12418    0.029658    0.016991    0.037778     0.27002   -0.025559   -0.030756
0.1271  -0.0021729    0.094295    0.044599     0.16868   -0.032055   -0.022636
0.1362   -0.011917     0.11313    0.060515     0.07708   -0.033354   -0.010293
0.16835  -0.0031473     0.14789    0.089748    0.012443   -0.032705   0.0017248
0.22649   0.0069217     0.23656      0.1258   -0.017764   -0.036278    0.012443
0.2986  -0.0057458     0.36389     0.15828   -0.018413   -0.040825    0.023162
0.36194   -0.051868     0.47692      0.1755  0.00042559   -0.045372    0.034855
0.39344    -0.12398     0.52726     0.17095    0.027709   -0.046022     0.04395
0.38207    -0.20388     0.50258     0.14951    0.062464   -0.043423    0.049147
0.33433     -0.2854     0.41975     0.11898     0.10664   -0.038227    0.049147
0.2567    -0.36823     0.30542    0.090072     0.16218   -0.032055    0.041676
0.15438    -0.42832     0.18362    0.062139     0.21155   -0.023935    0.026085
0.031932    -0.41111    0.078379    0.033881     0.23494   -0.011592   0.0039985
-0.09994    -0.27176   0.0036737   0.0020496     0.21382   0.0033489   -0.021661
-0.23246   -0.024909   -0.034978   -0.026858     0.15146    0.015367   -0.044398
-0.35232     0.25897   -0.035303   -0.046022    0.072208    0.026085   -0.053168
-0.44196     0.49576  -0.0047713    -0.04927  -0.0054209    0.036154   -0.042124
-0.48776     0.61821    0.044275     -0.0405   -0.069408     0.04395   -0.012567
-0.48744     0.59677    0.091372   -0.027833    -0.11423    0.049472    0.024786
-0.44716     0.45061     0.12093   -0.020687    -0.14216     0.05207    0.053369
-0.38317     0.23201     0.12937   -0.024909    -0.15776    0.049796    0.061165
-0.31301   0.0039985     0.11638   -0.043423     -0.1675    0.041027    0.046223
-0.24643    -0.18342    0.090397   -0.072656    -0.17465    0.022512     0.01829
-0.17854    -0.30392    0.055318    -0.10709    -0.18439  -0.0015233   -0.010293
-0.093769    -0.36238     0.01764    -0.13794    -0.19348   -0.023935   -0.029132
0.019914    -0.37408   -0.012892    -0.16035    -0.19511   -0.037902   -0.035628
0.1625    -0.34777    -0.03303    -0.17497    -0.18082    -0.04115   -0.032705
0.30802    -0.26916   -0.039526    -0.17919    -0.14314   -0.037577   -0.020687
0.41163    -0.12105    -0.03303    -0.16685   -0.076554    -0.03238  -0.0037969
0.45256     0.09397   -0.014516    -0.13632    0.012119   -0.026858    0.013093
0.43729      0.3392    0.013418    -0.09182     0.10859   -0.017764    0.029333
0.39052     0.54545    0.042651   -0.045697     0.19369  -0.0067202    0.047523
0.32328     0.64809    0.065062  -0.0073698     0.25702   0.0039985    0.065387
0.23526     0.61626    0.075456    0.020239     0.29275    0.009845    0.079679
0.11801      0.4688    0.074157    0.040702     0.30282   0.0095202    0.087149
-0.018738     0.26255    0.066037    0.060515      0.2973   0.0033489    0.089098
-0.15386    0.062464    0.057917    0.084876     0.28528  -0.0044465    0.089098
-0.2591   -0.080776    0.054344     0.11151     0.27067  -0.0076946    0.089423
-0.32276    -0.14866    0.059216     0.13295     0.25313  -0.0044465    0.088124
-0.35102    -0.15808    0.069934     0.14009     0.23169    0.003024    0.082602
-0.36401    -0.14184    0.080653     0.13067     0.20635   0.0088706    0.073182
-0.36563    -0.12787    0.088124     0.11183     0.18004   0.0088706    0.060515
-0.3429    -0.12527    0.090072    0.093645     0.15698  0.00010078    0.047847
-0.2919     -0.1282     0.08585    0.083251     0.14399   -0.014516    0.035505
-0.22856     -0.1321    0.079679    0.081627     0.14269   -0.028157    0.026735
-0.17659    -0.14346    0.073507    0.083251     0.15114    -0.03303    0.024461
-0.14509    -0.17335    0.065387    0.084226     0.17127   -0.030431    0.030633
-0.13047    -0.22142    0.056942    0.084226     0.19596    -0.02361    0.039402
-0.11878    -0.28281    0.048172    0.082927     0.21415   -0.018738    0.045899
-0.10286    -0.34549    0.039727    0.074157     0.21285   -0.017439    0.042651
-0.081751    -0.39454    0.033556    0.054993     0.18557   -0.021986    0.029983
-0.059014    -0.42182    0.030633    0.026085      0.1349   -0.029457    0.015692
-0.039201    -0.43189    0.029333  -0.0041217    0.074157   -0.034654   0.0075714
-0.024909    -0.41663     0.02641   -0.027183    0.021213   -0.034978   0.0069217
-0.012892    -0.34679    0.025761   -0.047971   -0.017439   -0.032705    0.011144
0.00042559    -0.19446    0.025111   -0.076229   -0.047321   -0.030756    0.014392
0.01894    0.040377    0.025761    -0.11553     -0.0837   -0.031081    0.011144
0.044599     0.31386    0.032906    -0.15808    -0.13762   -0.037252   0.0036737
0.078055      0.5513    0.046873    -0.19251    -0.22174   -0.046671  -0.0021729
0.11086     0.67992    0.064413    -0.21135    -0.34257   -0.053817  -0.0044465
0.13652     0.66791    0.075131    -0.20355    -0.49393   -0.051219  -0.0047713
0.14561     0.53506    0.064088    -0.17107    -0.65471   -0.038551  -0.0060706
0.1349     0.33563    0.017316    -0.12398     -0.7986   -0.020037  -0.0083442
0.10599      0.1336   -0.059014   -0.076879    -0.90514  -0.0037969   -0.012242
0.06896   -0.028482    -0.14736   -0.038227    -0.95938   0.0036737   -0.016464
0.037454    -0.15353    -0.22986  -0.0096434    -0.94964  -0.0015233   -0.020037
0.01894    -0.26429    -0.29515   0.0095202    -0.87461   -0.014516    -0.02426
0.016341    -0.36628    -0.33348    0.020239    -0.74923   -0.022961   -0.030106
0.025436    -0.44618     -0.3351    0.027709    -0.60534   -0.027508   -0.037577
0.036804    -0.48321    -0.30294    0.033881    -0.47087   -0.029457   -0.044073
0.041676    -0.46567    -0.23863    0.035505    -0.36466    -0.03303   -0.048945
0.034206    -0.40331    -0.13502    0.027709    -0.29093   -0.037577   -0.052193
0.015692    -0.31496   0.0065969    0.010819     -0.2435   -0.038227   -0.053817
-0.0031473    -0.21687     0.17127  -0.0063954    -0.21232   -0.034329   -0.050569
-0.012892    -0.12073      0.3444  -0.0089938    -0.18894   -0.030106   -0.039851
-0.01614   -0.035628     0.51557   0.0095202    -0.16588   -0.022636   -0.021661
-0.017439    0.026085     0.67083     0.04395    -0.13989   -0.013216  -0.0024977
-0.020687    0.061814      0.7949    0.079354   -0.097341  -0.0057458   0.0078962
-0.024909    0.072533     0.86929     0.10469   -0.026858  -0.0037969   0.0056225
-0.029782    0.064737        0.88     0.11703    0.065062  -0.0047713  -0.0034721
-0.03303    0.045249     0.85142     0.11995     0.16153  -0.0073698  -0.0093186
-0.03173    0.019914     0.83908     0.11736     0.24663   -0.010293  -0.0083442
-0.020687   -0.029132     0.90177     0.11151     0.30834   -0.011917  0.00075039
0.0049729      -0.161     0.96608     0.10274     0.34472   -0.010943    0.013093
0.047847    -0.42085       0.766    0.090397     0.35057  -0.0076946    0.023487
0.10274    -0.79698     0.13165    0.070584     0.32653  -0.0044465    0.031607
0.1703     -1.2209    -0.78074    0.047198     0.27684  -0.0018481    0.038103
0.2463      -1.582     -1.6028    0.025761      0.2161   0.0020496      0.0433
0.32653      -1.772     -2.0491    0.013743     0.15926    0.008221    0.049796
0.40059      -1.709     -2.0225    0.016666     0.11476    0.016991    0.053369
0.46782     -1.3449       -1.62    0.032257    0.083576    0.024137     0.05207
0.52954    -0.68362     -1.0568    0.050446    0.066362    0.029333    0.045899
0.57891     0.19499    -0.54428    0.061489    0.056617    0.028359    0.033881
0.60554      1.1158    -0.20745    0.061489     0.05272    0.024137    0.020239
0.5854      1.9145   -0.056416    0.052395    0.048497    0.020564    0.009845
0.49576      2.4907   -0.029457    0.040377    0.041676    0.015042   0.0043233
0.3366      2.7899   -0.056091    0.031607    0.030633   0.0075714   0.0033489
0.12613      2.7801   -0.090521    0.029333    0.019264  0.00075039  0.00075039
-0.11196      2.4641    -0.12365    0.028684    0.017965  -0.0034721  -0.0080194
-0.34549      1.8986    -0.16165     0.02641    0.029983  -0.0050961   -0.022636
-0.54005      1.1941    -0.20745    0.016341    0.055318  -0.0060706   -0.038551
-0.67517     0.49316    -0.24935 -0.00022403    0.082927   -0.007045   -0.053168
-0.76157   -0.071032    -0.26527   -0.018413     0.10404  -0.0099683   -0.062587
-0.82816    -0.41435    -0.24415    -0.03238     0.11118   -0.015165   -0.065835
-0.88078    -0.52544    -0.18959   -0.036278     0.10047   -0.017439   -0.064536
-0.89864    -0.44846    -0.10221   -0.031081    0.075781   -0.018088   -0.061288
-0.84862    -0.26169   0.0091954   -0.025559    0.044924   -0.017114    -0.05804
-0.72292   -0.063561     0.13392   -0.027183    0.014717   -0.016789   -0.051219
-0.53746    0.066686     0.24858   -0.036278   -0.010293   -0.013866   -0.042774
-0.33153    0.099817     0.33205   -0.047646   -0.027183  -0.0037969   -0.034654
-0.14704    0.058241     0.38078   -0.051219   -0.036927    0.012443   -0.028482
-0.0028225  -0.0073698     0.40741   -0.045697   -0.039201     0.02641   -0.020687
0.097543   -0.059014     0.42722   -0.032055   -0.034978    0.029009   -0.011592
0.16185   -0.081751     0.43957    -0.01614   -0.031406    0.021863  -0.0047713
0.19726     -0.0824     0.43209  -0.0024977    -0.03238    0.011144  -0.0011985
0.21025   -0.077528     0.39702    0.008221     -0.0405  0.00042559  -0.0047713
0.20603   -0.080776     0.33563    0.016016   -0.053492   -0.007045   -0.012892
0.18751   -0.093769       0.258    0.021538   -0.070058  -0.0076946   -0.020687
0.15666    -0.10709     0.18102     0.02706   -0.075579  -0.0037969   -0.023285
0.11995    -0.10709      0.1245    0.033231   -0.048945   0.0036737   -0.015815
0.083576   -0.085648    0.097868    0.037454     0.01764    0.013743  -0.0031473
0.051745   -0.049595    0.098517    0.038428     0.11183    0.020239   0.0085458
0.026735  -0.0076946     0.11346    0.038428     0.20668    0.021538    0.013743
0.003024    0.030633     0.12548    0.040052     0.27424    0.018615    0.009845
-0.017439    0.049472     0.12385    0.036154      0.2986    0.014392      0.0014
-0.029457    0.042651     0.10761    0.021213     0.27261    0.013418  -0.0073698
-0.030106    0.012443    0.082602  -0.0031473     0.19693    0.015692   -0.012242
-0.021986   -0.036602    0.054668   -0.029782    0.080003    0.022837   -0.014516
-0.0050961   -0.099615    0.029009   -0.046347   -0.051868     0.03453   -0.014516
0.024137     -0.1701   0.0049729   -0.043423     -0.1714      0.0433   -0.014191
0.064737    -0.24513   -0.017439   -0.026209    -0.26884      0.0433    -0.01614
0.097218    -0.32243   -0.042449  -0.0041217    -0.35167    0.032257   -0.021661
0.11118    -0.38967    -0.06616    0.011794    -0.43547    0.014717   -0.028482
0.098842    -0.43124   -0.084999    0.014068    -0.53128  -0.0031473   -0.034978
0.067336    -0.44813   -0.096692   0.0026992    -0.64074   -0.019388   -0.042124
0.028684    -0.45398    -0.10741   -0.020037    -0.74501   -0.032055   -0.051219
-0.00087364    -0.45788    -0.11651   -0.044073    -0.80217   -0.042774   -0.059014
-0.0067202     -0.4621     -0.1191   -0.057065    -0.75962   -0.053817   -0.061288
0.017965    -0.45625    -0.11098   -0.054792    -0.59397   -0.061288   -0.055116
0.065062    -0.43157   -0.092794   -0.039851    -0.32373   -0.062587   -0.043423
0.11476    -0.38252   -0.072006   -0.019712  -0.0018481   -0.058689   -0.029457
0.14302    -0.31789   -0.050244  -0.0044465     0.31549   -0.052193   -0.019063
0.13425    -0.25098    -0.03238 -0.00022403     0.59028   -0.042774   -0.014516
0.088124    -0.19738   -0.020037  -0.0057458     0.81017   -0.033679   -0.012567
0.024786    -0.16782   -0.019712   -0.020037     0.97582   -0.031081  -0.0089938
-0.031406    -0.16263   -0.038227   -0.040825      1.0785   -0.039201  -0.0044465
-0.06551    -0.17757   -0.077203   -0.072331      1.0954   -0.056416  -0.0041217
-0.073631    -0.20225    -0.12917    -0.11943      1.0041   -0.073631   -0.007045
-0.061937    -0.23506    -0.17724    -0.17822     0.81017   -0.085973   -0.010943
-0.038551    -0.28053    -0.20843    -0.23246      0.5487   -0.086298   -0.013866
-0.0099683      -0.339    -0.21655    -0.26234     0.25345   -0.078178   -0.017114
0.019914    -0.39422    -0.19771    -0.26007   -0.057715   -0.067134   -0.020687
0.046223    -0.41825    -0.15451    -0.23279    -0.37408   -0.058365   -0.022311
0.063763    -0.39162   -0.097666    -0.19446    -0.66803   -0.052193   -0.021986
0.073182    -0.31594   -0.040175     -0.1597    -0.88532    -0.04927   -0.021986
0.072208    -0.19673   0.0062721    -0.13307    -0.97172   -0.044723   -0.023285
0.054668    -0.04862    0.035505    -0.11326    -0.91001   -0.036602   -0.021337
0.023487     0.11021    0.048172   -0.097017    -0.72162   -0.029457   -0.017764
-0.0015233     0.25215    0.040702   -0.086623    -0.45755   -0.028482   -0.014191
0.0014     0.35966    0.019914   -0.076554    -0.17042   -0.035303   -0.011592
0.045899     0.42105   0.0056225   -0.056741     0.09462   -0.038876  -0.0089938
0.1271     0.43599    0.015692   -0.023935     0.30347   -0.036278  -0.0021729
0.22747     0.40708    0.046873    0.022188     0.43762   -0.025234   0.0085458
0.31711      0.3444    0.084551    0.076106     0.49901  -0.0099683    0.019914
0.36064     0.26807     0.11411     0.12807     0.50648   0.0056225    0.029658
0.33887     0.20116     0.12645     0.16575     0.48601     0.01764    0.037129
0.25832     0.16088     0.12255     0.18394     0.45938    0.024461    0.041676
0.14691     0.15438     0.10209     0.18459      0.4308    0.029009    0.041027
0.042975     0.17517    0.072858      0.1742     0.39312    0.030957    0.038428
-0.027508     0.20051    0.042001     0.15601     0.33173    0.029009    0.034206
-0.059664     0.19856    0.013093     0.13295     0.22714     0.02641     0.03453
-0.073955     0.15926  -0.0076946     0.11443    0.072533     0.02641    0.039402
-0.095393    0.092346   -0.015165     0.10469     -0.1217    0.026085    0.044275
-0.13534    0.020564  -0.0083442    0.098193    -0.32406    0.019264    0.043625
-0.18959   -0.038551    0.003024    0.084551    -0.50627   0.0052977     0.03583
-0.23441   -0.074605   0.0075714    0.062464    -0.65276   -0.011267    0.022837
-0.2526   -0.086623   0.0020496    0.034855    -0.75767   -0.024585   0.0091954
-0.23344   -0.080451   -0.010618    0.008221    -0.82101   -0.027183 -0.00022403
-0.18536   -0.065835   -0.025884  -0.0073698    -0.83725   -0.018738  -0.0034721
-0.1334   -0.047646   -0.037252  -0.0076946    -0.80055  -0.0047713  -0.0028225
-0.097666   -0.027508   -0.042124   0.0036737     -0.7122   0.0072465 -0.00087364
-0.0837  -0.0031473   -0.036602    0.023162     -0.5852    0.013418  0.00075039
-0.081751     0.02706    -0.02426    0.042975    -0.43774    0.015042   0.0039985
-0.080451    0.063438   -0.011267    0.057917    -0.29482    0.011469    0.010495
-0.078503    0.098193  0.00010078    0.066037      -0.174   0.0049729    0.019914
-0.074605     0.12807    0.009845    0.070584     -0.0837 -0.00054884    0.028359
-0.069083     0.14984    0.019914    0.068635   -0.021337  -0.0063954    0.032257
-0.05804     0.16056    0.025761    0.063438    0.020564   -0.010618    0.029009
-0.039201     0.15958    0.022188    0.058566    0.048172   -0.014516    0.021863
-0.021337     0.14984   0.0085458    0.054993    0.064413   -0.018088    0.015692
-0.010618     0.13165  -0.0089938    0.053044    0.073182   -0.019712    0.015692
-0.0024977     0.11151   -0.022636    0.053694    0.081627   -0.019712    0.021538
0.016016    0.095269   -0.024909    0.059216    0.099492   -0.017439    0.033881
0.058241    0.082602   -0.018738    0.067336     0.13197   -0.012567    0.050446
0.12678    0.076106  -0.0060706    0.073832     0.17095  -0.0083442     0.06831
0.20928    0.078379   0.0072465    0.079679     0.20473  -0.0024977    0.079679
0.28788      0.0852    0.015367    0.081627     0.22682   0.0039985    0.079354
0.33433    0.087799    0.014717    0.079679     0.23721   0.0062721    0.066362
0.34115      0.0852   0.0072465    0.072208     0.23559   0.0046481    0.045249
0.32069    0.078055 -0.00022403    0.059865     0.22097  0.00075039     0.01894
0.28366    0.060515  -0.0076946    0.045249     0.19921  -0.0073698  -0.0063954
0.23039    0.021863   -0.018088    0.024461     0.17874   -0.023935   -0.026858
0.16283   -0.035953   -0.031406  -0.0015233      0.1677   -0.045047   -0.042449
0.085525   -0.095393   -0.045372   -0.026858      0.1703   -0.063237   -0.050569
-0.0034721    -0.13762   -0.058689   -0.045697     0.18589   -0.076554   -0.052843
-0.10774    -0.16035   -0.064536   -0.052843     0.21382   -0.082076   -0.050894
-0.2172     -0.1701   -0.061613   -0.048945      0.2515   -0.077853   -0.048945
-0.31334    -0.16945   -0.050569   -0.038227     0.28918   -0.070382    -0.04862
-0.37018    -0.14769   -0.039526   -0.026533     0.31516   -0.065835   -0.047321
-0.3757   -0.095393   -0.030106   -0.020037     0.31841   -0.065835   -0.042774
-0.3351   -0.018088   -0.030106   -0.018088      0.2973   -0.067134    -0.03173
-0.26722    0.067336   -0.044723   -0.018413     0.24793   -0.064861   -0.017439
-0.19511     0.13977   -0.069733   -0.019388     0.17062   -0.055116 -0.00054884
-0.13177     0.18524   -0.091495   -0.018738    0.077405   -0.037577     0.01764
-0.078503     0.20408   -0.098965   -0.011917  -0.0080194   -0.015165     0.03518
-0.03303       0.207   -0.089221   0.0039985   -0.067134   0.0095202     0.05207
0.00042559     0.19856   -0.067459    0.019914   -0.097017     0.02706     0.06084
0.014717     0.18037   -0.042774    0.025436   -0.097666    0.029333    0.057917
0.0052977     0.15114   -0.025559    0.019264   -0.073955    0.015367    0.044275
-0.022311     0.10794   -0.020362   0.0062721   -0.034004  -0.0047713    0.028034
-0.053817    0.058566   -0.022961  -0.0067202   0.0085458   -0.020037    0.015692
-0.073631   0.0072465   -0.017114   -0.013216    0.044924   -0.027508   0.0059473
-0.082725   -0.038876   0.0049729  -0.0096434     0.07708   -0.026209   -0.007045
-0.085648   -0.071357    0.044924   0.0026992     0.11508   -0.017439    -0.02361
-0.088572   -0.071357    0.092021     0.01894     0.15796  -0.0080194   -0.038551
-0.086623   -0.024585     0.12613    0.033231     0.19726  -0.0050961   -0.046347
-0.070058     0.06019     0.13002    0.041676     0.22454  -0.0096434   -0.046022
-0.036602     0.15309     0.10306    0.042651     0.22974   -0.016464   -0.039526
0.0062721     0.22292    0.052395    0.041027     0.20505   -0.023935   -0.028157
0.050121     0.25475   -0.020362     0.04395     0.15146   -0.031081   -0.013541
0.09397     0.25475    -0.11456    0.052395    0.083901    -0.03238 -0.00087364
0.15049     0.23754    -0.22272    0.064413    0.015042   -0.027508   0.0085458
0.22779     0.21577    -0.32925    0.078379   -0.046022   -0.015165    0.016016
0.31289     0.19109     -0.4176    0.085525   -0.097666   0.0017248    0.021863
0.37558     0.15991    -0.47899    0.083901    -0.13924     0.01764     0.02641
0.38954     0.11866    -0.50855    0.075131    -0.17075    0.027385    0.029658
0.3431    0.069285    -0.50303     0.06019    -0.19219    0.024786    0.027385
0.24793    0.018615    -0.43157    0.038428    -0.20388    0.011144    0.014392
0.12905   -0.031081    -0.21395    0.010495    -0.20193   -0.007045  -0.0034721
0.003024   -0.077203     0.19888   -0.020037    -0.18114   -0.019063   -0.017764
-0.12625     -0.1191     0.70916   -0.045372    -0.13534   -0.020687   -0.022961
-0.2565    -0.15678       1.122   -0.055441   -0.059014   -0.011267   -0.022636
-0.37798    -0.19348      1.2782    -0.04927    0.047523   0.0049729   -0.020362
-0.47217    -0.22759      1.1347   -0.034978     0.16868    0.021863    -0.01614
-0.51569     -0.2513     0.77639    -0.02426     0.27359    0.032906  -0.0057458
-0.50043    -0.26007     0.36064   -0.025884     0.33303    0.036804   0.0095202
-0.43189    -0.25455    0.029658   -0.042449     0.33952    0.037778    0.023487
-0.32795    -0.24188    -0.14639   -0.069733     0.30607    0.038428    0.029333
-0.2081    -0.22856    -0.18179    -0.10026       0.258    0.036479    0.024137
-0.094418    -0.21752    -0.14087    -0.11975     0.20798    0.028359    0.014068
-0.0073698    -0.20875    -0.09117    -0.12333     0.15406    0.012443      0.0014
0.033881    -0.18634   -0.071032    -0.11488      0.0865  -0.0057458   -0.012892
0.03453    -0.12592   -0.087597    -0.10449   0.0026992   -0.022636   -0.031081
0.017965   -0.022961    -0.11878   -0.096692   -0.094093    -0.03173   -0.046671
0.0039985    0.096569    -0.13534    -0.09182    -0.19413   -0.030106   -0.050569
-0.0054209     0.19531     -0.1269    -0.08305    -0.27956   -0.017764   -0.039526
-0.012892      0.2489    -0.10221   -0.068434     -0.3338  -0.0011985   -0.017439
-0.017764     0.25865   -0.076879   -0.051868    -0.35232    0.013418   0.0043233
-0.0093186     0.24695   -0.056416   -0.036602    -0.34322    0.019914    0.020239
0.023812     0.23136   -0.044723   -0.022961    -0.31626    0.018615    0.028684
0.082277     0.21772     -0.0405   -0.010618    -0.28151    0.010495    0.032257
0.15471     0.19693   -0.039851      0.0014    -0.24058  -0.0031473    0.032906
0.21837      0.1625   -0.039851    0.013743    -0.19641   -0.015165     0.03453
0.25475     0.11866   -0.040175     0.02641    -0.15288   -0.018088    0.033881
0.26027    0.074806   -0.040825    0.036804    -0.11651   -0.012242    0.031932
0.2502    0.045249   -0.041799      0.0433   -0.096042  0.00042559    0.028034
0.23786    0.032582   -0.046022    0.049147   -0.090521    0.013093    0.021538
0.23364    0.030308   -0.053492     0.06084   -0.094743    0.020239    0.013743
0.24046    0.031282   -0.056416    0.078055    -0.10189    0.023487   0.0065969
0.25475    0.031282    -0.04927    0.098517    -0.10774     0.02706   0.0052977
0.26482     0.03518   -0.030431     0.11898    -0.11196    0.034206    0.009845
0.26319    0.037778  -0.0073698     0.13847    -0.11651    0.047847    0.016016
0.25215    0.029009    0.017965     0.15568    -0.12073    0.066037    0.023162
0.23331  -0.0021729    0.038753      0.1703    -0.12105    0.081952    0.028359
0.20343   -0.064536    0.049147     0.18297    -0.11293    0.090072    0.033881
0.15373    -0.17465    0.042326     0.18979   -0.086298    0.092346    0.038428
0.08585    -0.33283    0.015692     0.18719   -0.034978    0.091047    0.038103
0.009845    -0.48873   -0.030106     0.17257    0.038103    0.087799    0.033881
-0.060638    -0.56669   -0.090196     0.14561     0.11898    0.083576    0.023812
-0.11553    -0.53258    -0.15288     0.10826     0.18881    0.074157   0.0085458
-0.14444    -0.42312    -0.20745    0.062464     0.23331    0.055318   -0.011592
-0.14801    -0.30327    -0.25195    0.012443     0.24273    0.028684    -0.03173
-0.1334    -0.20875    -0.28118   -0.034329     0.21902   0.0010752   -0.053168
-0.10481    -0.13112    -0.28995   -0.072331     0.16608   -0.024585   -0.071682
-0.064861   -0.043748    -0.27761   -0.097991    0.096244   -0.039526     -0.0837
-0.012567    0.070909    -0.24675    -0.11228    0.024137   -0.038227   -0.080451
0.057917     0.20863    -0.20128    -0.11683   -0.039851   -0.026533    -0.05804
0.14237       0.334    -0.14216    -0.11391   -0.096367   -0.011917   -0.025559
0.22065     0.40546   -0.072006    -0.11293    -0.14769  -0.0054209 -0.00022403
0.26287     0.40416   0.0095202     -0.1204    -0.20031   -0.012242   0.0085458
0.25507     0.33758     0.09397    -0.13762    -0.26722   -0.029457   0.0026992
0.20505     0.23201     0.16673    -0.16198    -0.35459   -0.053492   -0.010293
0.13782     0.12288     0.21025    -0.18244    -0.45073   -0.075255   -0.021337
0.080653      0.0433     0.21058    -0.18569    -0.53421   -0.088896   -0.026858
0.048822    0.012119     0.16835    -0.16685    -0.58228   -0.094418   -0.026858
0.045574    0.028359     0.10144    -0.13145    -0.58325   -0.097666   -0.023285
0.059216    0.072858    0.034855   -0.088896    -0.54265    -0.10384   -0.021337
0.06961     0.11021   -0.013866   -0.054142    -0.47867    -0.11326   -0.025884
0.052395     0.11346   -0.038227   -0.034654    -0.41111    -0.12105   -0.034004
-0.0080194    0.076106   -0.045047   -0.031406    -0.35199    -0.12787   -0.042124
-0.10059     0.01017   -0.044073   -0.038227    -0.30165    -0.13112   -0.048296
-0.19381   -0.062912   -0.041475   -0.048945    -0.25162    -0.12852   -0.047646
-0.25195    -0.11683   -0.038876   -0.055766    -0.18861     -0.1204   -0.039201
-0.2526    -0.13437   -0.031406   -0.051544    -0.11163    -0.10709   -0.026209
-0.20128    -0.11261   -0.021986   -0.037902   -0.032055   -0.089546   -0.013866
-0.12722   -0.068758   -0.014516   -0.020037    0.037454   -0.073955  -0.0073698
-0.078503   -0.027183   -0.011267  -0.0044465     0.09462   -0.063237  -0.0063954
-0.089221  -0.0050961   -0.010293   0.0052977     0.14789   -0.058365   -0.008669
-0.15776  -0.0031473   -0.008669    0.011794     0.20765   -0.058689   -0.010618
-0.2513    -0.01484  -0.0044465    0.022188     0.27521   -0.057715  -0.0089938
-0.32795   -0.033679   0.0023744    0.033881      0.3405   -0.052518  -0.0041217
-0.36109   -0.052193   0.0088706    0.039727     0.37915   -0.046022   0.0039985
-0.34712   -0.069408    0.010819    0.035505      0.3733   -0.042124    0.015042
-0.301     -0.0837   0.0043233    0.024786     0.32069   -0.039201    0.027385
-0.25162   -0.099615  -0.0076946    0.016016     0.23526   -0.039526     0.03583
-0.22142     -0.1178   -0.018413    0.018615     0.14302   -0.042774    0.034855
-0.212    -0.13924   -0.022961    0.031607    0.082602   -0.044723    0.022188
-0.20843    -0.16198   -0.019388    0.050446    0.087149   -0.044723   0.0075714
-0.19543    -0.18049   -0.008669    0.069285     0.15698   -0.045372  0.00010078
-0.16588    -0.18991   0.0065969    0.080978      0.2593   -0.045047  -0.0024977
-0.12852    -0.17952    0.019264    0.088124     0.35219   -0.044073  -0.0044465
-0.092145    -0.14444    0.023812    0.093321     0.41391   -0.040175   -0.010293
-0.060963   -0.086623    0.023487    0.097868     0.43664   -0.034654   -0.019712
-0.040175   -0.025884     0.01764    0.098517      0.4256   -0.028482   -0.029132
-0.031081  -0.0060706   0.0095202    0.092671     0.38727   -0.022311   -0.034978
-0.031081   -0.073955   0.0052977    0.080978     0.32946   -0.016789   -0.035303
-0.034329    -0.24805   0.0085458    0.063763     0.25507   -0.011592   -0.025234
-0.040825     -0.5053    0.016341    0.047523      0.1703  -0.0028225  -0.0054209
-0.040825    -0.78431    0.024137    0.038753     0.07708   0.0062721    0.015692
-0.027183     -1.0075    0.029983    0.037778   -0.028482    0.012119    0.030957
0.0043233     -1.1036    0.034206    0.036479    -0.16328    0.011794    0.034206
0.049796     -1.0162    0.036479    0.029333    -0.34225   0.0039985    0.023487
0.10177    -0.72032     0.03518    0.012443     -0.5485  -0.0050961   0.0062721
0.15049    -0.25162    0.021863   -0.011592    -0.72552   -0.011917   -0.015165
0.18362     0.29145  -0.0031473   -0.039526    -0.80997   -0.017764   -0.037577
0.19758     0.78808   -0.027833   -0.062912     -0.7645   -0.026533   -0.055441
0.19466       1.173    -0.03303    -0.07428    -0.60437   -0.038227   -0.064536
0.17712      1.4124   -0.015815   -0.074605    -0.38187   -0.052518   -0.063886
0.14561      1.4874    0.011794   -0.065186    -0.15743   -0.062912   -0.057715
0.099817        1.39    0.032582   -0.047321    0.024137    -0.06551   -0.050894
0.05142      1.1515    0.036804   -0.021661     0.14042   -0.058365   -0.044723
0.029658      0.8394    0.032257    0.008221     0.18816   -0.044398   -0.039526
0.056292     0.53116    0.029009    0.036479     0.18751   -0.024909   -0.032055
0.13425     0.28073    0.031607    0.057917     0.16803  -0.0011985   -0.019712
0.24013     0.10826    0.037778    0.073507     0.14886    0.020888  -0.0044465
0.33563   0.0033489    0.046548    0.080978     0.13879    0.039078    0.010495
0.3863   -0.051868     0.05272    0.081952     0.13684     0.05142    0.020888
0.3746   -0.072656    0.051745    0.073507     0.13782    0.057917    0.025761
0.29697   -0.068109    0.042001    0.059541     0.13652    0.057592    0.024461
0.1625   -0.045372    0.026735    0.046223     0.12905    0.049796     0.01764
0.0020496   -0.018088    0.010819    0.040377     0.11801    0.039078   0.0056225
-0.15061  -0.0057458 -0.00054884    0.042651     0.10696    0.028359  -0.0044465
-0.27014    -0.02426  -0.0083442    0.047198    0.098517    0.022512  -0.0054209
-0.35329   -0.071682   -0.017114    0.044924    0.092996    0.024461   0.0065969
-0.41078    -0.12495   -0.028807    0.031607    0.087799    0.030957    0.023812
-0.45073    -0.15126   -0.040825   0.0085458    0.077405    0.038428    0.041027
-0.47087    -0.14087   -0.050894   -0.013866    0.048822    0.041027    0.054344
-0.45918    -0.09994   -0.055116   -0.028157  -0.0096434    0.034206    0.062139
-0.40981   -0.044723   -0.047971    -0.03238   -0.091495    0.024786    0.061489
-0.32666   0.0059473   -0.028482   -0.030756    -0.17627    0.019914    0.056292
-0.22532     0.03453  -0.0041217   -0.028482    -0.22889    0.018615    0.049147
-0.12592    0.032582    0.017316    -0.03173    -0.21979    0.016341    0.042001
-0.045047  -0.0076946    0.029983   -0.043099    -0.14184   0.0095202    0.034855
0.012443   -0.087272    0.030633   -0.052843   -0.015165  -0.0037969    0.030957
0.056617    -0.18731    0.020888    -0.04992      0.1258   -0.021661    0.027385
0.10047    -0.26787   0.0075714   -0.029782     0.24371   -0.035303    0.022837
0.14464    -0.29255  -0.0011985  0.00010078     0.31354   -0.039526    0.019914
0.18654     -0.2487  -0.0015233    0.034206     0.32946   -0.034654    0.020888
0.22682    -0.15711   0.0033489     0.06831      0.2999   -0.024585    0.024786
0.27196   -0.078178    0.011794    0.095269     0.23234   -0.013216    0.030633
0.31906   -0.088247    0.022837     0.10436     0.14399  -0.0011985    0.036479
0.35966    -0.21785     0.03583    0.090397    0.064413    0.009845    0.041027
0.38792    -0.43124    0.043625    0.056292    0.027709    0.015692    0.043625
0.40319    -0.66186    0.045574     0.01829    0.057267    0.012768    0.041676
0.40838    -0.83758    0.041676   -0.011917     0.15406   0.0039985    0.037454
0.39896    -0.90481    0.036154   -0.027183     0.28431  -0.0067202    0.032582
0.36616    -0.84375    0.030633   -0.027183     0.40254   -0.013866     0.02706
0.30347    -0.66543    0.023162   -0.019388     0.46945   -0.015815    0.022837
0.2122    -0.39519     0.01017  -0.0083442     0.46555   -0.014191    0.016666
0.098193   -0.063237  -0.0089938  0.00075039     0.39474   -0.012242   0.0059473
-0.028482     0.27781   -0.035303      0.0014     0.28918   -0.012242  -0.0060706
-0.15516     0.56072   -0.067134   -0.011267     0.19336   -0.017764   -0.020037
-0.26559     0.74521   -0.096367    -0.03238     0.14302   -0.027183   -0.034978
-0.34322     0.82998    -0.11423   -0.054467     0.14172   -0.038227    -0.04927
-0.37505     0.83291    -0.11488   -0.070707       0.169   -0.047971   -0.060963
-0.35654     0.77249   -0.098965   -0.075579     0.18297   -0.052843    -0.06551
-0.29612     0.66498   -0.080127   -0.070058     0.14432   -0.052843   -0.061937
-0.2146     0.52921   -0.070382   -0.056091    0.041027   -0.046996   -0.054792
-0.13567     0.39084   -0.073955   -0.039526    -0.10871   -0.039851   -0.047971
-0.082725     0.26482   -0.088247   -0.023285    -0.27923   -0.038551   -0.043423
-0.064536     0.15568    -0.10384  -0.0080194    -0.44099   -0.040175   -0.042774
-0.078178    0.058241    -0.11358   0.0046481    -0.56506   -0.041475   -0.043099
-0.11163   -0.038227    -0.11618    0.016666    -0.64367   -0.040175   -0.040175
-0.15386    -0.13957    -0.11228     0.02706    -0.68719   -0.038551   -0.033354
-0.18991    -0.23474    -0.10416    0.031607    -0.71155   -0.036927   -0.021661
-0.20875    -0.30424   -0.086623    0.027709    -0.72649   -0.033679   -0.013216
-0.20193     -0.3338   -0.034978    0.019589    -0.73104   -0.030106   -0.012242
-0.17237    -0.32536    0.084876   0.0088706    -0.71318   -0.025559   -0.017114
-0.1321    -0.29255     0.28236  -0.0018481    -0.66251   -0.017439   -0.025234
-0.092469     -0.2513     0.52661  -0.0083442    -0.57903  -0.0076946   -0.028807
-0.063886     -0.2068     0.75106   -0.008669    -0.47477 -0.00022403   -0.025884
-0.04862    -0.15126      0.8956  -0.0050961    -0.36596   0.0059473   -0.018738
-0.030106    -0.06616     0.95179  -0.0015233    -0.26039    0.015367   -0.012242
0.011469    0.048822     0.96348   0.0033489    -0.16328    0.028359  -0.0073698
0.088773      0.1703       1.006    0.014392   -0.073306    0.041351  -0.0034721
0.18946     0.26157      1.0798    0.027385   0.0091954    0.050771  0.00042559
0.27619     0.29633     0.96803    0.037778    0.083576    0.053044   0.0049729
0.31127     0.27294     0.43534    0.037778     0.14464    0.046548   0.0065969
0.28333     0.21447     -0.4686    0.023162     0.18784    0.033556   0.0059473
0.21512     0.15731     -1.3988 -0.00022403     0.21285    0.019589   0.0020496
0.13652     0.12093     -2.0218   -0.022311     0.22324    0.010819  -0.0041217
0.075131     0.10534     -2.1709   -0.035953     0.22292   0.0056225  -0.0083442
0.047523    0.095269     -1.8802   -0.037902     0.20603   0.0072465  -0.0089938
0.050121    0.068635      -1.329   -0.029782      0.1703    0.010819  -0.0044465
0.062139     0.01017    -0.73689   -0.017439     0.12353    0.011469   0.0033489
0.056942   -0.083375    -0.27014  -0.0050961     0.07708   0.0091954    0.015692
0.021213    -0.19478 -0.00087364   0.0065969    0.040377   0.0088706    0.029009
-0.034329     -0.2945    0.092346     0.01894    0.017316    0.012119    0.041351
-0.084349    -0.35134    0.079679    0.030957  -0.0037969    0.013418    0.047847
-0.10286    -0.33867    0.035505    0.036804   -0.027833   0.0065969    0.048172
-0.079477    -0.25033    0.015692    0.037454   -0.042449  -0.0063954    0.039727
-0.026209    -0.10806    0.040052    0.033231   -0.031406    -0.01614    0.023487
0.029983     0.04395    0.094945    0.027709   0.0065969   -0.022311   0.0069217
0.065712     0.15991     0.14789    0.023162    0.058566   -0.024909  0.00010078
0.075781     0.21317     0.17095    0.021538     0.10729   -0.025234   0.0039985
0.072208     0.20311     0.15991    0.023162     0.13717   -0.021337    0.015692
0.06831     0.15211     0.12937    0.025436     0.13847   -0.015165    0.029658
0.06831     0.09397     0.10047    0.022188     0.11573  -0.0080194    0.040377
0.072208    0.050771      0.0865    0.010495    0.076106  0.00010078    0.042651
0.07773    0.027385    0.086175  -0.0076946    0.032257   0.0091954    0.040702
0.075781     0.01829    0.087799   -0.026858 -0.00022403     0.01764    0.036479
0.061814    0.012768    0.084876   -0.041475    -0.01614     0.02706    0.025436
0.033231   0.0069217    0.081627   -0.050894   -0.015165    0.034855   0.0075714
-0.0044465  -0.0024977    0.078055   -0.053817  -0.0057458     0.03518  -0.0083442
-0.046022   -0.017439    0.073832   -0.052518   0.0046481    0.022837   -0.017439
-0.081751   -0.037252    0.066037   -0.051544   0.0023744  -0.0011985   -0.018413
-0.10059    -0.05739    0.054344   -0.058365   -0.023285   -0.028482   -0.016789
-0.099615   -0.073631    0.042001   -0.071682   -0.070058   -0.051544   -0.013216
-0.078503   -0.078503    0.034855   -0.081751      -0.123   -0.061937  -0.0080194
-0.043748   -0.075255    0.037129   -0.080776    -0.16588   -0.061288  -0.0011985
-0.0011985   -0.066485    0.049796    -0.06616    -0.18049   -0.048945   0.0059473
0.038103   -0.054792    0.069285   -0.040175    -0.15938   -0.028157    0.013743
0.065062   -0.038876    0.087474   -0.010618    -0.11423  -0.0096434    0.024137
0.079354   -0.019712    0.097543    0.015692   -0.062262  -0.0044465     0.03453
0.084551  0.00075039    0.096569    0.033231   -0.025234   -0.010943    0.041027
0.0852    0.022512    0.086824    0.039727   -0.012242   -0.023935    0.037129
0.083576    0.044924     0.07773    0.042326   -0.018088   -0.034329     0.02641
0.089748    0.071234    0.078055     0.04395   -0.026209   -0.036278    0.012119
0.11573     0.10599     0.10664    0.048497   -0.018738   -0.031081  -0.0011985
0.16413     0.14789     0.18719    0.057592     0.01829   -0.018738  -0.0050961
0.22194     0.19239     0.32231    0.070909    0.081952   0.0039985  0.00075039
0.26449     0.22877     0.48179    0.084551     0.15861    0.033556    0.014068
0.27196     0.24663     0.62016    0.099492     0.23201    0.057917    0.027709
0.24078     0.24436     0.70006     0.11476     0.29665    0.071234    0.038753
0.18297     0.22357     0.70493      0.1297     0.35576    0.071234    0.045899
0.11443     0.18362      0.6351     0.13782     0.41585    0.058241    0.047523
0.042975     0.11995     0.50842     0.12807     0.46587    0.037454    0.043625
-0.041799    0.032257     0.35512    0.096244     0.48796    0.014068    0.033231
-0.14606   -0.069733     0.18687    0.048822      0.4636  -0.0093186    0.011794
-0.26202    -0.17075   -0.046996  -0.0028225      0.3759   -0.033679   -0.016464
-0.36271    -0.24838    -0.43222   -0.047646     0.21935   -0.053492   -0.041475
-0.41468    -0.27761    -0.94574   -0.074605   0.0088706   -0.063561   -0.053817
-0.39909    -0.24253     -1.4245   -0.073631    -0.21167   -0.068434   -0.050894
-0.32308    -0.14476      -1.671    -0.04862    -0.39909    -0.07428   -0.036927
-0.21102  -0.0073698     -1.5752   -0.016464    -0.53161   -0.080776   -0.018738
-0.097991     0.13425     -1.1721 -0.00022403    -0.60664   -0.086623  -0.0034721
-0.01549     0.24663    -0.61476  -0.0031473    -0.63035   -0.092794   0.0049729
0.026735     0.30607   -0.090196   -0.021661    -0.60014    -0.10221   0.0062721
0.033881     0.30964     0.26937   -0.042774      -0.504    -0.11521   0.0033489
0.018615     0.26125     0.43924   -0.055441     -0.3377    -0.13047  -0.0034721
-0.0044465     0.16185     0.46717    -0.05739    -0.11748    -0.14444   -0.013541
-0.029782     0.01017     0.40806   -0.055116     0.11833    -0.14736   -0.025559
-0.056091     -0.1701     0.30477   -0.056741     0.31809    -0.14087   -0.034004
-0.088247    -0.33607     0.19336    -0.06616     0.44379     -0.1282   -0.029457
-0.13599    -0.44586     0.11054   -0.078503     0.48536    -0.11098   -0.012567
-0.19803    -0.47802    0.081627   -0.086948     0.45288   -0.092145   0.0085458
-0.26299    -0.44099     0.10729   -0.088572     0.36453   -0.076554    0.017316
-0.31659    -0.36661     0.16153   -0.084999     0.23948   -0.062262    0.010495
-0.34679    -0.29255     0.20473   -0.083375     0.10209   -0.045372  -0.0050961
-0.33965    -0.24188     0.21415   -0.084024   -0.019388   -0.027183   -0.018088
-0.29028    -0.21492     0.19369   -0.088572    -0.10644  -0.0073698   -0.024909
-0.20908    -0.19576     0.15666   -0.097341    -0.15711    0.012768   -0.028482
-0.11391    -0.16425     0.11866    -0.10774    -0.18244    0.030633   -0.026209
-0.020037    -0.11358    0.084551    -0.11163    -0.19738    0.046873   -0.013541
0.061165   -0.046347    0.061489   -0.098316    -0.20843     0.06019   0.0043233
0.1206    0.026735    0.058566   -0.066485    -0.21557    0.062789     0.01764
0.14594    0.092346    0.071883   -0.026533    -0.21037    0.053044    0.020564
0.131     0.13425    0.089748    0.010495    -0.18764    0.036804    0.010495
0.087149     0.14367     0.10079    0.039078    -0.15223    0.020239  -0.0063954
0.0433     0.13327    0.097543    0.056942    -0.11715   0.0095202   -0.018738
0.029333      0.1219    0.079354    0.064413   -0.090845   0.0062721   -0.020687
0.064088     0.11995    0.053044    0.061165   -0.072006    0.014717  -0.0093186
0.15309     0.13457    0.027385    0.054668   -0.058365    0.030633    0.010819
0.28691     0.16056    0.012443    0.058241   -0.047646    0.045899    0.028684
0.42885     0.18557   0.0088706    0.071883   -0.038227     0.05207     0.03518
0.53473     0.19726    0.012443    0.090072   -0.030756    0.045899    0.025436
0.57371     0.18979    0.016016     0.10436   -0.029132    0.032582   0.0062721
0.55032     0.16185    0.016341     0.10826   -0.035303    0.016991   -0.012567
0.48959     0.11801    0.013418     0.10404   -0.044723   0.0052977   -0.023285
0.41488    0.064088   0.0078962    0.098517   -0.052193  -0.0018481   -0.023935
0.32718    0.011794   0.0043233    0.096893    -0.05804 -0.00054884   -0.018738
0.21317   -0.025559   0.0020496    0.098193   -0.062262   0.0056225    -0.01484
0.059216   -0.047971  -0.0057458    0.096893    -0.06681     0.01017   -0.012892
-0.13729   -0.064211   -0.021661    0.088124   -0.071357    0.009845   -0.014516
-0.36271   -0.084349   -0.045372    0.069934   -0.072006   0.0043233   -0.021012
-0.5852    -0.11715   -0.071357     0.04395   -0.059664  -0.0054209    -0.03173
-0.75865     -0.1636   -0.093769    0.015692   -0.032055   -0.018088   -0.045697
-0.834    -0.20745    -0.10481  -0.0093186   0.0033489   -0.029132   -0.060638
-0.78723    -0.22402    -0.10351   -0.028482    0.033231   -0.037902   -0.073306
-0.63912    -0.19511   -0.093769   -0.041799    0.049147   -0.042774   -0.079802
-0.44326     -0.1269   -0.084024   -0.051219    0.059216   -0.043748   -0.078503
-0.24903   -0.040825   -0.081101   -0.054792    0.076431   -0.040175   -0.067134
-0.085648    0.036479    -0.10156   -0.046671     0.10826    -0.03303   -0.047971
0.03453    0.074482    -0.15841   -0.026209     0.15373    -0.02361   -0.031081
0.11248    0.048497    -0.24968  0.00010078     0.20311   -0.017439   -0.017114
0.15146   -0.035303    -0.35654    0.024786     0.24078   -0.013866   -0.010943
0.15438    -0.13892    -0.45333    0.037454       0.258  -0.0096434   -0.014191
0.12807    -0.22791    -0.51764    0.039078     0.25378  -0.0060706   -0.023285
0.087474    -0.29515    -0.53681    0.033231     0.22682  -0.0024977   -0.035953
0.042651    -0.33867    -0.51667    0.027709     0.18134   0.0026992   -0.046671
0.0059473     -0.3325    -0.43709    0.023162      0.1258   0.0095202   -0.050569
-0.018738    -0.23701    -0.21947     0.01829    0.073182    0.015042    -0.04992
-0.035303   -0.041475     0.18751    0.014717    0.033231    0.016991   -0.042774
-0.040825     0.21188     0.68934     0.01764    0.012443    0.017965   -0.029457
-0.035628     0.44574       1.095    0.024461    0.016016    0.019914   -0.011917
-0.018738     0.59417      1.2425    0.034855    0.041676    0.023812    0.008221
0.0072465     0.64127      1.0898    0.045574    0.079029    0.030633    0.029009
0.036479     0.61626      0.7215    0.054019     0.11671    0.039078    0.049472
0.059865     0.55974     0.29015    0.059865     0.14042    0.045899    0.065712
0.07708     0.49543   -0.061613    0.064088     0.14042    0.046223    0.078379
0.092671     0.43502    -0.25617    0.065712     0.11508      0.0433    0.089098
0.11248     0.38013    -0.29223    0.068635    0.071558    0.038103    0.095594
0.13457     0.32848    -0.22532    0.073832    0.028684    0.032257    0.096569
0.15633     0.27619     -0.1256    0.083901    0.019589    0.025436    0.092021
0.1677     0.21902   -0.047321    0.096244    0.068635    0.016666    0.083576
0.1625     0.15926   -0.008669     0.10242     0.16543   0.0085458    0.074806
0.14626     0.10469   0.0010752     0.10177     0.26839   0.0043233    0.065062
0.1206    0.063438  -0.0034721     0.09462       0.334   0.0036737    0.054668
0.091696    0.037454   -0.018738    0.082277      0.3457   0.0026992    0.042326
0.070909     0.02706   -0.040825    0.071883     0.30412  0.00075039    0.030633
0.070584    0.030308   -0.052193    0.067336      0.2148  -0.0031473    0.022837
0.092671    0.045249   -0.032055     0.06831    0.092671  -0.0063954    0.021863
0.11736    0.063763    0.015692     0.06896   -0.036927  -0.0099683    0.024786
0.12515    0.072858    0.062464    0.059865    -0.15288   -0.018088    0.026085
0.10696    0.064737    0.082602    0.041676     -0.2487   -0.028807    0.025111
0.065387    0.033881    0.066686    0.011794    -0.33607   -0.039851    0.019264
0.014068    -0.01549    0.021538   -0.025234    -0.44294   -0.052193    0.008221
-0.029782   -0.070058   -0.034654   -0.059664    -0.59852   -0.060963  -0.0041217
-0.05804    -0.11748   -0.081751   -0.081751     -0.8025   -0.065186   -0.011917
-0.061937    -0.14931    -0.11196   -0.088247     -1.0146   -0.064861   -0.011917
-0.044398    -0.16425    -0.12657   -0.084349     -1.1699   -0.061937  -0.0067202
-0.0099683    -0.16328    -0.13015   -0.075255      -1.217   -0.061288  -0.0024977
0.030633    -0.15126    -0.12787   -0.064211     -1.1435   -0.063886  -0.0024977
0.065062    -0.13404     -0.1217   -0.055116    -0.97952   -0.070382  -0.0063954
0.08585    -0.11586    -0.11326   -0.051868    -0.77814   -0.076879   -0.010293
0.089748   -0.099615    -0.10384   -0.051868     -0.5878   -0.081751   -0.012567
0.078055   -0.089221   -0.092145   -0.056741    -0.43384   -0.081426   -0.013866
0.056292     -0.0824    -0.08305    -0.06681    -0.31594   -0.077528   -0.016789
0.033556   -0.075579   -0.077853    -0.07428     -0.2159   -0.068758   -0.021337
0.01894   -0.069408   -0.081751   -0.072331    -0.11358   -0.054142   -0.025884
0.013743   -0.065186   -0.090521   -0.059339  -0.0037969   -0.038551   -0.027833
0.010495   -0.063561   -0.097017    -0.04115     0.11086   -0.022961   -0.021986
0.003024   -0.068758   -0.094093   -0.022961     0.22454  -0.0083442   -0.010618
-0.0093186   -0.078503   -0.085648  -0.0057458     0.32946   0.0017248   0.0026992
-0.025234   -0.090521   -0.075255   0.0033489      0.4217   0.0069217     0.01017
-0.040175    -0.10026   -0.071032   0.0072465     0.49901   0.0046481    0.011144
-0.050244    -0.10449   -0.071032    0.010819     0.56786  -0.0015233    0.008221
-0.053492    -0.10611   -0.070058    0.016341      0.6338  -0.0041217    0.003024
-0.051868    -0.10806    -0.06616    0.023487     0.70071  -0.0021729 -0.00054884
-0.043423    -0.11066   -0.057065    0.029983     0.75885   0.0052977  -0.0028225
-0.021661    -0.11033   -0.044398    0.031932     0.79198    0.014068  -0.0047713
0.019914    -0.10611   -0.028482    0.028034     0.77964    0.020239  -0.0057458
0.080653   -0.094418   -0.016789    0.019589     0.70233    0.020239  -0.0063954
0.14626   -0.081751   -0.011592   0.0091954     0.55942    0.017316  -0.0076946
0.20408   -0.069408   -0.018088  0.00010078     0.37493    0.012119   -0.013216
0.23721   -0.064211   -0.031081   -0.007045     0.18394   0.0062721   -0.025559
0.23494   -0.086623   -0.044073   -0.012892     0.01829   0.0010752   -0.039201
0.19693    -0.16198   -0.046671    -0.01549    -0.10384 -0.00022403    -0.04992
0.13457    -0.30294   -0.037252   -0.018738     -0.1714    0.003024   -0.054467
0.066686     -0.5014   -0.017764   -0.025884    -0.18569    0.008221   -0.055766
0.01017    -0.72065   0.0036737   -0.034329    -0.15841    0.011144   -0.059664
-0.027183    -0.91098     0.01829   -0.039526    -0.11001   0.0091954   -0.065186
-0.044398     -1.0078     0.01829   -0.037577   -0.061613   0.0036737   -0.070058
-0.046022    -0.94606  0.00042559   -0.026209   -0.027833  -0.0047713   -0.069083
-0.0405    -0.69141    -0.03238   -0.008669   -0.019712   -0.014516   -0.059014
-0.030106    -0.27631   -0.071032   0.0039985   -0.045047   -0.022311   -0.045047
-0.015165     0.20473    -0.10221   0.0059473    -0.10774    -0.02361   -0.031406
0.0052977     0.65199    -0.11293  -0.0083442     -0.2016   -0.022311   -0.019712
0.026085      1.0067    -0.10319   -0.033354    -0.31431   -0.020687   -0.010943
0.039727      1.2308   -0.077203   -0.062587    -0.42994   -0.024909  -0.0054209
0.031282       1.288   -0.047971   -0.086948    -0.52771    -0.03303  -0.0050961
-0.0047713      1.1746   -0.022961    -0.10221    -0.58293   -0.042124   -0.010943
-0.05804      0.9271  -0.0089938    -0.10416     -0.5813   -0.051544   -0.020037
-0.10676     0.61691  -0.0057458   -0.096692    -0.52186   -0.059664   -0.027833
-0.1321     0.32491  -0.0063954   -0.086298     -0.4228   -0.063237   -0.026858
-0.13534     0.11833  -0.0050961   -0.075904    -0.30424   -0.062587   -0.019388
-0.13957    0.013093  0.00010078   -0.068758    -0.17952   -0.059664   -0.012242
-0.17692   -0.021337   0.0046481    -0.06551   -0.053817   -0.052843   -0.012242
-0.25162   -0.030431 -0.00087364   -0.064861    0.064737   -0.036927    -0.01484
-0.33835   -0.041799    -0.01614    -0.05739     0.16445   -0.015165   -0.013866
-0.39616   -0.065835   -0.028807   -0.038551     0.23656   0.0039985   -0.007045
-0.39746    -0.10384   -0.029782  -0.0076946     0.27879     0.01764   0.0010752
-0.34614    -0.15646   -0.017114    0.031282     0.30022    0.026085   0.0088706
-0.26299    -0.22402   0.0036737    0.069285     0.32231    0.028684    0.012443
-0.16945    -0.29255    0.024461    0.096244     0.36324    0.028359    0.014068
-0.080451    -0.32893    0.039727     0.10436      0.4256    0.025761    0.016991
-0.0037969    -0.31561    0.046548    0.095919     0.49251    0.023487    0.023812
0.049147    -0.27209    0.042326     0.07773     0.53766    0.023162    0.029983
0.067011    -0.23181    0.028684    0.055643     0.53798    0.022837    0.028034
0.040052     -0.2094     0.01829     0.03453     0.47919     0.01829    0.018615
-0.022961    -0.18796     0.01764    0.011794     0.35447   0.0056225   0.0033489
-0.095393    -0.16425    0.026735   -0.010293      0.1755   -0.013866    -0.01549
-0.14834    -0.15678    0.041027   -0.031081   -0.024585   -0.031081   -0.035303
-0.15483    -0.17302    0.053694   -0.045047     -0.2133   -0.041475    -0.04992
-0.097017    -0.19706    0.057592   -0.047646    -0.36823   -0.041475   -0.052518
0.0072465    -0.20388    0.055318   -0.042124    -0.47737    -0.03173   -0.041475
0.11476    -0.18407    0.053694   -0.035303    -0.53258   -0.018413   -0.020687
0.17842    -0.13859    0.054993   -0.035953    -0.54363  -0.0083442   0.0056225
0.18069   -0.072981    0.051096   -0.046671    -0.52186  -0.0011985    0.026085
0.1323   0.0091954    0.039727   -0.064861    -0.47574   0.0043233    0.031932
0.059216    0.092996    0.021538   -0.081426    -0.40396   0.0020496    0.023162
-0.017114     0.14334    0.003024   -0.088896    -0.30522  -0.0063954   0.0072465
-0.0837     0.13879  -0.0093186   -0.087272    -0.18894    -0.01549   -0.010293
-0.12917    0.090397   -0.007045   -0.075579   -0.068434   -0.020687   -0.026533
-0.14671    0.027385   0.0072465   -0.054467    0.036804   -0.019063   -0.036602
-0.13892   -0.027183    0.025761   -0.028157     0.10631   -0.010293   -0.037252
-0.11456    -0.05804    0.040052  0.00075039     0.11411   0.0020496   -0.031406
-0.0824   -0.059339    0.048172     0.02706    0.050771    0.016016   -0.022311
-0.051868   -0.034329    0.049472    0.046223   -0.062912    0.027385    -0.01614
-0.027508   0.0043233    0.048497    0.056942    -0.19089    0.032906   -0.011592
-0.0057458    0.035505    0.047847    0.059865    -0.30619    0.032582  -0.0057458
0.013418    0.042975    0.045899    0.058566    -0.38642    0.025436    0.003024
0.025436    0.025761    0.037778    0.055643    -0.41305    0.012119    0.010495
0.029009   -0.007045    0.020564    0.050446    -0.36985  -0.0080194    0.015367
0.01894   -0.035628  -0.0031473    0.049472     -0.2578   -0.031081    0.021213
0.0059473   -0.037902   -0.021661    0.058566   -0.098316   -0.049595    0.028359
0.0062721   -0.011917   -0.026858    0.079354    0.071234   -0.060963    0.034206
0.033556    0.030633    -0.01614     0.10501     0.21642   -0.062262    0.040377
0.0865    0.072208   0.0049729     0.12645     0.31939   -0.051868    0.044924
0.15958     0.10501    0.023162      0.1336     0.37753    -0.03303    0.044275
0.24858     0.12483    0.030633      0.1271     0.39799   -0.012242    0.036154
0.33693     0.13522    0.030633     0.10924     0.40254    0.003024    0.024137
0.40351     0.14659    0.031607    0.086824     0.41066    0.012119    0.014068
0.43339     0.16478    0.035505     0.06961     0.42982    0.016341    0.009845
0.42495     0.18849    0.042651    0.064088     0.46328    0.019264    0.009845
0.38435     0.20765    0.054668    0.072208      0.5042    0.022512    0.014717
0.32913      0.2161     0.06961      0.0865     0.53376    0.025761    0.028034
0.26904     0.20863    0.081303    0.098842     0.54058    0.033231     0.04395
0.21155     0.18622      0.0865     0.10696     0.51687    0.043625    0.055643
0.15179     0.14594    0.081303     0.11281     0.46328    0.055968    0.056617
0.069285    0.073182    0.065712     0.11313     0.38727    0.061814     0.04395
-0.046022   -0.060638    0.044924     0.10112     0.30217    0.056617    0.019914
-0.18342    -0.27209    0.024461    0.072208     0.21382    0.041351  -0.0089938
-0.31269    -0.54265   0.0059473    0.030633     0.13067    0.019589   -0.036278
-0.40039    -0.82199   -0.010943   -0.014516    0.054993  -0.0024977   -0.051544
-0.4241      -1.039   -0.024585   -0.053168   -0.013216   -0.016789   -0.052843
-0.38122     -1.1234    -0.03303   -0.078827    -0.06551   -0.020362   -0.043423
-0.29158     -1.0425   -0.033354   -0.093119   -0.094093   -0.018738   -0.028482
-0.19186    -0.80542   -0.023935    -0.10091   -0.092469   -0.019063   -0.014191
-0.11748    -0.44586  -0.0080194    -0.10611   -0.062262   -0.021337  -0.0050961
-0.092794   -0.013216   0.0023744    -0.10871   -0.013866   -0.025234  -0.0011985
-0.1217      0.4282  -0.0015233    -0.10546    0.036479   -0.029457 -0.00022403
-0.18309     0.81277   -0.013866   -0.094418    0.077405   -0.031406   0.0020496
-0.23863       1.096   -0.024909   -0.077528    0.097218   -0.030756   0.0091954
-0.2539      1.2633   -0.022961   -0.054792    0.086175   -0.028482    0.022837
-0.22077        1.31   -0.011267   -0.029132    0.051096   -0.025559    0.038103
-0.15905      1.2237   0.0023744  -0.0073698   0.0039985   -0.022961    0.051745
-0.097341      1.0109   0.0088706   0.0059473   -0.045697   -0.021986    0.058891
-0.057065     0.71175   0.0072465    0.009845   -0.092469   -0.027508    0.060515
-0.039851     0.39312  -0.0015233    0.003024    -0.13015     -0.0405    0.058241
-0.031081     0.12255   -0.013541  -0.0050961    -0.15386   -0.055116    0.052395
-0.015165   -0.053492    -0.02361  -0.0099683    -0.16782   -0.066485    0.043625
0.013418    -0.13145   -0.027833  -0.0054209    -0.19186   -0.072656    0.030957
0.049796    -0.13599   -0.025884   0.0062721    -0.23831    -0.07428     0.01764
0.081952    -0.10546   -0.020362     0.01894    -0.30944   -0.073955   0.0072465
0.10112   -0.071682   -0.015165    0.027385    -0.38577   -0.072331   0.0049729
0.098517   -0.054467   -0.011592    0.029009    -0.44131   -0.071032   0.0062721
0.078704   -0.053492   -0.010943    0.020239    -0.45333   -0.069083   0.0065969
0.0433    -0.06616   -0.016464 -0.00022403    -0.42572   -0.066485   0.0046481
0.0014   -0.083375   -0.027183   -0.025234     -0.3731   -0.064861   0.0023744
-0.03238    -0.10026   -0.036278   -0.046022    -0.31366    -0.06616  0.00075039
-0.045372    -0.11131   -0.039851   -0.055441    -0.26072   -0.067784   0.0043233
-0.039201    -0.11845   -0.037902    -0.04992    -0.22402   -0.068109    0.014392
-0.022961    -0.12398    -0.03173   -0.030106    -0.19933   -0.069083    0.028034
-0.0021729    -0.13145   -0.022311  -0.0041217    -0.18017   -0.069083    0.038753
0.01829    -0.14022   -0.012892    0.021538     -0.1662   -0.064211    0.046223
0.039078    -0.14574  -0.0041217    0.042975    -0.15548   -0.051868    0.048497
0.061489    -0.14509   0.0020496    0.056292    -0.14216   -0.033679    0.048822
0.084551    -0.14476    0.003024     0.06084    -0.12268   -0.015815    0.045574
0.10501    -0.14379  -0.0021729    0.062464   -0.099615  -0.0011985    0.037129
0.12385    -0.13697   -0.014516    0.064088   -0.078827   0.0046481    0.026085
0.14529    -0.11066   -0.026858     0.06896   -0.062912   0.0010752     0.01894
0.16965   -0.052518   -0.037577    0.077405   -0.047646  -0.0083442    0.016991
0.19888    0.030308   -0.044398    0.089423   -0.029782   -0.013541    0.017316
0.23071     0.11573   -0.046671     0.10209   -0.012242   -0.012242    0.017965
0.26255     0.17874   -0.046022     0.11248  0.00010078  -0.0060706    0.017965
0.2895     0.20181   -0.043099     0.11736   0.0036737   0.0046481    0.024137
0.32328     0.19044   -0.037577     0.11703   0.0026992     0.01764    0.033556
0.37655     0.16056   -0.027508     0.11313  -0.0044465    0.028684    0.042975
0.44996      0.1323   -0.014191     0.10761   -0.019712    0.031932    0.046873
0.52661     0.11606  0.00075039     0.10209   -0.046996    0.026735    0.044275
0.5854     0.11054    0.017965    0.095919   -0.087597    0.016341    0.040052
0.59937     0.10079    0.031607    0.082277    -0.13502   0.0033489    0.036479
0.54935    0.074482    0.037778     0.06019    -0.18277   -0.010618    0.029333
0.43697    0.033881    0.054019    0.031282    -0.22532   -0.025884    0.013743
0.28333  -0.0050961     0.10826   0.0052977    -0.25325   -0.038876  -0.0050961
0.1245   -0.021012     0.21642   -0.017114    -0.26364   -0.048296    -0.01549
-0.010943  -0.0024977     0.36681   -0.036278    -0.25325   -0.054467   -0.014516
-0.1178    0.037454     0.52109   -0.064211    -0.22142   -0.061613  -0.0034721
-0.22402    0.065062     0.64744    -0.11326    -0.16847   -0.073955   0.0062721
-0.36044    0.048822     0.74261    -0.17919   -0.088247   -0.090521   0.0049729
-0.53388   -0.023935     0.83226     -0.2435    0.016341    -0.10676  -0.0060706
-0.70863    -0.13924     0.95633    -0.28573     0.13457    -0.11878   -0.022961
-0.83563    -0.27371      1.0492    -0.29807     0.25118    -0.12398   -0.041799
-0.87363    -0.40786     0.85337    -0.28378     0.34797    -0.12008   -0.059339
-0.80964    -0.52739     0.19044     -0.2513     0.40643    -0.10611   -0.071682
-0.66316    -0.61346    -0.78788    -0.21297     0.41585   -0.086298   -0.075579
-0.47899      -0.631     -1.6938    -0.17919     0.37428   -0.064861    -0.07428
-0.30619    -0.54428     -2.2203    -0.15029     0.28528   -0.048296   -0.072006
-0.17887     -0.3429     -2.2482     -0.1269      0.1638   -0.037577   -0.072006
-0.10709   -0.070058     -1.8604    -0.10871    0.036804   -0.034978   -0.074605
-0.076229     0.19109     -1.2637   -0.092469   -0.057065   -0.038227   -0.079152
-0.069408     0.35901    -0.67485   -0.073306   -0.081101   -0.043423   -0.082076
-0.067784     0.39767    -0.23896   -0.044073   -0.020037   -0.044073   -0.081751
-0.06551     0.32751  -0.0057458  -0.0015233     0.10469   -0.037902    -0.07428
-0.051544     0.20376    0.064737    0.047847     0.25345   -0.023935   -0.062262
-0.010293    0.084226    0.054668    0.094295     0.39247  -0.0096434    -0.04992
0.06961    0.009845    0.038428     0.13002     0.49673   0.0020496   -0.039526
0.17225   -0.008669    0.056942     0.15016     0.55162    0.012119   -0.034978
0.26417    0.013093     0.10924     0.15763     0.54903     0.01894   -0.033679
0.31159    0.044599     0.18134     0.15926     0.49218    0.022512   -0.034329
0.29957    0.053369      0.2489     0.15731     0.39247    0.025111   -0.037902
0.22941   0.0085458     0.28398     0.14919     0.26287    0.025436   -0.043423
0.1232    -0.10319     0.26839     0.13717     0.11833    0.024786   -0.050894
0.0085458    -0.25292     0.21902     0.12288   -0.028807    0.023162   -0.055766
-0.085324    -0.39227     0.16803     0.10761    -0.17984    0.024137   -0.053817
-0.14444    -0.49166     0.13717    0.090397    -0.34355    0.031932   -0.045697
-0.1727    -0.54428     0.12775    0.065712    -0.52479    0.039727   -0.034654
-0.18569    -0.53648     0.13035    0.033556    -0.69921    0.044599    -0.02426
-0.19154    -0.43806     0.12645  -0.0031473    -0.82231    0.044275   -0.020037
-0.17075    -0.21914     0.10794   -0.037577    -0.84472    0.036479   -0.017439
-0.094743     0.12223    0.083901   -0.056416    -0.73656    0.020239    -0.01614
0.05272     0.52369    0.070584   -0.050894    -0.51992   0.0039985   -0.013866
0.2502     0.87058    0.075456   -0.020362    -0.25195  -0.0041217  -0.0060706
0.43989      1.0525    0.095594    0.024786  -0.0034721  -0.0034721   0.0075714
0.55909       1.019     0.11963    0.070909     0.16868   0.0062721    0.017965
0.57501     0.80465     0.13782     0.10274     0.23916    0.021538    0.018615
0.49121     0.49803     0.14464     0.11248     0.21642     0.03453    0.016991
0.33628     0.19596     0.13652    0.099817      0.1349    0.039402    0.017965
0.14529   -0.044073     0.11671    0.076431    0.037129    0.037129     0.01829
-0.054792    -0.21232    0.087474    0.048822   -0.043423    0.028359    0.011794
-0.23831    -0.31431    0.053694    0.025761   -0.096042    0.016341  0.00075039
-0.38545    -0.37635    0.021538    0.011794      -0.123   0.0088706  -0.0041217
-0.48321    -0.43871      0.0014    0.012119    -0.12787    0.009845   0.0036737
-0.52998    -0.52771   0.0043233    0.024786    -0.11943    0.020239    0.025111
-0.52966    -0.65114    0.029333    0.042975    -0.10709    0.038103     0.05207
-0.49198    -0.79503     0.06831    0.059865    -0.10676    0.061814    0.074482
-0.42345    -0.93177     0.10794    0.073182     -0.1256     0.08585    0.087149
-0.3325     -1.0243     0.13912    0.081303    -0.16263     0.10112    0.091372
-0.23116     -1.0172     0.15114    0.086175    -0.20843     0.10112    0.090072
-0.12852     -0.8444     0.14107    0.086175     -0.2487    0.089423    0.082602
-0.033354    -0.48386     0.11151    0.076106    -0.26689    0.074806    0.070909
0.048497    0.011469    0.068635    0.054019     -0.2435    0.061814    0.055643
0.11833     0.52986     0.02641    0.025761     -0.1714     0.05272    0.039078
0.18232     0.98427  -0.0024977   0.0023744    -0.05804    0.045249    0.027709
0.24793       1.337  -0.0080194   -0.007045    0.079354    0.038428    0.025436
0.30672      1.5611   0.0085458  0.00075039     0.22194    0.035505    0.029983
0.34732      1.6261    0.031932    0.025436     0.34537    0.033881    0.037778
0.36194      1.5111    0.050446    0.054019     0.41683    0.035505    0.044924
0.36064      1.2435    0.061165    0.074482     0.40481    0.039078    0.050771
0.36129     0.89689    0.061165    0.076106     0.30802    0.041351     0.05272
0.36876     0.55747     0.05272    0.055318     0.15406     0.03583     0.05142
0.37428     0.28691    0.038753    0.023487   -0.012242    0.022188    0.048822
0.36356     0.10696    0.029009  -0.0093186    -0.15029   0.0056225    0.047198
0.33173  -0.0041217    0.026735   -0.034654    -0.23181  -0.0096434    0.047847
0.28268    -0.08305    0.028359   -0.052843    -0.24773   -0.019712    0.047198
0.21967    -0.15029    0.030633   -0.067784    -0.20583   -0.025559    0.045249
0.14724     -0.2029    0.033881   -0.074605    -0.12138   -0.026858    0.042326
0.071883    -0.23344    0.036479   -0.073306   -0.011917   -0.024909    0.033556
-0.0031473    -0.24773     0.03453   -0.063237     0.10729   -0.021012    0.019589
-0.080451    -0.26007    0.024137   -0.046022     0.23234   -0.019712   0.0059473
-0.16295    -0.28021    0.013093   -0.026858     0.36453   -0.022636  -0.0047713
-0.25162    -0.30814   0.0046481   -0.012892     0.49641   -0.024909  -0.0089938
-0.33867    -0.33867  0.00075039  -0.0076946     0.61334   -0.026209   -0.010618
-0.40948    -0.36238  -0.0018481   -0.013866     0.68967   -0.029457   -0.014191
-0.44164     -0.3705  -0.0047713   -0.027833     0.69259   -0.036927   -0.019388
-0.4241    -0.35524  -0.0063954   -0.040175     0.59547   -0.046671   -0.027508
-0.36141    -0.31594  -0.0076946   -0.043748     0.40384   -0.056741   -0.036278
-0.27306    -0.26007  -0.0063954   -0.038227     0.15406   -0.059989    -0.04115
-0.18049    -0.19836  -0.0034721   -0.034654   -0.099615   -0.053492   -0.037252
-0.10254    -0.14281 -0.00054884   -0.039526    -0.30262   -0.042124   -0.026533
-0.045047    -0.09929   0.0020496   -0.053492    -0.42085   -0.031081   -0.015165
-0.007045   -0.068109   0.0052977   -0.071032    -0.44391   -0.025234   -0.010618
0.014717    -0.04992   0.0052977   -0.085973     -0.3861   -0.024909   -0.012567
0.026085   -0.045047  -0.0018481   -0.097341    -0.27599   -0.030431   -0.017439
0.032906   -0.050569   -0.016464    -0.10514    -0.15029   -0.039851   -0.020037
0.041676   -0.062262    -0.03238    -0.10709   -0.038876   -0.049595   -0.018413
0.055318    -0.07493   -0.045047    -0.10319    0.030308   -0.055441   -0.013216
0.071883   -0.080776   -0.051544   -0.090196    0.043625   -0.053817  -0.0089938
0.082277   -0.077203    -0.04992   -0.063886   0.0062721   -0.044398  -0.0089938
0.076431   -0.070707   -0.045047   -0.030431   -0.056416   -0.035628   -0.017439
0.047523    -0.07428    -0.04115   0.0020496    -0.12073    -0.03303    -0.03173
-0.00022403   -0.093119   -0.042124    0.029983     -0.1753   -0.035628   -0.049595
-0.047646    -0.11943   -0.046022    0.049147    -0.22077   -0.037577   -0.068434
-0.078827    -0.13762   -0.051544    0.055643    -0.25162   -0.034978     -0.0824
-0.084999    -0.13924   -0.054467    0.049472    -0.25942   -0.024585   -0.087597
-0.066485    -0.12625   -0.052193    0.035505    -0.23831  -0.0083442   -0.084024
-0.034329    -0.10514   -0.044723    0.023162    -0.19348   0.0069217   -0.075255
-0.0011985   -0.084024   -0.035303     0.01894    -0.13599    0.015042    -0.06551
0.025111   -0.067459   -0.023935     0.02706   -0.080451    0.016016   -0.056416
0.042001   -0.056416  -0.0080194      0.0433   -0.051219    0.012768    -0.04992
0.050446   -0.046996   0.0065969    0.055318   -0.063237    0.011794    -0.04862
0.054344   -0.041475    0.014717    0.053694    -0.10676    0.016666   -0.052843
0.055318   -0.041799    0.011144    0.039727    -0.14509    0.023487   -0.059014
0.049796   -0.045372 -0.00022403    0.018615    -0.13729    0.027709   -0.065835
0.041351   -0.047646   -0.010293  -0.0028225   -0.067134    0.020888   -0.067459
0.03583   -0.046996   -0.016789   -0.018738    0.050771   0.0072465   -0.062587
0.031282   -0.041475    -0.02361   -0.026533     0.18914  -0.0063954   -0.053817
0.02641   -0.032055   -0.031406   -0.026209     0.31711    -0.01484   -0.047321
0.017965   -0.020687   -0.039526   -0.021012     0.40708   -0.017439   -0.043748
0.0088706  -0.0099683   -0.047321   -0.013866     0.44281   -0.015815   -0.042449
0.003024  -0.0021729   -0.053492  -0.0076946     0.42592  -0.0099683   -0.042774
-0.00054884    0.003024   -0.054467  -0.0034721     0.37623  -0.0034721   -0.042449
0.0026992    0.008221   -0.050244  0.00010078     0.32263 -0.00054884   -0.038551
0.012768    0.012443   -0.044398  0.00010078     0.28853 -0.00054884   -0.025234
0.027709    0.014068   -0.041799   -0.007045     0.28398   -0.007045  -0.0067202
0.0433    0.011794   -0.041799   -0.018738     0.30867   -0.019063    0.013418
0.054344    0.008221   -0.044398    -0.03238     0.35739   -0.032055    0.025761
0.06019   0.0020496   -0.048945   -0.046347     0.41585   -0.044073    0.026085
0.058566  -0.0073698   -0.056416   -0.057065     0.47107   -0.052193    0.019264
0.050446   -0.018088   -0.070707   -0.061288     0.51037   -0.057715    0.010819
0.039078   -0.023935   -0.088247   -0.056741     0.52921    -0.05739   0.0075714
0.027709   -0.019712    -0.10124   -0.046996     0.52531   -0.052843    0.009845
0.020564   -0.011267    -0.10351   -0.033679     0.49478   -0.045697    0.015692
0.017316 -0.00054884   -0.090845   -0.019388     0.42755   -0.035303    0.020239
0.020239   0.0072465   -0.067134 -0.00087364     0.31289   -0.021661    0.023162
0.030633    0.010819   -0.042124    0.020564     0.14009  -0.0080194    0.021863
0.044924    0.014392   -0.027183    0.041351    -0.09117   0.0026992    0.017965
0.051745    0.020239   -0.021661    0.055643    -0.37765   0.0046481    0.010495
0.040377    0.030308   -0.021661    0.057592    -0.70473  -0.0050961  0.00075039
0.0091954    0.038103   -0.021337    0.046223     -1.0409   -0.024909  -0.0089938
-0.029782    0.042326   -0.020362    0.024786     -1.3267    -0.04862   -0.014516
-0.062912    0.044275   -0.017764    0.003024     -1.4937   -0.067459   -0.015165
-0.084024    0.045899   -0.013866   -0.013541      -1.495   -0.074605   -0.010943
-0.087272    0.050771  -0.0099683    -0.02361     -1.3401   -0.070707  -0.0034721
-0.074605    0.060515  -0.0044465   -0.022636     -1.0854   -0.060963   0.0039985
-0.050244    0.076755   0.0033489   -0.012242    -0.79698   -0.047971    0.009845
-0.025559    0.095269    0.012443   0.0052977    -0.52641   -0.034004    0.019914
-0.0060706     0.10599    0.019264    0.024137    -0.30457    -0.02361    0.032906
0.014068    0.099492    0.021863    0.039078    -0.13892   -0.021986    0.042001
0.049796    0.078704    0.024137    0.049147   -0.028157   -0.025884    0.042326
0.11183    0.057917    0.025436    0.057592    0.035505   -0.029457     0.03518
0.19336    0.049472    0.022837    0.067986    0.066362   -0.030756    0.027709
0.27749    0.060515    0.015367    0.075456    0.078055   -0.029457    0.028034
0.34829    0.093645    0.011794     0.07773    0.084551   -0.027183    0.039402
0.40124     0.15049    0.018615    0.071234    0.092996   -0.022961    0.059541
0.43112     0.22844    0.036154    0.058566     0.10891   -0.018088    0.078704
0.43827     0.31711    0.051745    0.050121     0.13652   -0.011917    0.090072
0.41878     0.39214    0.056292    0.048822     0.17745  -0.0011985    0.090072
0.35934     0.42365    0.054019    0.052395     0.23234    0.011794    0.080653
0.24858     0.38987    0.047198    0.053694      0.2973    0.019589    0.070259
0.085525     0.29373    0.038753    0.047847     0.35674    0.019914    0.059541
-0.10936     0.16803    0.025436    0.037778     0.39831    0.011469    0.048822
-0.29872    0.049147     0.01017     0.02706      0.4191 -0.00087364    0.034855
-0.43774   -0.046671  -0.0028225    0.019914     0.41878    -0.01549    0.017316
-0.50433    -0.12495    -0.01614    0.015692     0.39767   -0.027833  -0.0028225
-0.51439    -0.20096   -0.033679    0.011144     0.36064   -0.036927   -0.022311
-0.51407    -0.28313    -0.05804   0.0036737     0.30834   -0.040175   -0.036602
-0.53486    -0.36661   -0.085973  -0.0063954     0.23818   -0.039851    -0.04862
-0.57059    -0.43449    -0.11748   -0.016789     0.15698   -0.038551   -0.058689
-0.59819    -0.46502    -0.15711   -0.022636    0.076106   -0.035628   -0.065186
-0.60631    -0.44878    -0.20128   -0.022311   0.0065969   -0.029457   -0.063561
-0.5878    -0.39357    -0.24383  -0.0096434   -0.038551   -0.022311   -0.053817
-0.53518    -0.31691    -0.27599    0.013418   -0.052193   -0.015815   -0.034329
-0.44976    -0.23863    -0.29158    0.043625   -0.030756  -0.0093186   -0.007045
-0.33802    -0.16847    -0.28865    0.075456    0.020239  -0.0041217    0.021538
-0.21752    -0.10968    -0.26851     0.10079    0.091047  -0.0015233    0.042651
-0.11131   -0.063561    -0.23181     0.11183     0.17355  0.00075039    0.051096
-0.033354   -0.028157    -0.17952     0.10566     0.26255      0.0014    0.045899
0.0072465  0.00075039    -0.10611    0.076106     0.34635  -0.0044465    0.029009
0.022188    0.021863   -0.010618    0.024461     0.40416   -0.015815   0.0052977
0.033556     0.03453    0.096569   -0.034978     0.41423   -0.031081   -0.018738
0.072533    0.044275     0.20343   -0.082076     0.36161   -0.048296   -0.035628
0.14886    0.055643     0.29438    -0.10286     0.24988   -0.060963   -0.042449
0.2476    0.073182     0.35869   -0.093119     0.10274   -0.063237   -0.039201
0.3379    0.098193     0.40059   -0.059989   -0.048296   -0.055766   -0.027833
0.39019      0.1271     0.43047    -0.01614    -0.17919   -0.041799    -0.01484
0.39409     0.15276     0.44509    0.016016    -0.28703   -0.029782  -0.0034721
0.35349     0.16673      0.4256    0.019589    -0.39454    -0.02361   0.0033489
0.28268     0.16445     0.36518  -0.0057458    -0.53421   -0.025234   0.0043233
0.19726     0.15438     0.27294   -0.046996    -0.71188   -0.032055   0.0033489
0.11118     0.14886     0.16998   -0.090196    -0.89669   -0.039851  0.00042559
0.027709     0.14594     0.07773     -0.1269     -1.0399   -0.043423  0.00010078
-0.04992      0.1362    0.011144    -0.15256     -1.0961     -0.0405   0.0020496
-0.11521     0.10826   -0.027833    -0.16945     -1.0377   -0.033679   0.0065969
-0.16523    0.062789   -0.046347    -0.17659    -0.85317   -0.027833   0.0091954
-0.19738   0.0023744   -0.055116    -0.17205    -0.56506   -0.023935   0.0095202
-0.20485   -0.053817   -0.060963    -0.15191    -0.22824   -0.022636   0.0072465
-0.18504   -0.088247   -0.065835     -0.1178    0.082277    -0.02426   0.0049729
-0.13924   -0.088572   -0.067784   -0.070058     0.29438   -0.030431   0.0020496
-0.07428   -0.057065   -0.064536   -0.015165     0.36713   -0.037902  0.00075039
-0.00087364  -0.0073698   -0.057065    0.036479     0.30445   -0.042124   0.0017248
0.066037    0.044275   -0.045697    0.073182     0.15438   -0.038227   0.0075714
0.11508      0.0852   -0.034654    0.093645  -0.0089938   -0.025234    0.013743
0.14984     0.10924   -0.026209     0.10079     -0.1191   -0.012242    0.017965
0.18362     0.11801   -0.022311     0.10534    -0.14314  -0.0028225     0.01829
0.22617     0.11833   -0.021337     0.10891    -0.10286   0.0020496    0.014392
0.27684     0.11541   -0.023935     0.10631   -0.051219   0.0056225   0.0088706
0.32296     0.11573   -0.030431     0.09397     -0.0405   0.0085458   0.0046481
0.34764     0.11638   -0.037252    0.072208   -0.092794   0.0075714   0.0020496
0.34375     0.11768   -0.041799     0.05142    -0.18894   0.0046481 -0.00022403
0.31127     0.12093   -0.039201    0.044599    -0.28768      0.0014  -0.0011985
0.25897     0.13002   -0.031406    0.054668    -0.35426 -0.00054884 -0.00054884
0.19661     0.14594    -0.02426    0.069285    -0.37798  -0.0011985   0.0023744
0.12775     0.16185   -0.023935    0.074157    -0.35621  -0.0024977    0.003024
0.054344     0.16413   -0.036927    0.058891    -0.28865  -0.0076946  0.00075039
-0.027183     0.13425    -0.05804    0.028034    -0.17237    -0.01614  -0.0018481
-0.1217    0.066686   -0.081426  -0.0083442   -0.007045   -0.024585 -0.00022403
-0.2172    -0.02426    -0.10026    -0.04115     0.19044   -0.029457   0.0056225
-0.29223    -0.11098    -0.10806   -0.062912     0.39052   -0.031406    0.016991
-0.32601      -0.174    -0.10546   -0.077203     0.55715    -0.03173    0.026735
-0.31399      -0.212   -0.098965   -0.089546     0.66401   -0.035628    0.031607
-0.26104    -0.22889   -0.095068    -0.10221     0.70428   -0.042449    0.032582
-0.17854    -0.23051   -0.096042    -0.11228     0.68934    -0.04862    0.030308
-0.085973    -0.22109   -0.096367    -0.11748     0.64874   -0.052193    0.025111
-0.0050961     -0.2055   -0.094743    -0.11683     0.61041   -0.053492    0.019264
0.054019    -0.18017   -0.089871    -0.10968     0.58995   -0.050569    0.014392
0.092671    -0.14054   -0.079802   -0.095393     0.57663   -0.042774    0.012768
0.11021   -0.084999   -0.062912   -0.072006     0.53506   -0.028157    0.015692
0.10696   -0.019712   -0.041475   -0.041799     0.44476  -0.0096434     0.01894
0.089423    0.044599   -0.022636   -0.008669     0.30769   0.0088706    0.020888
0.065712    0.096569  -0.0089938    0.021213     0.15179    0.025111    0.021213
0.038753     0.12937  0.00010078    0.047198     0.01829     0.03583    0.021863
0.012768     0.14334   0.0085458    0.070259   -0.063237    0.040702    0.019914
-0.0057458     0.14984     0.01894    0.089423   -0.085324    0.044275    0.014392
-0.0089938     0.15828    0.029333     0.10371   -0.061937    0.046873   0.0085458
0.0026992     0.16673     0.03583     0.11508   -0.014516    0.050771   0.0069217
0.025111     0.16315    0.037454     0.12255    0.031607    0.054668   0.0065969
0.050446     0.14172     0.03453     0.12288    0.047523    0.056292   0.0049729
0.074482     0.10826    0.029658     0.11606    0.012119    0.053369   0.0017248
0.090397    0.073182    0.027385     0.10631   -0.072331    0.046548  -0.0028225
0.091372    0.043625    0.030633    0.097543    -0.18017    0.037778  -0.0080194
0.079679    0.023487    0.040377    0.093321    -0.27014    0.032582   -0.013541
0.061814   0.0095202    0.056292    0.092346    -0.31496     0.03453   -0.017439
0.0433  -0.0018481    0.078379    0.094945    -0.30327    0.042001   -0.018413
0.022837   -0.014516     0.10209     0.10047    -0.23863    0.048822   -0.014191
0.0010752   -0.031081     0.11931     0.10599    -0.12722    0.051096   -0.011267
-0.024585   -0.057715     0.12385     0.11346    0.014717    0.048822  -0.0096434
-0.053817   -0.093769     0.11281     0.12353     0.16218     0.04395  -0.0073698
-0.079152    -0.13567    0.088124     0.13327     0.28073    0.037778  -0.0041217
-0.094418    -0.17757     0.05272     0.13684     0.34894     0.03583  0.00010078
-0.09182    -0.20778    0.014392      0.1271     0.36226    0.038428  0.00075039
-0.072006    -0.20745   -0.020362     0.10144     0.34407    0.041676  -0.0028225
-0.039851    -0.16685   -0.051219    0.059216     0.33465    0.037454    -0.01484
-0.0054209   -0.093444   -0.076554   0.0049729     0.36194    0.024137   -0.031406
0.028359  -0.0099683   -0.088572   -0.049595     0.42105   0.0039985   -0.044723
0.055643    0.056292   -0.082725   -0.090521     0.48829   -0.011592   -0.045372
0.079029      0.0852   -0.064861    -0.10416     0.54318   -0.012892    -0.03303
0.10956    0.076755   -0.043748   -0.088572     0.57436 -0.00054884   -0.012242
0.15861    0.053044   -0.026858   -0.050894     0.57339    0.018615     0.01017
0.22584    0.041027   -0.016789  -0.0096434     0.53571    0.033231    0.021213
0.29568     0.06084    -0.01484    0.019589      0.4584    0.033881     0.01764
0.34472     0.11573   -0.015165    0.037778     0.34602     0.01894   0.0065969
0.35219     0.18751   -0.010618    0.048822     0.20603  -0.0041217  -0.0037969
0.31029      0.2489 -0.00054884     0.05272    0.036479   -0.020687   -0.011592
0.22194     0.28171   0.0085458    0.048497    -0.17627   -0.028807    -0.01484
0.10306     0.28138    0.012119    0.034855    -0.44131   -0.030756   -0.013541
-0.016789      0.2489   0.0056225    0.014392      -0.758   -0.030431  -0.0073698
-0.11033     0.18979  -0.0099683  -0.0063954     -1.1185   -0.029782  -0.0021729
-0.1662     0.11021   -0.027508   -0.026858     -1.4833    -0.03173  -0.0050961
-0.19283    0.012119   -0.043748   -0.046347     -1.7795   -0.036278   -0.012567
-0.2081   -0.091495   -0.059014   -0.061288     -1.9241   -0.044073   -0.020362
-0.22921    -0.18894   -0.069733   -0.071357      -1.861   -0.053168   -0.027508
-0.26397    -0.26397   -0.076554   -0.078178     -1.5944   -0.061288    -0.03303
-0.30327    -0.30294   -0.077853   -0.082076     -1.1906   -0.064861   -0.037577
-0.32633     -0.2984   -0.077203   -0.082725    -0.74891   -0.065186     -0.0405
-0.31854    -0.26007   -0.075904   -0.079152    -0.36141   -0.067134   -0.043423
-0.27728    -0.20258   -0.071032   -0.076879     -0.0837   -0.071032   -0.044073
-0.21427    -0.14574   -0.064536     -0.0824    0.072533   -0.075255   -0.045047
-0.15418    -0.10091   -0.056416    -0.10189     0.13522   -0.077203   -0.045697
-0.11391   -0.073955   -0.048945    -0.13372     0.14529   -0.077203    -0.04862
-0.093769   -0.062912   -0.044723    -0.16945     0.13912    -0.07493   -0.053492
-0.082725   -0.059339   -0.036927    -0.19673     0.13977   -0.070058   -0.056416
-0.072006   -0.055116   -0.023935    -0.20258     0.15926   -0.059014   -0.056741
-0.055116   -0.047971  -0.0044465    -0.18212     0.19563   -0.042449   -0.051219
-0.032705    -0.03238    0.019264    -0.13664     0.24111   -0.026858    -0.04115
-0.0057458   -0.010293    0.040052   -0.080451     0.28203   -0.015165   -0.026533
0.020564    0.010819    0.055968   -0.027183      0.2986  -0.0076946  -0.0083442
0.042651    0.024137    0.064737    0.012443     0.28885  -0.0018481     0.01017
0.057267    0.029333    0.066686    0.036479     0.26774    0.003024    0.022512
0.064413    0.025436    0.067011    0.046223       0.258   0.0062721    0.026735
0.066686   0.0069217    0.067336    0.050771     0.27002   0.0085458    0.020888
0.063438    -0.03238     0.06831    0.052395     0.30055    0.009845   0.0085458
0.051096   -0.094743     0.06896    0.057592     0.33725    0.011469  -0.0047713
0.023812    -0.16718     0.06896    0.072208     0.36486    0.009845   -0.015165
-0.014191    -0.23376    0.063763    0.090397     0.36941   0.0075714   -0.019388
-0.058689     -0.2867    0.048822     0.10371     0.34894   0.0056225   -0.021337
-0.098965    -0.32341     0.02706     0.10794     0.31646   0.0046481   -0.019712
-0.1269     -0.3338    0.003024     0.10501     0.28366   0.0059473   -0.015815
-0.13599    -0.30619   -0.019388    0.096569     0.25702    0.008221   -0.011267
-0.12333    -0.22402   -0.035953    0.081952     0.23494   0.0062721  -0.0089938
-0.089546   -0.080451   -0.038551    0.058891      0.2083  -0.0044465  -0.0080194
-0.038876     0.11378   -0.031081    0.031282     0.16835   -0.023285  -0.0099683
0.019914     0.31939   -0.019712   0.0020496     0.11411   -0.043748    -0.01614
0.087474     0.47594   -0.011267   -0.023935    0.056292   -0.056416   -0.021012
0.1625     0.53701   -0.010293   -0.046996    0.010495   -0.059339   -0.018738
0.23754     0.49641   -0.010293    -0.06551   -0.013866   -0.053168  -0.0099683
0.3038     0.38045  -0.0044465   -0.070707   -0.018413   -0.040825   0.0033489
0.34894     0.22714    0.011794   -0.053492   -0.010293   -0.021986    0.015692
0.36324    0.065062     0.03583   -0.018088   0.0069217  -0.0018481    0.025111
0.3405    -0.08305    0.058891    0.021213    0.023487    0.017316    0.030633
0.28691    -0.19998    0.074806    0.055643    0.030633    0.032582    0.030957
0.21512    -0.27534    0.079029    0.081627     0.01829    0.041351    0.028034
0.1336    -0.30587    0.073507    0.093321   -0.019063    0.042975    0.021863
0.045574     -0.2958    0.057267    0.089423   -0.077853    0.036154    0.015367
-0.054792    -0.22239    0.036804    0.071234    -0.14736    0.022188    0.009845
-0.16815   -0.064536    0.017316    0.045249    -0.21265   0.0091954   0.0091954
-0.27728     0.17355    0.003024     0.01764    -0.25585   0.0020496   0.0085458
-0.35654     0.43664  -0.0060706  -0.0037969    -0.26202   0.0043233   0.0069217
-0.38447     0.63348   -0.008669   -0.014191    -0.23344    0.014392   0.0036737
-0.35719      0.6718   -0.012892   -0.012892    -0.18244    0.025111  -0.0011985
-0.2932     0.50095   -0.020687  -0.0076946      -0.123    0.029983  -0.0041217
-0.21687     0.10631   -0.030106  -0.0028225   -0.071032    0.027709  -0.0041217
-0.15321     -0.4621   -0.035628   0.0023744   -0.035953    0.020239  -0.0044465
-0.11618     -1.0919   -0.030431   0.0043233   -0.015165    0.012119  -0.0054209
-0.10936     -1.6736    -0.01614   0.0020496   0.0088706   0.0056225  -0.0060706
-0.1243     -2.1134   0.0017248  -0.0011985    0.048172 -0.00054884   -0.011592
-0.14769     -2.3424    0.013093  -0.0028225    0.099492  -0.0054209   -0.021986
-0.16588     -2.3002    0.011144  -0.0015233     0.14724  -0.0093186   -0.034004
-0.16815      -1.939  -0.0076946   0.0023744     0.16965   -0.013216   -0.040825
-0.14606     -1.2602   -0.044073   0.0065969     0.16543    -0.01484   -0.042124
-0.10254    -0.34647   -0.093119   0.0072465     0.14042   -0.010293   -0.035628
-0.056741     0.63055    -0.14281   0.0017248     0.10729  -0.0028225   -0.020687
-0.02426      1.4841     -0.1714  -0.0067202    0.078055  0.00010078  -0.0028225
-0.0044465      2.1347    -0.16393   -0.013866    0.057917  -0.0057458    0.014068
0.009845      2.5518    -0.12365    -0.01484    0.050121   -0.016789     0.02706
0.01829      2.7204   -0.065186  -0.0096434    0.053044   -0.028157    0.032906
0.015042      2.6242  -0.0057458   0.0010752    0.062789   -0.034004    0.033881
0.0017248      2.2832    0.036804    0.014392     0.06896   -0.035303    0.033556
-0.013216      1.7813    0.053694    0.029009    0.064737   -0.034004     0.03583
-0.020037      1.2461    0.048822    0.041027     0.05142   -0.034004    0.041027
-0.01549     0.79523    0.036154    0.050771    0.036804   -0.036278    0.044275
-0.0047713     0.47594     0.02706    0.061814    0.028684   -0.040825    0.042975
0.0036737     0.26969    0.029009    0.073507    0.031932   -0.042774    0.037454
0.0056225     0.13035    0.039078    0.082927    0.043625   -0.042124    0.029333
0.0039985    0.021538    0.046873    0.080328    0.059216   -0.037252    0.020239
0.0039985   -0.070058    0.049472    0.065062    0.074157   -0.029457    0.013743
0.012443    -0.14314    0.047198    0.042326      0.0852   -0.019063    0.011144
0.029658    -0.19056    0.042326    0.021213    0.090722  -0.0096434    0.010495
0.048822      -0.212     0.03518   0.0085458    0.087799  -0.0041217    0.011794
0.064737    -0.21557    0.027709   0.0033489     0.07708  -0.0031473    0.014392
0.071558    -0.21037    0.024461   0.0010752    0.053694  -0.0063954    0.016016
0.071234    -0.20355    0.026735  -0.0011985    0.008221   -0.013866    0.012443
0.072208    -0.19381    0.033556  -0.0054209   -0.056091   -0.021337   0.0043233
0.082602    -0.17887    0.039727   -0.013541    -0.12365   -0.028157 -0.00087364
0.10177    -0.16198    0.040052   -0.021012    -0.17757   -0.030756  -0.0015233
0.12548    -0.15223    0.029983   -0.025559    -0.20128   -0.031081   0.0033489
0.15893    -0.15873    0.013418    -0.02426    -0.18796   -0.029457    0.014392
0.21058    -0.18407  -0.0018481   -0.021986    -0.14314   -0.024909    0.028034
0.27814    -0.22239  -0.0083442   -0.020037   -0.084674   -0.019063    0.038753
0.3431    -0.26397  -0.0024977    -0.01549   -0.037252   -0.018738    0.042326
0.38597    -0.28963    0.010495  -0.0089938   -0.025559   -0.022311    0.039078
0.39572    -0.28573    0.024461    0.003024   -0.054142   -0.023285    0.032257
0.3733    -0.25065    0.034855     0.01894    -0.11001   -0.017114    0.027709
0.32426    -0.18244      0.0433    0.039727    -0.17075  -0.0044465     0.02641
0.25995   -0.088247    0.050121    0.062789    -0.22109    0.013093    0.026085
0.17874   0.0046481    0.055968    0.080653    -0.25357    0.023812    0.023487
0.066686    0.055318    0.058891     0.08585    -0.26981    0.021213    0.017316
-0.085648    0.033231    0.054019    0.075131    -0.27144   0.0075714    0.009845
-0.2591   -0.069083    0.035505    0.054019     -0.2474   -0.010293    0.003024
-0.40981    -0.23311  -0.0031473    0.031607    -0.19511   -0.022311      0.0014
-0.48549    -0.40461   -0.056091    0.016341    -0.12398   -0.025234   0.0039985
-0.46535    -0.52349    -0.11098    0.014068   -0.042449    -0.01614   0.0091954
-0.36628    -0.55727    -0.14866    0.022512    0.046548  -0.0037969    0.011144
-0.23571     -0.5105    -0.16133    0.031607     0.13652   0.0052977   0.0095202
-0.12885    -0.41858    -0.15061    0.029983     0.20733   0.0059473   0.0075714
-0.077528    -0.32146     -0.1256    0.013093     0.23136  -0.0018481   0.0072465
-0.078178    -0.24805   -0.097341   -0.014516     0.18459   -0.017439   0.0052977
-0.097017    -0.20583   -0.075904   -0.050244    0.058241    -0.04115  0.00042559
-0.097991    -0.19219    -0.06681   -0.097666     -0.1243   -0.072981  -0.0067202
-0.068758     -0.2016   -0.067459    -0.15613    -0.31366    -0.10449   -0.016464
-0.011592    -0.22791   -0.067134    -0.21037    -0.45171    -0.12852   -0.024585
0.054668    -0.25292   -0.059664     -0.2461    -0.49036    -0.13859   -0.028157
0.11054    -0.25747   -0.045047    -0.25552    -0.40493    -0.13404   -0.026209
0.14399    -0.23214   -0.028157    -0.24188    -0.20063    -0.12105   -0.022636
0.15958    -0.18244   -0.010943     -0.2068    0.078379    -0.10644   -0.018413
0.1625    -0.12398   0.0039985    -0.15516     0.36876   -0.096367   -0.013866
0.15828    -0.07493    0.016341   -0.096692     0.60684   -0.087597  -0.0089938
0.14139   -0.048296    0.022188   -0.046022     0.75495   -0.081751  -0.0044465
0.10469   -0.047971    0.016341   -0.011267     0.80108   -0.078178  -0.0041217
0.053369   -0.069408 -0.00054884   0.0052977     0.75658   -0.075579  -0.0076946
0.0020496    -0.09994   -0.021337   0.0046481      0.6416   -0.073306   -0.012892
-0.030431    -0.12592   -0.038551  -0.0054209     0.47789   -0.072006    -0.01549
-0.038876    -0.13242   -0.045047   -0.017764      0.2908   -0.068758   -0.013866
-0.026209     -0.1178   -0.038551   -0.025884     0.10631   -0.062262  -0.0067202
0.00010078   -0.089221   -0.021012   -0.025884   -0.045372   -0.056091   0.0043233
0.032906   -0.054142  0.00075039   -0.018738    -0.14087   -0.050894    0.017965
0.064413   -0.018413    0.017965  -0.0080194    -0.17692   -0.045047    0.030308
0.085525    0.014392    0.026085   0.0052977    -0.16945   -0.037252    0.037129
0.090397    0.042651    0.028034    0.017965    -0.14444   -0.028807    0.041676
0.080978     0.06019    0.025111    0.028684    -0.12592   -0.021986    0.041027
0.065712    0.065712    0.018615    0.035505    -0.13047    -0.01614    0.037454
0.054019    0.062464   0.0069217    0.036479    -0.16815  -0.0093186    0.029658
0.045899    0.055968   -0.007045    0.032257    -0.22889  -0.0015233    0.020239
0.042326    0.054668   -0.018413    0.021538    -0.28638   0.0017248    0.012119
0.04395    0.064088   -0.021986   0.0049729    -0.32048  -0.0037969   0.0052977
0.058241    0.082277   -0.017764    -0.01484    -0.32601   -0.011917  -0.0015233
0.091372     0.10274   -0.014191   -0.034978    -0.31691   -0.019712  -0.0080194
0.13197     0.11833   -0.013541   -0.054142    -0.31464    -0.02426   -0.013541
0.16348      0.1258   -0.013866   -0.068109    -0.32731   -0.024909   -0.016464
0.17322     0.12775   -0.011592   -0.074605    -0.34842   -0.022961   -0.018088
0.16478     0.13327  -0.0067202   -0.070707    -0.35816   -0.022311   -0.021337
0.15114     0.14724  -0.0021729   -0.055766    -0.34647   -0.022636   -0.028482
0.14139     0.16315  0.00075039   -0.030756    -0.31789   -0.023285   -0.035628
0.13002     0.16933  0.00010078   0.0033489    -0.27793   -0.021337   -0.040825
0.10859     0.15503  -0.0018481    0.037129    -0.23766   -0.010943   -0.040175
0.078379     0.11898  -0.0063954    0.065062    -0.20096   0.0078962    -0.03238
0.049147    0.074157  -0.0076946     0.08585    -0.15808    0.032582   -0.021986
0.025111    0.039078  -0.0060706    0.096893   -0.093769    0.053044   -0.015815
-0.0021729    0.022188 -0.00054884    0.099492  -0.0034721    0.063438   -0.016789
-0.056741    0.019914   0.0059473    0.096244     0.10209    0.067336   -0.021661
-0.15418    0.024786   0.0095202    0.088773     0.20018    0.066686   -0.025884
-0.28346    0.029333   0.0065969    0.076106     0.25832    0.066037   -0.029782
-0.40786    0.027709  -0.0031473    0.064737     0.25313     0.06831    -0.03238
-0.49426    0.020239    -0.01549    0.054344     0.18654    0.069285   -0.032705
-0.52966    0.003024   -0.027508    0.043625    0.084876    0.066362   -0.032055
-0.52349   -0.024585   -0.028482    0.029983    -0.01484    0.057917   -0.029132
-0.49783   -0.059989 -0.00022403    0.015692   -0.078827    0.047523   -0.026858
-0.47444    -0.10026    0.071558   0.0033489   -0.094093     0.03583   -0.025234
-0.45171    -0.13599     0.18492  -0.0037969   -0.072331    0.022188   -0.024909
-0.39584    -0.15386     0.32361  -0.0021729   -0.040825   0.0069217   -0.023285
-0.27111    -0.14281     0.45873   0.0075714   -0.017439  -0.0041217   -0.018088
-0.0837   -0.095068     0.56884    0.024786  -0.0015233  -0.0080194  -0.0083442
0.11833   -0.021012     0.65264    0.047198    0.017316  -0.0073698   0.0056225
0.27619    0.059865     0.73514     0.06896    0.042326  -0.0031473    0.021213
0.35804     0.13392     0.85824    0.091047    0.068635   0.0069217    0.034206
0.36291     0.19466     0.99564     0.11378    0.091372    0.021538    0.040702
0.31516     0.23104     0.92515     0.13165     0.11281    0.038753      0.0433
0.24273     0.23721     0.41423     0.13457     0.13684     0.05272    0.047198
0.1638     0.21188    -0.48354     0.12158     0.15861     0.06084    0.050121
0.087149     0.16445     -1.4092     0.09462     0.17485    0.063763    0.044599
0.0088706     0.10534      -2.017    0.063438     0.18459    0.061489    0.030957
-0.079802    0.041351     -2.1362    0.038428     0.19011    0.053369     0.01829
-0.18569   -0.021661      -1.813    0.026735     0.19466      0.0433    0.014068
-0.28833   -0.072656     -1.2394    0.028034     0.19563    0.032257     0.01894
-0.34647    -0.10286    -0.64464    0.036479     0.18914    0.021863    0.028684
-0.3286    -0.10709    -0.19608    0.046873     0.16933    0.015042     0.03583
-0.23149   -0.085973     0.05207    0.053369     0.14237    0.013093     0.03453
-0.08305   -0.046347      0.1362    0.055318     0.11606    0.014392     0.02641
0.067986 -0.00022403     0.12937    0.054668    0.098517    0.015042    0.013743
0.17777    0.046548    0.099817    0.057592      0.0865    0.013093      0.0014
0.22519    0.089423    0.088124    0.067986    0.073182   0.0065969  -0.0057458
0.2135      0.1245     0.10112    0.083576    0.047847  -0.0044465  -0.0073698
0.16283     0.15406     0.12483    0.099167   0.0039985    -0.01484  -0.0060706
0.10144     0.18037     0.14334     0.10664   -0.062587   -0.021012  -0.0060706
0.043625     0.19823     0.14724     0.10209    -0.15353   -0.020687   -0.014516
-0.014191     0.19369     0.13847    0.087149    -0.26364   -0.016464   -0.028482
-0.0824     0.16348     0.11963    0.065387     -0.3796  -0.0080194   -0.039851
-0.15905     0.10989    0.095594    0.044275    -0.48159   0.0010752   -0.041475
-0.22402    0.043625    0.074482    0.028359     -0.5537    0.010495    -0.03173
-0.25098   -0.024909    0.061165    0.015042     -0.5839    0.015042   -0.018088
-0.23344   -0.082725    0.059541   0.0043233    -0.56701    0.012443  -0.0060706
-0.17822    -0.11878    0.054344  -0.0067202    -0.50497   0.0062721   0.0033489
-0.10059    -0.13015    0.028034    -0.01549    -0.40851 -0.00022403   0.0095202
-0.017114      -0.123    -0.03173   -0.020362    -0.29255  0.00010078    0.013743
0.056617    -0.10384      -0.123   -0.019712    -0.16912   0.0052977    0.014068
0.10956   -0.074605    -0.23116    -0.01614   -0.045372   0.0088706    0.012768
0.13977    -0.03303    -0.33218   -0.011267    0.069285   0.0065969    0.013743
0.14821     0.02641    -0.40201  -0.0099683     0.16413  0.00042559    0.015042
0.14529     0.10209    -0.42832   -0.013541     0.22747  -0.0031473    0.018615
0.14139     0.17647     -0.4163   -0.024585      0.2567  -0.0054209    0.022837
0.1362     0.23201    -0.35816   -0.040175     0.25637   -0.010943    0.023162
0.12353     0.26222    -0.19283   -0.059339     0.23591   -0.021012    0.020239
0.10177     0.26774     0.16575   -0.079802     0.20376    -0.03238    0.013743
0.077405      0.2528     0.68674   -0.097017      0.1703   -0.043748   0.0039985
0.057917     0.22065      1.2009    -0.10416     0.14009   -0.051868  -0.0080194
0.05142     0.17322      1.5053    -0.09929     0.11086   -0.054142   -0.017114
0.059541     0.11768      1.4877   -0.086623    0.073507   -0.051544   -0.023285
0.080328    0.062139      1.1814   -0.074605    0.023162   -0.042449   -0.023285
0.10924    0.014068     0.73319   -0.066485   -0.043748   -0.028482   -0.018738
0.14886   -0.018088     0.31094   -0.057715    -0.12495   -0.017114   -0.010943
0.20116   -0.027833    0.025436   -0.046347    -0.21362   -0.011592   -0.007045
0.26287    -0.01484   -0.096692   -0.034004    -0.29677  -0.0083442  -0.0093186
0.32036    0.011794   -0.096042   -0.025234    -0.36173  -0.0083442   -0.015815
0.35284    0.040052   -0.039201   -0.022636    -0.38869  -0.0063954   -0.022961
0.34115     0.06019    0.019589   -0.027508    -0.35524  -0.0018481   -0.026533
0.27749    0.078704    0.054668   -0.035953    -0.26234   0.0033489   -0.027508
0.16543     0.10144    0.060515   -0.037902    -0.14152   0.0062721   -0.024585
0.033556     0.12678    0.045249   -0.034654   -0.021986   0.0069217   -0.019712
-0.084024     0.14984    0.021538   -0.028482    0.086824   0.0088706    -0.01549
-0.15288     0.16153  -0.0021729   -0.023285     0.18751    0.010819  -0.0093186
-0.1623     0.15146   -0.022636   -0.021337     0.27716    0.013743  -0.0044465
-0.1243     0.11411   -0.041475   -0.021337     0.34212    0.016991  -0.0011985
-0.069083    0.054019   -0.060313   -0.021661     0.37233    0.020239   0.0020496
-0.028482   -0.013216   -0.076879    -0.01549     0.36876    0.022837   0.0049729
-0.015815   -0.071032   -0.087922   0.0043233     0.33335    0.023162   0.0039985
-0.029457    -0.10709   -0.089546    0.032582     0.27294    0.016016  0.00010078
-0.058365    -0.11715     -0.0824    0.059865     0.19109   0.0036737  -0.0031473
-0.085973    -0.11001   -0.071682    0.076755    0.093321   -0.011267  -0.0080194
-0.09994   -0.096367   -0.064861    0.078704   -0.014516   -0.025234   -0.019712
-0.10221   -0.082725   -0.063237    0.066037    -0.11618   -0.039851   -0.038551
-0.095717   -0.075904   -0.070382     0.04395    -0.19381   -0.056091   -0.055441
-0.082725   -0.080776   -0.087597    0.020239    -0.23961   -0.075904   -0.063237
-0.061613   -0.095717    -0.10871   0.0026992    -0.26364   -0.093444   -0.057715
-0.030106    -0.11261      -0.123  -0.0028225    -0.28378    -0.10579   -0.042449
0.0072465    -0.12495    -0.12398   0.0026992     -0.2958    -0.11163   -0.028157
0.045249    -0.12917    -0.11456    0.015042    -0.27469    -0.11066   -0.021012
0.080003    -0.12787   -0.098641    0.029009    -0.19771    -0.10741   -0.025234
0.10599    -0.12495   -0.085324    0.040377   -0.072656    -0.10059   -0.036278
0.11931    -0.12722   -0.077528    0.048497    0.064413   -0.094093   -0.047646
0.11476    -0.13502   -0.078178    0.054993     0.16705   -0.089221   -0.054142
0.092346    -0.14671   -0.081101    0.062139     0.20408   -0.082725   -0.053817
0.050771    -0.15483   -0.084024     0.06831     0.17517   -0.071357    -0.04862
0.00075039    -0.15581   -0.084024    0.071234     0.10696   -0.051868   -0.041475
-0.04862    -0.14671    -0.08305    0.069934     0.03583   -0.028157   -0.036278
-0.093444     -0.1295   -0.082725    0.063763   -0.008669  -0.0093186   -0.035303
-0.13632    -0.10968   -0.085648    0.044599   -0.016789   0.0010752   -0.037252
-0.17724   -0.084674   -0.092145   0.0078962   0.0026992   0.0020496   -0.037902
-0.20128   -0.050894   -0.095717   -0.042449    0.035505  -0.0063954   -0.034004
-0.19348  -0.0093186    -0.09182   -0.093444    0.069934   -0.019063   -0.028157
-0.14736    0.029009   -0.079802    -0.13534     0.10014   -0.027833   -0.021012
-0.06616    0.052395    -0.06551    -0.15873     0.12093   -0.027833   -0.012892
0.037129    0.061489   -0.047971    -0.15776      0.1323   -0.019712  -0.0024977
0.13944    0.055968   -0.025234    -0.13177     0.13977   -0.007045   0.0062721
0.22162     0.02641 -0.00022403   -0.092145     0.14496   0.0046481    0.014068
0.27067   -0.043099    0.029333   -0.047646     0.14789    0.012119    0.022512
0.28626    -0.18147    0.055643  -0.0076946     0.14919    0.016666    0.029333
0.28301    -0.40591    0.069934    0.022837     0.15016    0.022188    0.033881
0.27196    -0.69596    0.066362    0.036154     0.15536     0.02641    0.031932
0.25475    -0.98114    0.041027    0.029333     0.17485    0.027385    0.025111
0.22552     -1.1634 -0.00054884   0.0039985     0.21252    0.023162    0.017316
0.1729     -1.1715    -0.04927   -0.028807      0.2606    0.015692    0.012768
0.084876    -0.97757   -0.093444   -0.059664     0.30055   0.0088706   0.0075714
-0.039201    -0.60014    -0.12657   -0.077853     0.31354   0.0065969  -0.0024977
-0.17757    -0.10156    -0.14671   -0.079802     0.28528   0.0062721   -0.018738
-0.29645      0.4165    -0.15646   -0.070382      0.2096   0.0052977   -0.037252
-0.37538     0.84785    -0.16165   -0.055766    0.098517  0.00075039   -0.052518
-0.42182      1.1382    -0.16555   -0.042774   -0.022311  -0.0054209   -0.059014
-0.4556      1.2785     -0.1636    -0.03303    -0.12917   -0.013216   -0.057715
-0.49036      1.2795    -0.15223    -0.02426    -0.20453   -0.024909    -0.04992
-0.51634      1.1616    -0.13242   -0.015165    -0.23603   -0.044723   -0.039201
-0.51245     0.95796    -0.11196  -0.0067202    -0.22434   -0.064211   -0.026209
-0.46372     0.70623   -0.092794  -0.0015233    -0.18439   -0.072656   -0.010618
-0.36953     0.44931   -0.072331  -0.0024977    -0.13404   -0.067784   0.0075714
-0.24383     0.24208   -0.046996  -0.0063954   -0.093119   -0.051544    0.023162
-0.11098     0.12872   -0.015815  -0.0050961   -0.073306   -0.032705    0.031282
-0.0044465     0.11281    0.016666   0.0043233   -0.067459   -0.020687    0.033556
0.047198     0.14432    0.041676    0.020239   -0.061613   -0.016789    0.034206
0.033881     0.15633    0.050121    0.036154   -0.051544   -0.021661    0.037778
-0.028807     0.10989    0.039402    0.049796   -0.039851   -0.029457    0.038428
-0.10546   0.0091954    0.016341    0.059865   -0.031406    -0.03238    0.037129
-0.16003    -0.10481  -0.0063954    0.067661   -0.026533   -0.029132    0.034206
-0.16977    -0.18764   -0.018738    0.070909   -0.021012   -0.023285    0.031282
-0.13177    -0.21979   -0.020362     0.06896  -0.0060706   -0.020687    0.028034
-0.064211    -0.20875   -0.017114    0.059865    0.021538   -0.026858    0.025111
0.0078962    -0.17919   -0.013216    0.048497    0.054668   -0.039851    0.023812
