0.94302     0.53733  -0.0024977    -0.81744    -0.89929   -0.079477    0.011144
0.70948     0.36518   -0.019388     -1.0977     -1.4281   0.0017248    0.021863
0.38142     0.22519   -0.039526       -1.28     -1.7506    0.060515    0.031607
0.053694     0.11638   -0.054142       -1.19     -1.6964    0.095919    0.037778
-0.18894    0.037454   -0.047971    -0.78009     -1.2894     0.10924     0.03583
-0.30457   -0.013216    -0.01484    -0.17724    -0.73266     0.10274    0.029333
-0.29775   -0.042124    0.033231     0.40871    -0.28248    0.080328    0.019914
-0.20875   -0.059989    0.076106     0.83486   -0.044073    0.042001    0.015042
-0.088896   -0.077528     0.10047      1.0872    0.071234  -0.0054209    0.022837
0.016991    -0.10189     0.10014      1.2237     0.21155   -0.053168    0.041351
0.088124     -0.1308    0.084226      1.2857      0.5003   -0.086948    0.066686
0.1245    -0.15938    0.061489      1.2185     0.94497   -0.097017    0.092021
0.13425    -0.17789    0.037778     0.91119      1.4039   -0.078503     0.11313
0.13067    -0.18212    0.011144     0.37298      1.6651   -0.031406     0.12288
0.12743      -0.174   -0.019388    -0.18309      1.5777    0.030957     0.11703
0.14009    -0.15808   -0.049595    -0.49198      1.1288    0.084876    0.099492
0.16998    -0.13989   -0.068434    -0.43806     0.44769     0.11541    0.072858
0.20376     -0.1191   -0.071357   -0.078827    -0.26559     0.11801    0.038428
0.22519   -0.092469   -0.059664     0.41423     -0.8431     0.10014   0.0010752
0.22292    -0.06551   -0.037902     0.85824     -1.2348    0.073182   -0.034329
0.19531   -0.044723  -0.0099683      1.1356     -1.4524    0.043625   -0.064861
0.15081   -0.038551    0.021213      1.1912     -1.5223    0.016016   -0.090845
0.10242   -0.049595    0.042326      1.0018     -1.4573  -0.0076946    -0.10903
0.073507   -0.071032    0.042651     0.58605     -1.2543   -0.027508    -0.11488
0.083901    -0.09117    0.025111     0.03453    -0.91553   -0.043423    -0.10709
0.14367    -0.10286  -0.0018481    -0.50303     -0.4699   -0.053492   -0.090521
0.24176    -0.10481   -0.029782    -0.89637    0.019264   -0.055766   -0.073631
0.34862   -0.098641   -0.053168     -1.0874      0.4662    -0.04992   -0.061288
0.44086   -0.084674    -0.06616     -1.0737     0.80562   -0.033679   -0.046996
0.50063   -0.064861   -0.066485    -0.87818      1.0265  -0.0073698   -0.023935
0.51362   -0.048296   -0.046022    -0.52414      1.1658    0.019914  0.00042559
0.45905   -0.053492  -0.0011985   -0.038876      1.2886    0.039727    0.011794
0.31939   -0.091495    0.069285     0.49901      1.4345    0.040052   0.0010752
0.096569    -0.15516     0.15406      0.9651      1.5842     0.01894   -0.026533
-0.17335    -0.22337     0.23331      1.2344       1.666   -0.020362    -0.05804
-0.43222    -0.27631     0.28593      1.2464      1.6147   -0.068109   -0.084349
-0.62061    -0.30229     0.30477      1.0392      1.4156    -0.10936   -0.098316
-0.69694    -0.29482     0.29243     0.71435      1.1269    -0.13632   -0.098316
-0.65049     -0.2526     0.25183     0.37038     0.81862    -0.15093   -0.094418
-0.50173    -0.18114     0.19174    0.071883     0.52466    -0.15873   -0.096692
-0.29417    -0.09182      0.1245    -0.16425      0.2122    -0.17497    -0.11163
-0.073955  -0.0057458    0.056942    -0.34712    -0.15191      -0.212    -0.13145
0.12743    0.056292  -0.0044465    -0.50173      -0.555    -0.26169    -0.14509
0.29308    0.083901   -0.051868    -0.64432     -1.0062    -0.30392    -0.14866
0.41033    0.082277   -0.082725     -0.7658     -1.5236    -0.32503    -0.14574
0.46782    0.061489   -0.098965     -0.8483     -2.0478    -0.32828    -0.14639
0.46847     0.03453    -0.11098    -0.88565     -2.4129    -0.31366    -0.14606
0.42982    0.011794    -0.12365    -0.87688     -2.4168    -0.28411    -0.13469
0.36356   -0.008669    -0.14216    -0.82394     -1.9539    -0.23636    -0.10644
0.27521   -0.029132     -0.1623    -0.71448     -1.1007    -0.16133   -0.067134
0.18589     -0.0405     -0.1727    -0.52609   -0.081426   -0.059339   -0.024909
0.12645   -0.027183    -0.15548    -0.26689     0.84168    0.061814     0.01894
0.11216     0.01829   -0.096367    0.019914      1.5247     0.18394    0.062789
0.13652    0.099167   0.0069217     0.28496      1.9532     0.28008    0.098193
0.17225     0.21252     0.13197     0.48569      2.1692     0.33498     0.12223
0.18557     0.34342     0.24208      0.5945      2.2179     0.35057      0.1362
0.16218     0.46458     0.29697     0.60749       2.138      0.3418     0.14496
0.12093     0.55162     0.28366     0.52142      1.9691     0.32783     0.15373
0.10047     0.58638      0.2122      0.3327      1.6998     0.32198     0.16933
0.12905     0.55812     0.11313     0.05207      1.1538     0.32751     0.20083
0.207     0.47562    0.013093    -0.27371    0.093645     0.32296     0.24273
0.30899     0.36453   -0.072006    -0.58163     -1.5164     0.27132     0.27846
0.3889      0.2619    -0.13404    -0.81387     -3.3301     0.14854     0.28431
0.41293     0.18816    -0.17465    -0.92235     -4.7846   -0.040175     0.24923
0.36486     0.13327    -0.19413    -0.85154     -4.9701     -0.2552     0.18069
0.2593    0.076755    -0.19089    -0.56896     -4.9305    -0.42345    0.099817
0.1258   0.0065969    -0.16328    -0.13827     -3.6316    -0.49361    0.029983
-0.031081   -0.061937    -0.11358     0.27456     -1.8763    -0.46145   -0.021337
-0.22597    -0.10709   -0.047646     0.52044   -0.072981    -0.36628   -0.058689
-0.43936    -0.11228    0.019914     0.55942      1.4088    -0.25942   -0.085973
-0.62191   -0.081426    0.075781     0.45581      2.4001    -0.16977    -0.10384
-0.71837   -0.035628     0.10534     0.30802      2.8961    -0.10319    -0.11033
-0.70798  -0.0044465     0.10209     0.18264      2.9032   -0.050894    -0.10741
-0.60891   -0.011917    0.072533     0.10599      2.4251  0.00010078   -0.095393
-0.45918   -0.063561    0.023812    0.062464      1.4575    0.048822   -0.075904
-0.2919    -0.14314   -0.027508    0.031282    0.065387     0.08585   -0.052518
-0.1256    -0.22694   -0.069733  0.00010078     -1.4265     0.10404   -0.034978
0.023812    -0.29417   -0.097991   -0.032055     -2.5633     0.10469   -0.027833
0.13749    -0.33737    -0.11488   -0.056741     -3.0388    0.092671   -0.032705
0.20635    -0.34517    -0.12105    -0.06681     -2.7656    0.075456   -0.045047
0.23754    -0.30522    -0.11488   -0.059989     -1.8909    0.056617   -0.062912
0.23201    -0.22402   -0.096692   -0.044723    -0.66608    0.039402   -0.085648
0.17517    -0.12852   -0.072656   -0.035628     0.61951    0.015042    -0.12365
0.06084   -0.052518   -0.052518   -0.042124      1.6121   -0.025884    -0.17237
-0.097991   -0.023285   -0.041475   -0.069408      1.9882   -0.086623    -0.21687
-0.26754   -0.041799   -0.041475    -0.11456      1.5205    -0.16393    -0.24188
-0.41208   -0.087922   -0.047646    -0.16295     0.32881    -0.23668    -0.24091
-0.51147    -0.12885   -0.052193    -0.19738     -1.0208    -0.27696    -0.21687
-0.56506    -0.13762   -0.044723    -0.20583      -1.863    -0.25487    -0.17335
-0.58325    -0.10774   -0.025884    -0.18634     -1.8799    -0.15743     -0.1178
-0.58195   -0.050569  -0.0047713    -0.14476     -1.1247  -0.0050961   -0.060963
-0.57708   0.0069217    0.014068   -0.093769    0.049147     0.15763   -0.013216
-0.58293    0.040377    0.024137   -0.049595      1.1551     0.28463     0.01764
-0.59235    0.045899     0.02641    -0.02426      1.8447     0.34277    0.031282
-0.58001    0.037454    0.019589   -0.019063      2.0487     0.33043    0.033881
-0.52934    0.031932    0.014717    -0.02361      1.9142     0.26449    0.031607
-0.45983    0.036804    0.016341   -0.025559      1.6482     0.17355    0.026085
-0.39324    0.048497    0.028034   -0.016464      1.3779    0.083251    0.018615
-0.31756    0.054344    0.054344   0.0078962      1.1424    0.012119    0.013743
-0.17919    0.042975    0.089423    0.049796     0.92158   -0.033354    0.021863
0.062789   0.0036737     0.12028    0.099492     0.64907   -0.059664     0.04395
0.38597   -0.057065      0.1258     0.12418     0.29568   -0.081101    0.059541
0.70266    -0.13372    0.092671    0.076755   -0.075904      -0.123     0.04395
0.89917    -0.22499     0.02706   -0.072656    -0.35069    -0.18894   -0.018088
0.90956    -0.32601   -0.052193    -0.30879    -0.49913    -0.25552    -0.11001
0.74066     -0.4124    -0.12203    -0.56084    -0.65471     -0.2958    -0.19186
0.45808    -0.44261    -0.16425    -0.74143    -0.98277     -0.2919    -0.23311
0.14107    -0.39032    -0.17562    -0.79568     -1.4736    -0.23441    -0.21979
-0.14769     -0.2552    -0.16133    -0.72909     -1.9377    -0.13632    -0.16588
-0.37798   -0.072981    -0.13502     -0.6245     -2.1631   -0.026209   -0.094743
-0.53453     0.10501    -0.10514    -0.60469     -2.0507    0.067661   -0.028157
-0.61314     0.24273   -0.070707     -0.7226     -1.6665     0.13067    0.024461
-0.62093     0.33108   -0.027183    -0.89832     -1.2137     0.15471    0.061489
-0.57124     0.37038    0.023812    -0.98991    -0.90546     0.14139    0.084551
-0.47542     0.36941    0.080978    -0.91196    -0.83498     0.10404    0.099492
-0.34452     0.35089     0.14172    -0.68492    -0.94184    0.063763     0.10729
-0.19283     0.33823     0.20148    -0.42865      -1.051    0.041676     0.11021
-0.034978     0.34017     0.25248    -0.24188    -0.98212    0.036804     0.11021
0.1206     0.34245     0.28268   -0.084349    -0.64984    0.036804     0.10794
0.26157     0.32393     0.28626      0.2083   -0.094093    0.021863     0.10274
0.38045     0.26579     0.26287     0.75398     0.54448   -0.014516    0.095269
0.46003     0.15926     0.20603      1.4478      1.0921   -0.061613      0.0865
0.49088    0.012119     0.11281      1.9694      1.4247   -0.095068    0.080653
0.48991    -0.13989  -0.0089938      1.9967      1.5153   -0.094418    0.078055
0.47984    -0.24935    -0.13924      1.4517       1.428   -0.059989    0.075781
0.45743     -0.2893     -0.2513     0.55422      1.2519   -0.010618    0.069285
0.40026    -0.26299    -0.32633    -0.31496      1.0638    0.025761    0.054344
0.29633    -0.18731    -0.35296    -0.80542     0.90404    0.037129     0.03453
0.16315     -0.0837    -0.33185    -0.76027     0.79036    0.030308    0.023487
0.03453    0.033231    -0.27339    -0.21525     0.75008    0.022188    0.035505
-0.055441     0.14951    -0.19024     0.61594     0.81667    0.028359    0.073507
-0.095393      0.2528    -0.09182      1.4202     0.98037    0.046548      0.1232
-0.086948     0.33075   0.0095202      1.9558      1.1649    0.067011     0.16998
-0.034978     0.37655     0.10177      2.1068      1.2649    0.070584     0.19921
0.055968     0.39019     0.17615      1.9148       1.225    0.050446     0.20668
0.1703     0.36486     0.22422      1.5358      1.0882    0.015042     0.19304
0.28463     0.29438     0.23689       1.134     0.94367   -0.018738     0.16315
0.3798     0.18102     0.21285     0.81634     0.86019   -0.039201     0.12223
0.44444    0.039727     0.15958     0.61269     0.84363    -0.04862    0.074806
0.48049    -0.10351    0.088124     0.48666     0.83161   -0.054467    0.033881
0.49413     -0.2146    0.013093     0.39214     0.71533    -0.06681   0.0062721
0.47692    -0.26787   -0.050244     0.29308      0.3811   -0.093119  -0.0083442
0.41456    -0.25455   -0.093769     0.17615    -0.20778    -0.14119    -0.02361
0.30347    -0.19836     -0.1204     0.04395    -0.95223    -0.20713   -0.044398
0.14854    -0.14184    -0.13437   -0.084999     -1.6577    -0.26981   -0.060638
-0.0405    -0.11293    -0.13827    -0.18991     -2.1329    -0.29612   -0.059664
-0.23961    -0.10936    -0.13307    -0.25552     -2.2739    -0.27371   -0.038876
-0.4163    -0.10124    -0.11488    -0.27956     -2.1066    -0.20875   -0.015165
-0.5485   -0.063237   -0.085648    -0.27339     -1.7467    -0.12625  -0.0011985
-0.6349   0.0046481   -0.051219     -0.2474     -1.3248   -0.051219  -0.0015233
-0.68167    0.084551   -0.018413    -0.20908    -0.94476   0.0052977   -0.012242
-0.68427     0.15568    0.008221    -0.17107    -0.65374    0.043625   -0.021337
-0.63165     0.19986     0.02706    -0.14184    -0.44651    0.065062   -0.022636
-0.52414       0.207    0.038103    -0.13567    -0.28151    0.070909   -0.015815
-0.377     0.17874    0.042001    -0.15678    -0.11293    0.066686  -0.0037969
-0.20453     0.12905    0.039078    -0.19868    0.094295    0.058566   0.0069217
-0.028482    0.073832    0.028684    -0.24935     0.35771    0.054019    0.012443
0.11183    0.026085    0.012443    -0.29775     0.66823    0.054668   0.0091954
0.19044      0.0014  -0.0054209    -0.33543     0.98005    0.056617  -0.0057458
0.21415   0.0088706    -0.01484    -0.35459      1.2262    0.053369   -0.025234
0.207    0.046548   -0.013866    -0.35654      1.3435    0.043625   -0.044073
0.19791     0.10014   -0.007045    -0.34907      1.3113     0.03453   -0.057065
0.2057     0.15503  -0.0011985     -0.3403      1.1675    0.031607   -0.061613
0.24988     0.19434   0.0033489     -0.3325     0.95958     0.03583    -0.05804
0.3366      0.2044   0.0072465    -0.32568      0.7189    0.047523   -0.046022
0.45386     0.17842   0.0085458    -0.31854     0.46328    0.058241   -0.025884
0.56234     0.11995   0.0062721    -0.31171     0.24078    0.064413  -0.0015233
0.62178    0.042326   0.0020496    -0.30294     0.12223    0.065062    0.022188
0.61204   -0.035953 -0.00022403     -0.2919      0.1245    0.062464    0.037129
0.54058    -0.10254  0.00010078    -0.27599     0.19986    0.056942    0.038103
0.4308    -0.15321  0.00042559    -0.25325     0.27846    0.048822     0.02641
0.30964    -0.18959  -0.0018481    -0.23084     0.31776    0.039078   0.0085458
0.18816    -0.21525  -0.0031473    -0.22986     0.31711    0.027385   -0.012567
0.061814    -0.23051 -0.00087364    -0.28346      0.2895   0.0065969   -0.037577
-0.073631    -0.23636   0.0052977    -0.41825     0.23721   -0.020037   -0.065186
-0.20972    -0.23441    0.013093    -0.62028     0.15893    -0.04927   -0.089546
-0.32406    -0.22726    0.019589    -0.83076    0.067011   -0.072981    -0.10579
-0.38739    -0.20843    0.026085    -0.98114   -0.022311   -0.086298    -0.11326
-0.37603    -0.17952    0.032257     -1.0217    -0.10611   -0.093119    -0.11066
-0.28735    -0.14671    0.032582    -0.95191    -0.20225   -0.097991   -0.097341
-0.12755    -0.11975    0.021863    -0.80672    -0.32536   -0.097666   -0.075255
0.084876    -0.10709   0.0010752    -0.61054    -0.45885   -0.089871   -0.046671
0.30899     -0.1178   -0.025559    -0.34842    -0.52901   -0.071357   -0.013541
0.49348    -0.16133   -0.055441    0.011469    -0.45885   -0.046022    0.022512
0.60035    -0.23603   -0.084674     0.44216    -0.24156   -0.016464    0.054668
0.61139    -0.32471    -0.10936     0.83908    0.040702     0.01894    0.071558
0.53084    -0.39064    -0.12495      1.0729     0.27781    0.056617    0.066037
0.38013    -0.39487    -0.12787      1.0733     0.39052    0.091372    0.043625
0.19953    -0.31821    -0.10871     0.87351     0.36453     0.11768    0.014717
0.025111     -0.1649   -0.068434     0.58183     0.23851     0.13262  -0.0096434
-0.12203    0.029983   -0.014516     0.31289    0.081952     0.13652    -0.02426
-0.22499      0.2187    0.037129     0.13295   -0.046671     0.13749   -0.025559
-0.27111     0.35706    0.072858    0.040377    -0.12268     0.14854   -0.012892
-0.25033     0.41618      0.0852   0.0017248    -0.14899     0.17452   0.0095202
-0.1714     0.39214    0.071558   -0.019712     -0.1597     0.20116    0.033231
-0.065835     0.31159    0.039078   -0.044398    -0.19121     0.20246    0.050121
0.019589     0.20798  -0.0028225    -0.07428    -0.24318     0.16803    0.050121
0.0433     0.11736   -0.043423    -0.10546    -0.31074     0.10436    0.029333
-0.007045    0.062139   -0.076229    -0.12755    -0.38545    0.024786  -0.0096434
-0.12235    0.043625   -0.089871    -0.13242    -0.43059   -0.050569   -0.059989
-0.30294    0.030308   -0.084349    -0.12008    -0.38804    -0.10156    -0.10806
-0.56149    -0.01484   -0.059339   -0.098965    -0.20778    -0.11033    -0.13957
-0.88565    -0.10254   -0.021012   -0.087597     0.10696   -0.072006    -0.14346
-1.2121    -0.20648    0.025111   -0.097991     0.47984   0.0020496    -0.11586
-1.432    -0.28086    0.076431    -0.13599     0.77801    0.084226   -0.062912
-1.4563    -0.29872     0.11931    -0.20193     0.86766     0.14204   0.0026992
-1.2589    -0.26592     0.14009    -0.29645     0.67083     0.14984    0.059216
-0.89052    -0.20713     0.13425     -0.4137     0.20148     0.10144    0.092021
-0.43449    -0.15353     0.10631    -0.51667    -0.40883    0.011794    0.096569
0.038753     -0.1204    0.072208    -0.50952    -0.95094   -0.082725    0.079679
0.50745    -0.10416    0.053694    -0.27728     -1.3079    -0.14346    0.064413
0.96803   -0.097341    0.058566      0.1677     -1.5219    -0.14931    0.077405
1.3796    -0.10968    0.075781     0.62568      -1.686    -0.11456     0.12288
1.6521    -0.14639    0.084551     0.86766     -1.8351   -0.076879     0.17225
1.6732    -0.19738    0.072208     0.79945     -1.9491   -0.073955     0.18687
1.374    -0.24253    0.034855     0.47594     -1.9617     -0.1178     0.14009
0.80238     -0.2526   -0.020687    0.059865     -1.7837    -0.19283    0.041351
0.11281    -0.20745   -0.080776    -0.27469     -1.3634    -0.26202   -0.070058
-0.53193    -0.11715    -0.13047    -0.43189    -0.68459     -0.2945    -0.15418
-1.0451   -0.021337    -0.16523     -0.4163     0.22519    -0.27306    -0.19511
-1.3959     0.05272    -0.18277     -0.2919      1.2422     -0.2042    -0.19511
-1.5512     0.11118    -0.18147    -0.12787      2.1805    -0.11098    -0.17042
-1.4914     0.16673    -0.16588    0.027709      2.8802    -0.02426    -0.13632
-1.2455     0.21512    -0.14314     0.14269      3.2212    0.029658    -0.10351
-0.8876     0.24663    -0.12333     0.19856      3.1566    0.042001   -0.074605
-0.51894     0.25313    -0.11715     0.17874      2.7766    0.016666   -0.050569
-0.23084     0.24078     -0.1282    0.072858      2.3066   -0.034978    -0.03238
-0.06681     0.22324    -0.15451      -0.123      1.9223    -0.10221   -0.021661
-0.022961     0.21317    -0.18634    -0.38739      1.5865     -0.1688   -0.021986
-0.063886     0.21025    -0.21817    -0.63782      1.1282    -0.22337   -0.029782
-0.14119      0.2096    -0.24123    -0.71707     0.45028     -0.2578   -0.041475
-0.20355      0.2096    -0.23798    -0.49945    -0.35654    -0.26819   -0.052193
-0.21232     0.21252    -0.18796   -0.019712     -1.0711    -0.25422   -0.052518
-0.15581     0.22194   -0.085973     0.53408     -1.5197    -0.21817   -0.034004
-0.04992     0.23494    0.040702     0.95211     -1.6532    -0.16523 -0.00054884
0.067986     0.24078     0.15471      1.1256     -1.5067    -0.10059    0.037454
0.1638     0.23006     0.21577      1.0681     -1.1523    -0.03173    0.066362
0.21772     0.19109      0.2083     0.87741     -0.6651    0.037778    0.080003
0.22     0.12028     0.14302     0.64419    -0.13502     0.10469    0.078055
0.17712    0.028359    0.049147     0.41845     0.34017     0.16185    0.067011
0.10339   -0.061288   -0.037252     0.22032     0.69909     0.20311     0.05142
0.021213     -0.1217   -0.092145    0.066037     0.95471     0.22909     0.03583
-0.040175    -0.13827    -0.10059   -0.030431       1.171      0.2502    0.025436
-0.058689    -0.12008   -0.067134   -0.064536       1.402     0.27554    0.020239
-0.02426   -0.080776   -0.011917   -0.049595      1.6303     0.30282    0.019914
0.060515   -0.038227    0.039727    -0.01614       1.731     0.32491     0.02641
0.18784  -0.0024977    0.069934  -0.0034721      1.5257     0.33108    0.036479
0.3444     0.02641    0.070909   -0.046671     0.86929     0.31192    0.046873
0.5146    0.051745     0.05142    -0.16068    -0.22532     0.26027     0.05272
0.67018    0.074157    0.020239    -0.32698     -1.5317      0.1768    0.054344
0.76924    0.088448    -0.01549     -0.5079     -2.7861    0.075131    0.050771
0.77249    0.088773   -0.049595    -0.66965     -3.8255    -0.02361      0.0433
0.66531    0.067986   -0.070058    -0.79535     -4.5492   -0.096042     0.03453
0.46815    0.011794   -0.068434    -0.87883     -4.8883    -0.13664    0.028684
0.22844   -0.086298    -0.04115    -0.88403     -4.7976    -0.16068    0.021538
0.0039985    -0.21362   0.0062721    -0.73981     -4.2945    -0.18861   0.0078962
-0.16523    -0.34322     0.06019    -0.41533        -3.5    -0.23051    -0.01484
-0.25552    -0.44586     0.11021    0.011794     -2.5902    -0.27793    -0.04115
-0.26624    -0.49328     0.14886     0.40254     -1.7607    -0.31009   -0.062262
-0.21979    -0.47444      0.1716     0.66336     -1.1718    -0.30879   -0.067134
-0.15386    -0.41305     0.18069     0.78256    -0.89474    -0.27209   -0.056741
-0.098316    -0.35199     0.18004     0.81212    -0.87396    -0.22207   -0.040825
-0.070058    -0.33153     0.16738     0.80627    -0.94541    -0.18829   -0.029132
-0.074605    -0.36726     0.13717     0.77022    -0.90644    -0.18731   -0.030756
-0.10903    -0.44196    0.083901     0.64679    -0.61184    -0.21362   -0.046996
-0.15061    -0.51894    0.013418      0.3733    -0.07428    -0.23928   -0.072656
-0.18504    -0.56279   -0.059014     -0.0405     0.57923    -0.23344   -0.095717
-0.2107    -0.53908    -0.11033    -0.48094      1.1931    -0.18439    -0.10416
-0.22791    -0.42962     -0.1243    -0.80217      1.6472    -0.10546   -0.093444
-0.23019    -0.24545   -0.098641    -0.91845      1.8742    -0.03173   -0.072331
-0.19738   -0.017764   -0.045372    -0.81711      1.8807   0.0072465   -0.052193
-0.094093     0.20733    0.013418    -0.53258      1.7291   0.0043233     -0.0405
0.10501     0.38922    0.057917   -0.088572      1.5202   -0.021661   -0.037902
0.3759     0.50907    0.083251     0.48894        1.35   -0.040175   -0.037902
0.64517     0.56527    0.095594      1.1122      1.2665   -0.027833   -0.034329
0.83258     0.57858     0.10566      1.5972      1.2571    0.023487   -0.021337
0.88942     0.57858     0.11313        1.68      1.2798    0.096893   0.0056225
0.80367     0.58281     0.10859      1.1567      1.2961     0.16413    0.044924
0.59515     0.58573    0.080003    0.066686      1.2854     0.20863    0.086175
0.30282     0.56429    0.020239     -1.2069      1.2262     0.22357     0.11313
-0.011917     0.50128   -0.062912     -2.1868       1.083     0.21935     0.11411
-0.26657     0.40643    -0.14866      -2.626     0.81862     0.20213    0.093321
-0.37278     0.32523    -0.21265     -2.5276     0.44996     0.18102     0.06961
-0.27404     0.30997    -0.23863     -2.0858    0.061814     0.17095    0.057592
0.009845     0.37818    -0.22174     -1.5142    -0.19771     0.18622    0.063438
0.39052      0.5042    -0.16718     -0.8889    -0.19413     0.23201    0.084876
0.75171     0.63088     -0.0837    -0.12592     0.11151     0.29665     0.11573
0.99953     0.70526    0.013743     0.83161     0.63705     0.35804     0.14074
1.0911     0.70201     0.10664      1.8437      1.2237     0.39604     0.14659
1.0307       0.626     0.17452      2.5982      1.7063     0.40156     0.12807
0.8485     0.50193     0.20505      2.7944       1.971     0.37655    0.083901
0.58508     0.35284     0.19206      2.3705      1.9918     0.32556    0.022837
0.28301     0.19596     0.14302       1.554      1.8138     0.25183   -0.038876
-0.008669    0.052395    0.072208     0.69746      1.5199      0.1651   -0.084674
-0.25747   -0.061937  0.00042559    0.078379      1.1467    0.077405    -0.10806
-0.44651    -0.13697   -0.054142    -0.18991     0.67245  -0.0076946    -0.11423
-0.58488     -0.1714   -0.079477    -0.15873     0.10501   -0.093444    -0.11813
-0.67777     -0.1701   -0.073955    0.043625    -0.45073    -0.17627    -0.12885
-0.71383    -0.13697   -0.043423     0.29243    -0.85934    -0.23863    -0.13827
-0.68557   -0.088247  -0.0018481     0.49478     -1.0338    -0.26104    -0.13275
-0.60696   -0.044398    0.039402     0.59417    -0.95743    -0.23798    -0.10124
-0.51439   -0.025884    0.068635     0.56332    -0.69304    -0.17952   -0.046996
-0.44391   -0.044398    0.073507     0.41326    -0.35914    -0.10741    0.013093
-0.4137    -0.10676    0.054344     0.19888   -0.085324   -0.048296    0.063438
-0.4228    -0.19998    0.018615  -0.0044465    0.039402   -0.021986     0.09462
-0.44651    -0.29515   -0.022311    -0.13469   -0.022311   -0.035628     0.10469
-0.43936    -0.35946   -0.060638    -0.16685    -0.26916   -0.079802    0.097543
-0.36076    -0.37635   -0.092145    -0.12625    -0.63555    -0.14314    0.076755
-0.20128    -0.34484    -0.11488   -0.070058     -1.0117    -0.20355    0.050121
0.021213    -0.28476    -0.11813   -0.051219     -1.3043    -0.22759    0.029333
0.27456    -0.21655   -0.096692   -0.079477     -1.4606    -0.19186    0.029009
0.51947    -0.16068   -0.048945     -0.1243     -1.4732   -0.095717    0.053369
0.71013     -0.1321    0.019589    -0.13729     -1.3859    0.025761    0.090722
0.80367    -0.13437    0.089748   -0.090196     -1.2498     0.13165     0.12678
0.78354    -0.16003     0.14204   0.0078962     -1.0636     0.19044     0.14984
0.67473    -0.19316       0.169     0.12028    -0.78723     0.19109     0.15049
0.52369    -0.21005      0.1742      0.2057     -0.3835     0.14756     0.12515
0.37428    -0.19511      0.1664     0.23818     0.13425    0.089098     0.08585
0.23494    -0.14216     0.15666     0.21415     0.68577     0.04395    0.047523
0.079679   -0.072006     0.14886     0.14691      1.1386    0.023487    0.014392
-0.1191   -0.017764     0.14009    0.053369      1.3786    0.021863   -0.014191
-0.34777  -0.0050961     0.12483   -0.053817      1.4052    0.012443   -0.043099
-0.55467    -0.03303    0.098517     -0.1649      1.3614   -0.025884   -0.073631
-0.68427   -0.082076    0.059216    -0.27436      1.4315   -0.092145   -0.097991
-0.71025    -0.13047    0.013093    -0.37245      1.7076    -0.15873    -0.10838
-0.63165    -0.16847   -0.032705    -0.44651      2.0997    -0.19641    -0.10221
-0.47802    -0.20096   -0.075904    -0.48808      2.4163    -0.19186   -0.087922
-0.2971    -0.24156    -0.11813    -0.50043      2.4725    -0.15418   -0.076229
-0.15256    -0.28995    -0.15386    -0.48873      2.1581    -0.09929   -0.076229
-0.10741    -0.33445    -0.17854    -0.45983      1.4793   -0.055766   -0.093769
-0.19933    -0.34614    -0.18439     -0.4137     0.52986   -0.052843    -0.12592
-0.41273     -0.2971    -0.16815    -0.34777    -0.56734    -0.11521    -0.16653
-0.68817    -0.18179    -0.12463    -0.26397     -1.6129    -0.23344    -0.19901
-0.94671   -0.034329    -0.05739    -0.17205     -2.3668    -0.35686     -0.2133
-1.1211    0.091047    0.015692   -0.088572     -2.6062    -0.42475     -0.2055
-1.1708     0.15406    0.071883   -0.043099     -2.2437    -0.40916    -0.18114
-1.1026     0.13847    0.087474   -0.061937      -1.407    -0.33023    -0.15776
-0.93989    0.059865    0.052395    -0.15516    -0.38999    -0.23214    -0.14444
-0.68037    -0.03173   -0.016464    -0.30002     0.45873    -0.14087    -0.13534
-0.30294   -0.081426     -0.0824    -0.44716     0.88488   -0.059014    -0.11066
0.15633   -0.062587    -0.11293    -0.54363     0.83128    0.020888   -0.064211
0.5932   0.0069217    -0.10156    -0.56052      0.3837     0.10047  -0.0083442
0.89235    0.079679   -0.069733    -0.50595    -0.31626     0.16478    0.037454
1.0054     0.11216   -0.045372     -0.4176     -1.1026     0.19499    0.059541
0.95796      0.0852    -0.04992    -0.33413     -1.7539     0.17485    0.059865
0.80952    0.008221   -0.084674    -0.26559     -1.9884     0.11216    0.048497
0.60262    -0.08305     -0.1321     -0.2016     -1.6425    0.036479    0.036804
0.35512    -0.14801    -0.16815    -0.12235    -0.79958   -0.016789    0.030957
0.091372    -0.16165    -0.17594    -0.01614     0.26027   -0.019063    0.036804
-0.14087    -0.12463    -0.15061     0.10534      1.1986    0.031932    0.054019
-0.29093   -0.056416    -0.10059      0.2122      1.8083     0.10989    0.074806
-0.33867    0.011794   -0.039201     0.26677      2.0224      0.1755    0.090397
-0.29223    0.059541    0.017965      0.2489       1.831     0.19856     0.09397
-0.18244    0.078704    0.062139     0.17257      1.2578      0.1716    0.084876
-0.048296    0.070259    0.091696     0.06019     0.37688     0.10664     0.06961
0.080003    0.048172     0.11508   -0.083375    -0.66575    0.033881    0.053694
0.17355    0.029983     0.13165    -0.26072     -1.6142   -0.020687    0.045899
0.20246    0.017965     0.13132    -0.46178     -2.2294   -0.045697    0.044275
0.15276   0.0075714     0.10631    -0.64627     -2.3694   -0.046996    0.046223
0.036154   -0.010943    0.049147    -0.74468     -2.0173   -0.038227    0.047847
-0.10838   -0.045372   -0.042449    -0.73396     -1.2822   -0.035628    0.046223
-0.22759   -0.090196    -0.15223    -0.66835    -0.35296   -0.057065    0.038428
-0.26527     -0.1217    -0.24383    -0.61768     0.52402    -0.10416    0.032582
-0.18959    -0.12073    -0.28053    -0.61443      1.0791    -0.16425    0.036154
-0.022311   -0.082725     -0.2474    -0.63685      1.1376    -0.21914    0.050121
0.18232   -0.024585    -0.16393    -0.62353     0.69324    -0.25325     0.06961
0.36876    0.028684   -0.071357    -0.51472   -0.014516    -0.26462    0.084551
0.50258    0.057592  -0.0076946    -0.28183    -0.65796    -0.26657    0.087474
0.58151    0.059216    0.014068    0.054993     -1.1432    -0.27534    0.075781
0.60327    0.031282      0.0014     0.42982     -1.6714     -0.2997    0.051096
0.56429   -0.023285    -0.02426     0.75593     -2.4382    -0.33185    0.017965
0.46328   -0.087597   -0.042124      0.9651      -3.323    -0.35361   -0.021986
0.31224    -0.12722   -0.039201      1.0255     -3.9473    -0.35069   -0.062587
0.14237    -0.11878   -0.018738     0.95763     -3.9561    -0.32081   -0.089546
-0.010943    -0.06551   0.0065969     0.81504     -3.2697    -0.27436   -0.097017
-0.12268   0.0039985    0.022837     0.65296     -2.1251    -0.22597   -0.083375
-0.18049    0.054668    0.022837     0.50713    -0.90221    -0.18244   -0.059339
-0.18309    0.062789   0.0062721     0.37298    0.093645    -0.14606   -0.036927
-0.14476    0.033231   -0.026533     0.21545     0.77152    -0.11391   -0.025559
-0.086948  -0.0076946   -0.065835    0.019264      1.2275   -0.079802   -0.024585
-0.034004   -0.026858   -0.095717    -0.17789      1.5803   -0.033679   -0.029132
-0.00022403   -0.012242    -0.10611    -0.30522      1.8749    0.026735   -0.034654
0.0095202    0.032582   -0.092469    -0.32243      2.0847    0.098193    -0.03173
-0.00054884    0.092346   -0.063237    -0.23831      2.1695      0.1638   -0.022961
-0.025884     0.15114    -0.03173   -0.097017       2.113     0.20863   -0.012242
-0.059664     0.19141  -0.0083442    0.085525      1.9184     0.22617  -0.0041217
-0.087597     0.20246     0.01017     0.32361      1.5718     0.22357   0.0049729
-0.084349     0.18719     0.03583     0.60197      1.0525     0.21382    0.019914
-0.029132     0.15276    0.075456     0.85434     0.42592     0.20083    0.039727
0.065712     0.10566      0.1232     0.99044    -0.13924     0.18459    0.057267
0.16738    0.049147     0.16153     0.95211    -0.45983     0.16608    0.063763
0.23883  -0.0076946     0.16965     0.75625    -0.44943     0.14367    0.054019
0.25215   -0.056416     0.14496      0.4714    -0.15223     0.11801    0.026735
0.16575    -0.10091     0.09397     0.18459      0.2999    0.089098   -0.008669
-0.046996    -0.14281    0.036479   -0.034978       0.753    0.059216     -0.0405
-0.36076    -0.16685   -0.012242    -0.16328      1.0924    0.030633   -0.063237
-0.69629    -0.15418   -0.045047    -0.21817       1.262   0.0075714   -0.075255
-0.9636   -0.090845   -0.062587    -0.21979      1.2552  -0.0067202   -0.078827
-1.0906    0.014717   -0.062587    -0.17172      1.1109  -0.0034721   -0.071032
-1.0455     0.13457    -0.03303   -0.063886      0.8943     0.01894    -0.04992
-0.84375     0.23786    0.028684    0.097218      0.6692    0.055968   -0.016464
-0.53323     0.30769     0.11086     0.27651      0.4675    0.094945    0.022188
-0.1753     0.34407     0.19011      0.4243     0.28431      0.1232    0.054668
0.19758     0.35999     0.24208     0.50355    0.095269     0.13977    0.075781
0.58053     0.37395     0.25832      0.5055    -0.11456     0.14919    0.092996
0.9677     0.39279     0.24371     0.43827    -0.32373      0.1638     0.11931
1.3146     0.39767     0.20928     0.31744    -0.48971     0.18622     0.15991
1.553     0.36811     0.16218     0.16153    -0.56506      0.2083     0.20733
1.641     0.29795     0.10664  -0.0037969    -0.53648     0.21707     0.24306
1.5715     0.20018    0.046223    -0.16165    -0.42929     0.20376      0.2502
1.3714    0.090397    -0.01549    -0.30165    -0.29515      0.1703     0.22584
1.0882   -0.021661   -0.072331    -0.40331    -0.18147     0.12872     0.18037
0.78289    -0.12268    -0.11261    -0.43254    -0.10351    0.091047      0.1284
0.50972    -0.19706    -0.12755    -0.37083   -0.052518    0.070259    0.086175
0.29438    -0.23571    -0.11845    -0.23376   -0.021012    0.065712    0.058241
0.13067    -0.24188   -0.095068   -0.068758   -0.007045    0.070259    0.042975
-0.0083442    -0.22726   -0.064536    0.074157    -0.01549    0.076755    0.031932
-0.14736    -0.20096   -0.035628     0.16803   -0.045697    0.080978    0.016341
-0.31009    -0.16685   -0.011917      0.2057   -0.082725    0.083901   -0.011267
-0.51115    -0.12755   0.0017248     0.19596   -0.091495    0.084551   -0.048945
-0.73721   -0.086948   0.0043233     0.15698   -0.029782    0.083251   -0.085648
-0.95678   -0.037902 -0.00022403     0.10112     0.12807    0.080978    -0.11163
-1.1244    0.032906  -0.0096434    0.041351     0.36518    0.076106     -0.1204
-1.1991     0.13652   -0.013541   -0.010618     0.61236    0.063438    -0.11391
-1.1546     0.26579  -0.0037969   -0.042124     0.77866    0.041676   -0.096692
-0.98731     0.39312     0.01764   -0.053492      0.8105    0.016666   -0.074605
-0.72877     0.48536    0.042001   -0.051544     0.74586  -0.0050961   -0.050894
-0.43319     0.51882    0.056617   -0.046347     0.70331   -0.015815   -0.026533
-0.16393     0.48861    0.060515   -0.041475     0.79523   -0.011267  -0.0060706
0.026735     0.41261     0.05207   -0.038227      1.0307   0.0075714   0.0065969
0.12483     0.32036    0.036154   -0.039851      1.2795    0.031932    0.010819
0.14951     0.23559    0.019589   -0.048945      1.3412    0.055643   0.0088706
0.13035     0.16608   0.0078962   -0.066485      1.0271    0.070259   0.0036737
0.09462     0.10794  -0.0011985   -0.094418     0.27619    0.066686  -0.0028225
0.060515    0.055318   -0.008669    -0.12592     -0.7187    0.047198   -0.012242
0.03583   0.0036737    -0.01614    -0.15256     -1.5957    0.025436   -0.021012
0.023162   -0.047971   -0.027833     -0.1662     -2.0712    0.015042   -0.025559
0.023162   -0.097991   -0.044073    -0.16328      -2.042    0.020564   -0.021986
0.033881    -0.14281   -0.059989    -0.14866     -1.5986    0.032906    -0.01484
0.051745    -0.17692   -0.070707     -0.1295    -0.96035    0.041676   -0.007045
0.070584    -0.19901   -0.068434    -0.11391    -0.37895    0.039727  -0.0057458
0.076431    -0.21362   -0.052843    -0.10384   -0.039851    0.019589    -0.01484
0.050446    -0.22921   -0.030431   -0.097017   -0.023935   -0.020362   -0.035303
-0.026209     -0.2539   -0.013866   -0.095068    -0.31431   -0.077528   -0.063886
-0.14834     -0.2854   -0.013541    -0.10254    -0.76904    -0.14996   -0.092469
-0.28508    -0.31496   -0.030756    -0.12203     -1.1663    -0.23668    -0.11813
-0.40201    -0.32795   -0.058365    -0.14509     -1.3193    -0.33218    -0.13372
-0.47769    -0.31366   -0.084349    -0.16068     -1.1572    -0.41565    -0.13892
-0.49426    -0.27176    -0.09929    -0.16328    -0.74826     -0.4673    -0.13632
-0.44456    -0.20972   -0.097017    -0.14964     -0.2552    -0.47119    -0.12463
-0.32146    -0.13827   -0.081101    -0.12463     0.14561    -0.42897    -0.10091
-0.13924   -0.073955   -0.056741    -0.10774     0.33043    -0.35849    -0.06681
0.06831    -0.03173   -0.034329     -0.1269     0.26482    -0.27631    -0.03303
0.25605   -0.013541   -0.019712    -0.19836    0.020239    -0.19154  -0.0054209
0.38402   -0.011267    -0.01549    -0.31301    -0.24773    -0.10774    0.015367
0.43892   -0.014516   -0.020362    -0.44878     -0.3809   -0.035628     0.02641
0.42755   -0.021012   -0.030756    -0.57806    -0.28021    0.009845    0.023812
0.36713   -0.031406   -0.046996    -0.66933    0.036804    0.024137   0.0043233
0.27684   -0.047646   -0.062587    -0.66381     0.46393    0.016341   -0.022961
0.18004    -0.06551   -0.063561    -0.46243     0.90144   0.0049729   -0.046347
0.097868   -0.076229   -0.037252   -0.035303      1.3156    0.012443   -0.056416
0.028684   -0.077853    0.011469     0.47237      1.7018     0.05142   -0.055116
-0.045047   -0.076554    0.061489     0.82933      2.0311     0.10956   -0.051544
-0.13534   -0.085973    0.091696     0.90761       2.238     0.16868   -0.051219
-0.23246    -0.10903    0.091696     0.74943      2.2487      0.2161   -0.048296
-0.30652    -0.13599    0.065387      0.5003      1.9941     0.25345    -0.04115
-0.33023    -0.14964    0.023812     0.30412      1.4562     0.27651    -0.03238
-0.29417    -0.13697   -0.017764     0.22649      0.7621     0.27196   -0.029782
-0.21232   -0.096042   -0.045697     0.25605     0.17095     0.22617   -0.038551
-0.11521   -0.044398   -0.055116      0.3353   -0.085973     0.14237   -0.055766
-0.032705  -0.0080194   -0.050894     0.40449    0.010819    0.040377   -0.073631
0.019589  -0.0028225   -0.044073     0.42235     0.24793   -0.053817   -0.081426
0.044275   -0.025884   -0.043748     0.37818     0.32231    -0.12365   -0.076879
0.051745   -0.061288   -0.051219     0.28821    0.034206    -0.17107   -0.060313
0.050121   -0.092469   -0.064211     0.17062    -0.61671    -0.20713   -0.040175
0.048172    -0.11196   -0.078178    0.047523     -1.4505     -0.2461   -0.026533
0.052395    -0.11423   -0.094093   -0.064536     -2.2151    -0.30002   -0.028482
0.076755    -0.10579    -0.10741    -0.14736     -2.7289    -0.37018   -0.046996
0.1258   -0.099615    -0.11326    -0.18796     -2.9014    -0.44489   -0.069408
0.19986    -0.11261    -0.11261    -0.19608     -2.7094    -0.49815   -0.084024
0.28203    -0.15256    -0.11066    -0.20875     -2.2245    -0.51245   -0.088572
0.34797    -0.21265    -0.11358    -0.27209     -1.6139    -0.49426   -0.092145
0.37298    -0.27501    -0.11748    -0.39844     -1.0455    -0.46275    -0.10676
0.35057    -0.31204    -0.11293     -0.5407    -0.60339    -0.43449    -0.13632
0.30315    -0.27923   -0.080776    -0.61703    -0.29223    -0.41305    -0.17594
0.25085    -0.15353    -0.01484    -0.57253   -0.069408    -0.38902    -0.21362
0.16803    0.033556    0.061489    -0.42442     0.10599    -0.35199    -0.23863
0.0033489     0.21155     0.11801    -0.23896     0.26384    -0.28508    -0.23344
-0.24383     0.31971     0.13749   -0.094093     0.41715    -0.17465    -0.17919
-0.49231     0.34667     0.12385   -0.045697     0.57371   -0.019388   -0.073631
-0.63782     0.31809      0.0865    -0.11845     0.72442     0.15991    0.061489
-0.62191     0.26839    0.032257    -0.30489      0.8407     0.32556     0.18946
-0.46243     0.21772   -0.034978    -0.55889     0.89462     0.44346     0.28301
-0.22759     0.17322    -0.11261    -0.80282     0.87773     0.50063     0.33075
0.0088706     0.14009    -0.19348    -0.96198     0.81082      0.5042      0.3366
0.20213     0.12255    -0.26104    -0.95321     0.74423     0.47822     0.32198
0.33693     0.13295    -0.29093    -0.70798      0.7124     0.44379     0.30834
0.4178     0.18037    -0.26299    -0.24708     0.70104     0.40936     0.30282
0.45483     0.25832    -0.17335     0.30445      0.6364     0.36843     0.29762
0.45191     0.33758   -0.041475     0.78711     0.46555     0.30932     0.28333
0.41163     0.37428    0.092346      1.0944     0.20473     0.22454      0.2515
0.34992     0.33725     0.19531      1.2022   -0.062912     0.11801     0.20473
0.29178     0.23039     0.25085      1.1551    -0.27339   0.0017248     0.14984
0.25183    0.095269      0.2593      1.0359     -0.4124    -0.10709    0.098193
0.23169   -0.011917     0.23721     0.90989    -0.48646    -0.18666    0.061814
0.2083   -0.055116     0.19986     0.80822    -0.49978    -0.22434    0.042326
0.13262   -0.044723     0.16153     0.72215    -0.46307    -0.21687    0.031607
-0.035953   -0.019712     0.12548     0.63348    -0.39779    -0.17594    0.016666
-0.28378   -0.010293    0.097218     0.52759    -0.32925    -0.12138   -0.011267
-0.54655   -0.026858    0.078379     0.39929    -0.27793   -0.068758   -0.045372
-0.75865    -0.06616    0.067986     0.25378    -0.24123   -0.027183   -0.073955
-0.87655    -0.12105    0.058241    0.099492    -0.18894 -0.00054884   -0.080451
-0.86876    -0.17757    0.050121   -0.046022   -0.090845    0.008221   -0.065835
-0.72779    -0.21525    0.044275    -0.16133    0.058566   0.0020496   -0.043099
-0.48614    -0.22954    0.042651    -0.23831     0.22844   -0.013216    -0.02361
-0.20225    -0.22207    0.042975    -0.28476     0.38142   -0.031081   -0.012892
0.074157     -0.2029    0.042651    -0.32113     0.47822   -0.042774  -0.0057458
0.31809    -0.18666    0.036479    -0.35167     0.48926   -0.038227   0.0065969
0.51849    -0.18244    0.024786    -0.35589      0.4191   -0.011592    0.023162
0.67375    -0.18277    0.011469    -0.29742     0.30704    0.030308    0.036479
0.78159    -0.17497      0.0014    -0.13697     0.19791    0.068635    0.042001
0.84265    -0.14769  -0.0011985     0.12613     0.13002    0.092021    0.044924
0.85857    -0.10026   0.0078962      0.4152      0.1271     0.10696    0.054993
0.81569   -0.037902    0.025761     0.61431     0.19109     0.12418    0.075131
0.69714     0.03583    0.041676     0.64679     0.30055     0.15016     0.10274
0.49836     0.11995    0.047847     0.50777      0.4269     0.17874      0.1219
0.24468     0.20473    0.039727     0.23299     0.53506      0.2057     0.12158
-0.0044465     0.28106    0.018615     -0.1204     0.56949     0.22194     0.10014
-0.17432     0.34732  -0.0083442    -0.48224     0.48179     0.22389     0.06896
-0.21265     0.40416    -0.03238    -0.77684     0.28756      0.2096    0.037129
-0.11715     0.45028   -0.043099    -0.94639    0.067011     0.18134    0.014068
0.056617     0.46945    -0.04115    -0.97172   -0.068434     0.14432 -0.00022403
0.22779     0.44639   -0.027833     -0.8798   -0.062587     0.10729  -0.0080194
0.32751     0.37753  -0.0050961    -0.71707    0.041351    0.074806   -0.017114
0.32231     0.27749    0.027385    -0.49588     0.14561    0.049472   -0.031081
0.22487     0.16185    0.064088    -0.18309     0.18004    0.027385   -0.050569
0.064088    0.044924    0.096569     0.23266     0.14074   0.0075714   -0.072981
-0.13372   -0.067134     0.10859     0.68122    0.059541   -0.016464   -0.096367
-0.34712    -0.17107    0.094295      1.0271   -0.039851   -0.053492    -0.11715
-0.55012    -0.25845    0.055318      1.1421    -0.15548    -0.10806    -0.13372
-0.71058    -0.32016   0.0078962     0.98069    -0.28021    -0.18017    -0.15158
-0.79893    -0.34744   -0.028157      0.5932    -0.39292     -0.2565    -0.17042
-0.80477    -0.33835   -0.046347     0.10989    -0.47867    -0.31854    -0.18666
-0.73884    -0.30035    -0.04927    -0.32211    -0.52966    -0.34907    -0.19641
-0.62645     -0.2487   -0.044073    -0.60307    -0.55727    -0.34225    -0.19608
-0.49718    -0.19511   -0.040175    -0.72227    -0.56831    -0.30067    -0.18569
-0.3705    -0.15126   -0.042449    -0.73364    -0.56019    -0.23506    -0.16653
-0.26267    -0.12365   -0.052518    -0.69564    -0.51537    -0.15841    -0.14022
-0.16718    -0.11001   -0.064211    -0.60242     -0.4176   -0.076554    -0.10611
-0.062912    -0.10676   -0.073955    -0.39487    -0.26462   0.0078962   -0.062262
0.065062    -0.10676     -0.0837   -0.070707    -0.07428    0.094945   -0.014191
0.21155    -0.10416   -0.093769     0.24825      0.1245     0.17874    0.027709
0.34635   -0.095717    -0.11261      0.4165     0.29178     0.24371     0.05207
0.42495   -0.084349    -0.14087     0.37753     0.38435     0.27489    0.056292
0.4178   -0.069083    -0.16945     0.20083     0.37493     0.26547     0.04395
0.32751   -0.053168    -0.18374    0.026085     0.26449     0.21967    0.023162
0.1768   -0.046347    -0.17757   -0.036278      0.0865     0.15471     0.01017
0.00075039   -0.058689    -0.15613    0.047198    -0.11228    0.089098    0.015042
-0.15678   -0.088896     -0.1308     0.22194    -0.28605    0.037778    0.034855
-0.25487    -0.13112    -0.11293     0.38597    -0.40786   0.0091954    0.056617
-0.27534    -0.17919    -0.11066     0.45678    -0.47509  -0.0034721    0.064413
-0.22077    -0.23506    -0.12105     0.41423    -0.50595   -0.016789    0.052395
-0.13145    -0.30749    -0.13664     0.29308    -0.53843   -0.039851    0.025761
-0.057065     -0.3835    -0.14671     0.14367    -0.60079   -0.071357  -0.0018481
-0.029782     -0.4254    -0.14574   0.0059473    -0.70895    -0.10286   -0.017114
-0.046671    -0.38577    -0.12917   -0.094093    -0.84277    -0.11521   -0.011917
-0.081751    -0.24643   -0.095717    -0.14281    -0.95906   -0.089546    0.015042
-0.11293   -0.029132   -0.045047    -0.14152     -1.0136   -0.025234    0.056617
-0.12722       0.207     0.01764    -0.10059    -0.97172     0.06019    0.097868
-0.11975     0.40091    0.080978   -0.036278    -0.81289     0.13912      0.1245
-0.097341     0.51167     0.12807    0.032906    -0.51894     0.18849     0.13035
-0.071357     0.52824     0.15471    0.087474   -0.079802     0.20408     0.11736
-0.051219     0.45775     0.16153     0.11248     0.46782     0.19434     0.09462
-0.037577     0.32653     0.15666    0.098842      1.0573     0.16608    0.071558
-0.016789      0.1664     0.14919    0.049472      1.6287     0.11833    0.053694
0.040702    0.014392     0.14561   -0.015815       2.136    0.054668    0.038753
0.169   -0.092469     0.14464   -0.070382      2.5232   -0.011917    0.022512
0.36616    -0.14022     0.14107    -0.11521      2.6973   -0.073955      0.0014
0.58475    -0.13697     0.11995    -0.18634      2.5524     -0.1334   -0.028157
0.75495    -0.11423     0.06831    -0.32698      2.0746    -0.20258   -0.069083
0.82836   -0.090196   -0.013866      -0.542      1.3744    -0.27728     -0.1178
0.77607   -0.069733    -0.10968    -0.78204     0.61951    -0.32698     -0.1662
0.5841   -0.052518    -0.19998    -0.99316   -0.052193    -0.32276    -0.19706
0.26092   -0.034654    -0.26689     -1.1302    -0.55922     -0.2474    -0.19836
-0.14476  -0.0018481     -0.2984     -1.1474    -0.89897     -0.1191     -0.1649
-0.54525    0.057592    -0.27891    -0.97497      -1.151    0.020239    -0.10514
-0.8405      0.1349    -0.20972    -0.55824     -1.4323      0.1271   -0.036927
-0.95191     0.20798    -0.10514    0.056292     -1.8078     0.17355    0.017316
-0.86421     0.25605   0.0056225     0.69909     -2.2118     0.15081    0.045899
-0.63522     0.27067     0.10339      1.1895     -2.4824    0.078055    0.044275
-0.37505     0.25507     0.17745      1.4231      -2.448  -0.0093186    0.026735
-0.19413     0.21285     0.22162      1.3877     -2.0238   -0.080127   0.0075714
-0.16165     0.14139     0.23721      1.1447     -1.2602    -0.11586 -0.00087364
-0.26884    0.048822     0.23136     0.78971    -0.30327    -0.11651  -0.0015233
-0.44943   -0.046347     0.21707     0.41585     0.68025    -0.10189 -0.00022403
-0.62645     -0.1217     0.20181     0.10144       1.554   -0.093444  -0.0031473
-0.74631    -0.15808     0.18297    -0.10384      2.2062   -0.097991   -0.015815
-0.78041    -0.15029     0.15016    -0.19446      2.4966    -0.11293   -0.035303
-0.7226    -0.10774    0.094945    -0.20583      2.2906    -0.13047   -0.053492
-0.57903   -0.055441    0.020239    -0.19251      1.5205    -0.14444   -0.062587
-0.36433   -0.013216   -0.050894    -0.21492     0.26319    -0.15711   -0.062262
-0.11131    0.017965   -0.094418    -0.30327     -1.1621    -0.16685   -0.055766
0.12385    0.056617   -0.093444    -0.43904     -2.3135     -0.1701   -0.043748
0.28561     0.12645   -0.048945    -0.58423     -2.9173    -0.16003   -0.026858
0.3418     0.22844    0.019264    -0.70278     -2.9066    -0.13664  -0.0099683
0.30574     0.33855    0.084876    -0.76125     -2.4181    -0.10644   0.0033489
0.22194     0.42755     0.12775    -0.74631     -1.7068   -0.077853   0.0095202
0.14042      0.4662     0.14172    -0.65439     -1.0211    -0.05804    0.012768
0.099492     0.43892     0.13197     -0.4569    -0.50433   -0.046022    0.015042
0.11508     0.35869     0.11508   -0.094093    -0.17952   -0.034654    0.019264
0.17939     0.26352     0.10956     0.43794   0.0039985   -0.013541    0.030633
0.26352     0.19011     0.11898      1.0236     0.11541    0.011144     0.05142
0.33368     0.15828      0.1349      1.4517     0.18329    0.022512    0.073832
0.37785      0.1625     0.14691      1.5085     0.18264   0.0036737    0.087474
0.40579      0.1755     0.14789      1.0967    0.089748   -0.052193    0.084876
0.43502      0.1638     0.13587     0.35284   -0.049595    -0.13047    0.067011
0.48829     0.10859     0.11021    -0.39422    -0.11326     -0.2029    0.041027
0.57339    0.012768    0.079354    -0.83238   -0.015815    -0.24123    0.015042
0.67148    -0.10416    0.049147    -0.85901      0.2148    -0.23636  -0.0054209
0.75073    -0.21557    0.019264    -0.56214     0.46685    -0.20096   -0.019388
0.78484     -0.2984   -0.010618    -0.13307     0.61464    -0.15256   -0.027183
0.7595    -0.34744   -0.045047     0.24533     0.59547    -0.10676   -0.030431
0.67667    -0.36953   -0.082076     0.47432     0.43859   -0.073306   -0.031081
0.55097     -0.3705    -0.12105      0.5487     0.24013   -0.051219   -0.032705
0.40449    -0.35167    -0.15223     0.51849     0.11638   -0.028807   -0.037577
0.25897    -0.30912    -0.16945     0.43307     0.10891   0.0056225   -0.043423
0.13814    -0.23733      -0.174     0.32393     0.15309    0.057592   -0.044398
0.071234    -0.13859    -0.16977     0.19986      0.1742     0.12093   -0.034004
0.06831   -0.022636    -0.15938    0.057267      0.1729     0.18557  -0.0093186
0.11346     0.10209    -0.14087    -0.10968     0.21025     0.24371    0.023812
0.18004     0.22617    -0.11586    -0.29288     0.35966     0.29145    0.057917
0.23754     0.33465   -0.084999    -0.46145     0.65329     0.33303    0.090072
0.26677     0.40286   -0.052193    -0.57676      1.0599     0.36876     0.11931
0.25995     0.41131   -0.022311    -0.61508      1.4806     0.40124     0.14009
0.22032     0.36031  0.00010078    -0.58195      1.7658     0.42495     0.14302
0.15536     0.26742   0.0085458    -0.50465      1.7573      0.4243      0.1258
0.067986     0.16023   0.0046481    -0.42865      1.3779     0.38565    0.092671
-0.039526    0.063113  -0.0076946     -0.3861     0.69551      0.2999    0.056942
-0.15418   -0.010943   -0.026858     -0.3809   -0.087272     0.18297    0.028359
-0.2591    -0.06551    -0.04927    -0.37992    -0.73169    0.063763    0.010819
-0.3416    -0.11033   -0.072656    -0.32828      -1.102   -0.027508   0.0023744
-0.39909    -0.15093   -0.094743    -0.22564     -1.2056    -0.07493  -0.0015233
-0.44001    -0.18601    -0.11261    -0.13047     -1.1468   -0.086298  -0.0060706
-0.47412    -0.21687    -0.12722    -0.10481      -1.036   -0.083375   -0.019388
-0.51082    -0.24675    -0.13924    -0.17335     -0.9308   -0.093119   -0.039526
-0.55792    -0.27793    -0.14606    -0.30717     -0.7999     -0.1334   -0.062912
-0.60826    -0.31626    -0.14574    -0.42052    -0.58163    -0.21265    -0.09182
-0.63912    -0.36109    -0.13729    -0.41955    -0.27728    -0.31918    -0.12625
-0.61963    -0.40493    -0.12235    -0.25715    0.016341    -0.43059    -0.15905
-0.53291    -0.43514    -0.10156    0.031607     0.17939    -0.52414    -0.17984
-0.39746    -0.43936   -0.080127     0.35089     0.21967    -0.58715    -0.18601
-0.25585    -0.40786   -0.064536      0.5971     0.28885    -0.62061    -0.18439
-0.15093     -0.3403   -0.056741     0.70526     0.54675    -0.62613    -0.17757
-0.10254    -0.23863   -0.054467     0.67083      1.0109    -0.60274    -0.16165
-0.12008    -0.11521   -0.050569     0.54091      1.5485    -0.54882     -0.1334
-0.20323   0.0059473   -0.035953     0.38272      1.9662    -0.46892   -0.093769
-0.32958     0.10079  -0.0073698     0.26092      2.1208    -0.36888   -0.053492
-0.45138     0.15309    0.031932     0.21545       1.948    -0.26397   -0.018738
-0.52869     0.16348    0.070909     0.24436      1.4864    -0.17042   0.0069217
-0.53811     0.15146    0.099492     0.30282     0.91573    -0.09929    0.020239
-0.47152     0.13652     0.10436     0.33075      0.5016   -0.055116    0.023487
-0.32471     0.12158    0.078379     0.29892     0.49576   -0.034978    0.021538
-0.088572     0.10209    0.032582     0.22747       1.008   -0.021661    0.025436
0.23364    0.074157  -0.0099683      0.1638      1.8518   0.0023744    0.040377
0.59872    0.043625   -0.027183     0.13782      2.5563    0.038428    0.057267
0.94269     0.01829   -0.014191     0.14172      2.6018    0.078379    0.066037
1.2087   0.0043233    0.015367     0.14854      1.7521     0.10891    0.064737
1.3601   0.0065969      0.0433     0.13977      0.2973     0.12418    0.047523
1.3718    0.023487    0.057917     0.11443     -1.0974     0.13392    0.015692
1.2227    0.047198    0.056942      0.0852     -1.8948     0.15438   -0.028482
0.92093    0.065062    0.047523    0.066686     -2.0111     0.19011   -0.076554
0.51784    0.073832    0.036154    0.063113     -1.6944     0.23624    -0.11131
0.099167    0.079029    0.023487    0.072858     -1.3852     0.28041    -0.11261
-0.2513     0.07708    0.009845    0.090072     -1.4463     0.30737   -0.073306
-0.47477    0.056292  -0.0047713     0.10112     -1.9374     0.30867 -0.00054884
-0.54168    0.015042   -0.018738    0.089748     -2.5977     0.28983    0.084876
-0.47542   -0.035303   -0.034654    0.053694     -3.0752     0.27294     0.15796
-0.33835   -0.078827   -0.051868   0.0039985     -3.1229     0.27684     0.20311
-0.20518    -0.10514    -0.06551   -0.040175     -2.7091      0.3012      0.2148
-0.11033    -0.11618   -0.071682   -0.067134     -2.0134     0.33433     0.19758
-0.060638     -0.1256   -0.073631   -0.071357     -1.2809     0.36389     0.15926
-0.046671    -0.14769   -0.075255   -0.059339    -0.68979     0.37915     0.11346
-0.050569    -0.18212   -0.079152   -0.053492    -0.29223     0.37818    0.075781
-0.053168    -0.20745   -0.086623   -0.093119    -0.04992     0.36583    0.055968
-0.034004    -0.19381   -0.093444    -0.19251    0.092021     0.34959    0.055318
0.014392    -0.12852   -0.095393    -0.31464      0.1755     0.33368     0.06961
0.077405   -0.027508   -0.088572    -0.39779     0.20863     0.31192    0.088773
0.13327    0.073182   -0.072331    -0.40526     0.20408     0.27944    0.098842
0.16153      0.1362   -0.050569    -0.35329     0.19758     0.23429    0.093321
0.14724     0.14529   -0.027183    -0.28281      0.2174     0.18394    0.070909
0.099817     0.11151  0.00042559    -0.18699     0.25702     0.13944    0.039402
0.046548    0.059541    0.037778   -0.022311     0.28528     0.10631     0.01894
0.015367   0.0059473    0.080003      0.2109     0.26709    0.087149    0.019589
0.009845   -0.040175     0.11476     0.43762      0.1703    0.078379    0.037454
0.009845   -0.072656     0.13002     0.54643   -0.021986    0.073832    0.058566
-0.0057458     -0.0824     0.11476     0.47464    -0.27209    0.069934    0.067661
-0.043099   -0.065186    0.074806     0.25248    -0.48289    0.066362    0.061489
-0.097991   -0.026858    0.022188    -0.01614    -0.54882    0.057592    0.042975
-0.16035     0.01894   -0.026858    -0.22597    -0.39649    0.030308    0.013418
-0.22921     0.05207   -0.068109    -0.33445  -0.0021729   -0.022636   -0.017114
-0.30912    0.061814    -0.10059    -0.36693     0.57826   -0.085324   -0.035953
-0.39259    0.051745    -0.12268     -0.3835      1.2107     -0.1308   -0.039851
-0.45723    0.033231     -0.1269    -0.42345      1.7401    -0.13177   -0.028807
-0.47899    0.015692    -0.11293    -0.50303      2.0555   -0.085648  -0.0096434
-0.44748   0.0059473   -0.089221    -0.61054      2.1081   -0.015815    0.008221
-0.37018  -0.0024977   -0.070382    -0.71707      1.9038    0.041351     0.01829
-0.27891   -0.021337   -0.064536    -0.75703       1.503    0.056942    0.017316
-0.21037   -0.052843   -0.065835    -0.62548      1.0245    0.030633   0.0059473
-0.17042   -0.086623   -0.061288    -0.28963     0.61106   -0.016464   -0.012242
-0.12657    -0.10481   -0.038551     0.12775     0.35317   -0.063561   -0.031081
-0.035628   -0.095717   0.0026992      0.4256     0.21317    -0.10449   -0.044723
0.12937   -0.059014    0.052395     0.49446    0.069285    -0.14444   -0.050244
0.36031   0.0059473     0.10112     0.40124    -0.19673    -0.18309   -0.054142
0.60067    0.092671     0.14237     0.32004    -0.63555    -0.22174   -0.059664
0.75983     0.17939     0.16803     0.38727     -1.1822    -0.25357   -0.070058
0.75853     0.23818     0.17939     0.59482      -1.671    -0.26949   -0.079152
0.58313     0.24533     0.17842     0.81634     -1.9338    -0.26592   -0.071682
0.3038     0.20083      0.1664      0.9232     -1.9003    -0.24415   -0.039851
0.015042     0.12807     0.14367     0.86766     -1.6067     -0.2159   0.0043233
-0.22532    0.057917     0.11151     0.69649     -1.1601    -0.18926    0.039402
-0.40039    0.014392    0.069934     0.50258    -0.68005     -0.1649     0.05142
-0.51504   0.0088706    0.024461     0.36778     -0.2565    -0.14704     0.03583
-0.57546    0.037454   -0.013216     0.32361    0.082602    -0.13664   0.0059473
-0.5917    0.083576   -0.028482     0.35284     0.35414    -0.13307   -0.022961
-0.57643     0.12872   -0.020687     0.41001     0.58638    -0.13664   -0.042774
-0.53973     0.15796   0.0023744     0.44769     0.78061    -0.14866   -0.052843
-0.48646     0.16218     0.02641     0.43892     0.93392    -0.16815   -0.062912
-0.42085     0.14821    0.036804     0.38727      1.0375    -0.19446   -0.077528
-0.36303      0.1258    0.029658      0.3051      1.0824    -0.22239   -0.090196
-0.32893     0.09462   0.0039985     0.19628      1.0609    -0.24091   -0.091495
-0.31594     0.05272   -0.029782    0.063438     0.97777    -0.23538   -0.073631
-0.28833     0.01017   -0.058365    -0.07493     0.85077    -0.20225   -0.034004
-0.19283   -0.017114   -0.061288    -0.18374     0.70981    -0.14152    0.026735
0.0059473   -0.024909   -0.028807    -0.23993     0.57306   -0.063886    0.097868
0.28236   -0.017114    0.032906    -0.24221     0.44119    0.010495     0.16478
0.5474  -0.0096434    0.099817    -0.20063     0.31809    0.062789     0.21155
0.70006   -0.033354     0.14139    -0.12917     0.22649    0.084876     0.22649
0.68609     -0.1217     0.13327   -0.049595     0.20863    0.073507     0.20765
0.51914    -0.29385     0.06896    0.016341     0.29048     0.03583     0.15958
0.26319    -0.53388   -0.025884    0.054344     0.47692   -0.018413    0.087474
0.0023744    -0.78366    -0.11001    0.061165      0.7543   -0.069733   0.0043233
-0.18342    -0.95906     -0.1597    0.040052      1.0824    -0.10189    -0.06681
-0.24773    -0.97595    -0.17627  -0.0063954      1.4062    -0.10189    -0.10644
-0.19706    -0.79535    -0.17497   -0.070707      1.6686   -0.068434    -0.10676
-0.096367    -0.44521    -0.17205    -0.14476      1.7807    -0.01549   -0.079802
-0.021661  -0.0089938    -0.16555    -0.22564       1.591    0.037778   -0.047321
-0.010943     0.40806    -0.14509    -0.33965     0.93425    0.068635   -0.029132
-0.053492     0.72475    -0.10838    -0.56506     -0.2932    0.060515   -0.035303
-0.11293     0.91054   -0.061937    -0.97465     -1.9013    0.013418   -0.063561
-0.15418     0.97972   -0.011592     -1.5356     -3.4812   -0.053168   -0.098641
-0.17984     0.97225    0.044599     -2.0991     -4.6453    -0.11391    -0.12203
-0.21005     0.92873     0.11346     -2.5123     -4.9695    -0.14249     -0.1243
-0.25     0.87578     0.19044     -2.7163     -4.8805    -0.13177    -0.10449
-0.26916     0.81277     0.25313     -2.7374     -4.0139   -0.088572   -0.076879
-0.22986     0.72962     0.27749     -2.5366     -2.8105   -0.030431   -0.050569
-0.10351     0.61918     0.26352     -1.9322     -1.5187    0.031607   -0.023285
0.099817     0.49153     0.23396    -0.75053    -0.26462    0.098193    0.008221
0.34472     0.36194     0.20895      0.8917     0.86506     0.17257    0.046548
0.58021     0.23948     0.18492       2.428      1.7482     0.25345    0.084876
0.75983     0.12223     0.14919      3.3437      2.2689     0.32393     0.11443
0.85499    0.014068    0.091372       3.368        2.38     0.36031     0.12418
0.85012    -0.07493    0.011144      2.6323      2.1705     0.35122     0.11183
0.72345    -0.13437   -0.082076      1.5475      1.7804     0.29827    0.080653
0.46945    -0.15841    -0.16393     0.52239      1.3178      0.2109     0.03518
0.12483    -0.15223    -0.20648    -0.15905     0.85337     0.10859   -0.012567
-0.24415    -0.12463    -0.19608    -0.35037     0.42657   0.0039985    -0.04862
-0.55402   -0.078178    -0.13957   -0.053168     0.02706    -0.10384   -0.062587
-0.73364   -0.013866   -0.059339     0.57696    -0.36726    -0.21557   -0.054467
-0.75215    0.056292    0.021863      1.2662    -0.74111    -0.32178     -0.0405
-0.62353     0.11411    0.082602      1.7703     -1.0675    -0.41208   -0.034654
-0.40948     0.13457     0.10599      1.9522     -1.3105    -0.48321   -0.041799
-0.18861     0.10761    0.083901      1.8067     -1.4245    -0.52381   -0.058689
-0.022636    0.038103    0.021863      1.4377     -1.3673    -0.52609   -0.074605
0.067661    -0.04992   -0.053492     0.99109      -1.138    -0.48061   -0.084349
0.095269    -0.13729    -0.11618     0.58963    -0.79665    -0.38869     -0.0824
0.088773     -0.2042    -0.15126     0.29795    -0.43677    -0.26949   -0.071682
0.079679    -0.24221    -0.15581     0.11606    -0.14022    -0.14931   -0.057715
0.081952     -0.2526    -0.13697    0.011144    0.074157   -0.046347   -0.044073
0.094295     -0.2461    -0.11001   -0.056091     0.23429    0.032906   -0.036927
0.11151    -0.23571   -0.084024    -0.11423      0.3772    0.090072   -0.035953
0.12678    -0.22856   -0.064536    -0.18244     0.53668      0.1297   -0.038551
0.13717    -0.22759   -0.054792    -0.27079     0.71143     0.15373   -0.045697
0.14204    -0.23116   -0.060313    -0.38187     0.86182     0.16023   -0.053168
0.14951    -0.23863   -0.079477    -0.49978     0.92288     0.15211   -0.058365
0.1716    -0.24383    -0.10189    -0.59852     0.86701      0.1362   -0.056416
0.21285    -0.23831    -0.11618    -0.65146     0.72052     0.11866   -0.048945
0.2619     -0.2146    -0.11423    -0.64659     0.53343     0.10144   -0.042449
0.30087    -0.17724   -0.096042     -0.5943     0.33985    0.083901   -0.042774
0.30704    -0.14249   -0.066485    -0.51797     0.14139    0.065387   -0.048296
0.27261     -0.1243   -0.032055    -0.44554   -0.068434    0.044599   -0.052193
0.2135    -0.12398  -0.0021729    -0.40299    -0.27631    0.021538   -0.058365
0.16673    -0.12982    0.017316    -0.40234    -0.42475  -0.0047713    -0.06681
0.16738    -0.12852    0.022188    -0.43644    -0.44294   -0.034654   -0.074605
0.2109    -0.11326    0.014717    -0.47314    -0.29807   -0.059989   -0.077203
0.26092   -0.080776   0.0046481    -0.48061   -0.016789   -0.068109   -0.072006
0.28236   -0.033354  -0.0047713    -0.44683      0.3314   -0.052193   -0.060638
0.26937    0.022512   -0.010293    -0.38122      0.6757   -0.015815    -0.04862
0.23364    0.076106  -0.0093186    -0.29547      0.9651    0.030957   -0.041475
0.18816     0.11021  -0.0011985    -0.20258      1.1759    0.069285   -0.043099
0.13457     0.10404    0.012768    -0.12398      1.2922      0.0852    -0.04927
0.08585    0.044599    0.029009   -0.085324       1.286    0.075456    -0.04862
0.079679   -0.061613    0.048172    -0.10611      1.1197    0.047847   -0.027183
0.13522    -0.19089    0.064413    -0.18374      0.7962     0.01017     0.01764
0.22357    -0.31756    0.069285    -0.29547     0.39214   -0.030756    0.072858
0.2908    -0.41533    0.055968    -0.40948    0.029983    -0.06616     0.11541
0.29048    -0.47574    0.028034    -0.52316     -0.2042   -0.090521     0.12353
0.18784    -0.52186   -0.007045    -0.64951    -0.32341    -0.10546    0.087149
-0.016789    -0.58553   -0.045697    -0.81906    -0.41013    -0.11228    0.017316
-0.28865     -0.6755   -0.084999     -1.0334    -0.55142     -0.1204   -0.059014
-0.56636    -0.76352    -0.12495     -1.2494     -0.7593    -0.13177    -0.11748
-0.79048     -0.8051     -0.1597     -1.3969    -0.95906    -0.14574    -0.14931
-0.93567     -0.7658    -0.17659     -1.3995     -1.0591    -0.15353    -0.15905
-0.99284    -0.63132    -0.15808     -1.2176     -1.0091    -0.14509    -0.15483
-0.95158    -0.40591   -0.095068    -0.87363    -0.82166     -0.1204    -0.14671
-0.80997    -0.11358   0.0023744    -0.42865    -0.56149   -0.082076    -0.13469
-0.59495     0.19856     0.11443    0.061489    -0.31009   -0.031406    -0.11683
-0.36044     0.47432     0.21577      0.5513    -0.13827    0.038103   -0.081426
-0.16555     0.66043     0.28008     0.97972     -0.0837     0.12743   -0.022636
-0.046347     0.73287      0.2895      1.2561    -0.12203     0.23201    0.055318
-0.0031473     0.70006     0.24338      1.3058    -0.17789     0.34212     0.13847
-0.012892     0.59417     0.15893      1.1116    -0.16685     0.43664     0.21188
-0.049595     0.44898    0.058241     0.76015   -0.056091     0.48471      0.2606
-0.096367     0.29633   -0.036278     0.40091     0.10956     0.46815     0.27294
-0.14346     0.16056    -0.10871     0.15763     0.25995     0.38337     0.25053
-0.18959    0.058566    -0.14834    0.067986     0.35641     0.25475     0.20376
-0.23603  -0.0044465    -0.15191     0.09397     0.37655     0.11411     0.14951
-0.27761    -0.03238     -0.1191     0.17907     0.31516   -0.017439     0.10014
-0.2997   -0.031406   -0.059989     0.27781     0.17972    -0.12982    0.061165
-0.28378   -0.013866 -0.00054884     0.35479  -0.0067202    -0.21655    0.031932
-0.22434   0.0095202    0.037778     0.38857    -0.18601    -0.27469   0.0095202
-0.12625    0.031932    0.047523     0.37428    -0.28508    -0.29807  -0.0037969
-0.0089938     0.05142    0.033231     0.32166    -0.25162    -0.29028  -0.0089938
0.10436     0.06831   0.0059473      0.2515   -0.087597    -0.26169   -0.013866
0.19661    0.083576   -0.018088     0.18557     0.14302    -0.22369   -0.020362
0.25995    0.096244   -0.025884     0.13814     0.35122    -0.18471   -0.029457
0.28983     0.10371    -0.01614     0.10826      0.4688    -0.14964   -0.041475
0.28691     0.10631      0.0014    0.087799     0.47789    -0.11521   -0.054142
0.258     0.10306    0.015042    0.057917     0.40546   -0.078178   -0.067134
0.21545    0.093645    0.013743  -0.0041217      0.2921     -0.0405   -0.075579
0.16575    0.078379  0.00042559    -0.10351     0.17095   -0.010943   -0.077853
0.11573    0.058566   -0.017439    -0.21167    0.070909   0.0088706   -0.076229
0.072858    0.038428   -0.027508     -0.2906    0.024137    0.027385   -0.069733
0.042326    0.023162   -0.022311    -0.31789     0.05142     0.05272   -0.055116
0.024137    0.014392  -0.0060706    -0.29547      0.1336    0.086175   -0.031081
0.019589   0.0095202    0.014068    -0.24643        0.22     0.12255  -0.0037969
0.019914   0.0049729    0.023162    -0.19641      0.2567     0.15438     0.01764
0.013743  -0.0037969    0.015042     -0.1649     0.22032     0.17582    0.031282
0.0033489   -0.016789  -0.0073698    -0.16035      0.1349     0.19206    0.042001
0.008221   -0.028807   -0.032705    -0.18147    0.070584     0.20733    0.054344
0.050771   -0.037252   -0.055116    -0.21232    0.094295     0.22389     0.06961
0.13262   -0.038551   -0.072006    -0.23279     0.22422     0.23721    0.080328
0.24436   -0.028482   -0.082076    -0.22661     0.42787     0.23461      0.0865
0.36681  -0.0047713   -0.079477    -0.18471     0.65329     0.21642    0.092346
0.46717    0.025761   -0.066485    -0.11326     0.85727     0.18881     0.10047
0.50842    0.051096   -0.050894   -0.029132     0.97972     0.15796     0.10274
0.47107    0.061814   -0.045372     0.04395     0.94627     0.12158    0.090722
0.36713    0.057267   -0.054142    0.088773     0.69746    0.072533    0.062789
0.21642    0.042975    -0.07428    0.092021     0.20051    0.008221    0.024461
0.034206    0.024461   -0.098641    0.062139    -0.48451   -0.061288   -0.013866
-0.16198   0.0075714    -0.11423    0.021863     -1.1728    -0.12203   -0.042124
-0.339  -0.0011985    -0.11358  -0.0047713     -1.6239    -0.16295   -0.050894
-0.45171   0.0036737    -0.09182  -0.0063954     -1.6561    -0.17659   -0.043099
-0.46243     0.02706   -0.048945    0.023162     -1.2621    -0.16847   -0.023935
-0.37473    0.063438   0.0026992     0.07773    -0.61411    -0.14444  -0.0011985
-0.24286    0.094295    0.050446     0.13847    0.031607    -0.10774     0.01829
-0.12885    0.091372    0.083901     0.19369     0.45288    -0.06551    0.028684
-0.060638    0.044599     0.10144     0.24078      0.5578   -0.024585    0.028034
-0.026533   -0.031081     0.10664     0.28041     0.36973   0.0065969    0.021213
0.0062721    -0.10644     0.10436     0.30672  -0.0076946    0.024137    0.013093
0.062789    -0.15288    0.098517     0.31062    -0.44196    0.030633   0.0062721
0.14854    -0.15451    0.087474     0.27424    -0.82686    0.028034      0.0014
0.24046    -0.11748    0.066037     0.19239     -1.0984    0.016341   0.0020496
0.30022   -0.063237    0.027709    0.076106     -1.2183  -0.0034721  0.00042559
0.30834   -0.008669   -0.023935   -0.046022     -1.1841   -0.030106  -0.0083442
0.27456    0.037129   -0.075255    -0.13697     -1.0305   -0.056741   -0.021986
0.21415     0.07773    -0.10968     -0.1597    -0.81647   -0.075255   -0.031406
0.14074      0.1245    -0.11391    -0.10221    -0.60177   -0.078178   -0.033679
0.067011     0.18264   -0.088572    0.013093    -0.42312   -0.062262   -0.027508
-0.0037969     0.24338   -0.042449     0.13587    -0.29385   -0.029132   -0.015815
-0.067459     0.28853   0.0072465     0.21707    -0.20908    0.009845  -0.0041217
-0.11975     0.30802    0.042326     0.21512     -0.1688    0.042651   0.0010752
-0.15256       0.296    0.050121    0.095594      -0.174    0.058241  -0.0015233
-0.16068     0.25345     0.02706    -0.15191    -0.23928    0.047847  -0.0089938
-0.13437     0.19141   -0.016464    -0.47672     -0.3744     0.01894   -0.010943
-0.069083     0.13067   -0.063561    -0.78333    -0.55402    -0.01549  -0.0018481
0.033556    0.093645   -0.094093    -0.97075    -0.70343   -0.042449    0.019589
0.14854    0.084551    -0.10091    -0.96783    -0.73299   -0.056091    0.043625
0.24306    0.096244   -0.088896     -0.7502    -0.58163   -0.059014    0.057592
0.28593     0.11541    -0.06616    -0.33932     -0.2487   -0.053168    0.055643
0.27359     0.12937   -0.028482     0.23689     0.19141   -0.039851      0.0433
0.22032     0.13165    0.028034     0.91671     0.62568   -0.022961    0.033231
0.15114     0.12125    0.094295      1.5666     0.96121  -0.0060706    0.029333
0.086175     0.10501     0.14951      1.9993      1.1334   0.0059473    0.030308
0.03583    0.089748     0.17615      2.0298      1.1041   0.0046481    0.033231
0.003024    0.078704     0.17257      1.5761     0.87156   -0.010943    0.036154
-0.01484    0.071883     0.14821     0.75106     0.48699   -0.038551    0.036804
-0.018738    0.066686     0.11151    -0.15451    0.038753   -0.073306    0.033231
-0.0080194    0.058566    0.071234    -0.82751    -0.36953    -0.10546    0.028034
0.017316    0.044924     0.03453     -1.1396    -0.66933    -0.12755    0.019914
0.048822     0.02706   0.0052977     -1.1345    -0.83206    -0.13567    0.010495
0.079679   0.0043233    -0.01549    -0.94834    -0.86843    -0.13632      0.0014
0.1232   -0.023935   -0.031081    -0.72909    -0.80477    -0.13469   -0.008669
0.20051   -0.056741   -0.043423    -0.56701    -0.66608    -0.13827   -0.019712
0.33043   -0.090196   -0.051544    -0.45366     -0.4673    -0.15256   -0.028482
0.51005    -0.11001   -0.051219    -0.27891    -0.21849     -0.1753   -0.030756
0.70526    -0.10644   -0.031406    0.059216    0.065387    -0.19738    -0.02361
0.84557   -0.079477    0.014392     0.51622     0.35869    -0.20745   -0.010943
0.87708   -0.038551    0.080003     0.92613     0.60392    -0.19608   0.0052977
0.77964  -0.0015233     0.14789       1.148     0.72605     -0.1662    0.023162
0.56299    0.012768     0.19434      1.1574     0.68382    -0.12495    0.039727
0.26417  -0.0080194     0.20018      1.0151     0.51005   -0.085648     0.05142
-0.063886   -0.061613     0.15991     0.81017     0.28691   -0.054467    0.049796
-0.37733    -0.14152    0.083576     0.62146    0.093321   -0.033679    0.029658
-0.65341    -0.23538  -0.0054209     0.48666   -0.021337   -0.022961  -0.0076946
-0.88338    -0.32471    -0.08305      0.4165   -0.039526   -0.017439   -0.048296
-1.0549    -0.38772    -0.12885     0.40449    0.024461  -0.0096434   -0.078178
-1.1549    -0.40493    -0.13372     0.42917     0.13944   0.0026992   -0.090845
-1.1822    -0.36953    -0.10384      0.4584     0.27586    0.015692   -0.088247
-1.1461    -0.29417   -0.056416     0.46003     0.40741    0.022188    -0.07493
-1.0536    -0.20615  -0.0099683     0.41456     0.52759     0.01829   -0.060313
-0.923     -0.1282    0.024461     0.32426      0.6351   0.0039985   -0.051868
-0.77132   -0.070707    0.040052       0.207     0.71273   -0.017114    -0.04927
-0.59917   -0.025884    0.038428      0.0865     0.73059   -0.038227   -0.047321
-0.39324    0.016666    0.026735   -0.024909       0.677   -0.055441   -0.037252
-0.15256    0.051745   0.0091954    -0.11651     0.58118   -0.070058   -0.018738
0.090072    0.067661   -0.011592    -0.18634     0.50907   -0.085973  -0.0041217
0.28041    0.061165   -0.031081    -0.22109     0.52207   -0.095068  -0.0028225
0.37948    0.054993   -0.038551    -0.21037     0.64777     -0.0837   -0.015165
0.3837    0.078379   -0.025234    -0.15646     0.87968   -0.041475   -0.030106
0.31646     0.14269   0.0069217   -0.081101       1.184    0.033881   -0.036927
0.19823     0.22454    0.042001   -0.014191       1.503     0.13002   -0.030106
0.03518     0.28918    0.062139    0.020888      1.7726        0.22   -0.011917
-0.16295     0.30802    0.060515    0.012443      1.9246     0.27911    0.011794
-0.36271     0.27976    0.037454    -0.04115      1.8853     0.29795    0.033556
-0.51797     0.22844   0.0049729    -0.12982      1.6144     0.27879    0.052395
-0.593     0.17907   -0.022961    -0.23344      1.1454     0.22682    0.060515
-0.57676     0.14659   -0.035953    -0.31951     0.60554     0.14821    0.047523
-0.49491     0.11638   -0.039201    -0.36141     0.13814    0.046223   0.0049729
-0.377    0.067336   -0.044073    -0.35199    -0.19251   -0.068758   -0.062262
-0.23019  -0.0054209    -0.05739    -0.30197    -0.42507    -0.17659     -0.1282
-0.046347   -0.093119   -0.077528    -0.24026    -0.64302    -0.25975     -0.1714
0.15049    -0.18471    -0.10254     -0.2042    -0.89962    -0.30944    -0.18212
0.32004    -0.26137    -0.13307    -0.22759     -1.1767    -0.32016     -0.1636
0.43145    -0.30197    -0.16815    -0.32243     -1.3543    -0.29223     -0.1217
0.48309    -0.29417    -0.20388    -0.46535       -1.29    -0.23051   -0.065835
0.49283    -0.24156    -0.23538    -0.60891    -0.92722    -0.15093  -0.0063954
0.46782    -0.16588    -0.25455    -0.70636    -0.33737   -0.075579    0.044924
0.41456   -0.084349    -0.25715    -0.72357     0.31484   -0.022636    0.083576
0.35252  -0.0073698    -0.24318    -0.65731      0.8092    0.003024     0.10501
0.30217    0.063113    -0.21362    -0.53583     0.94107    0.011794     0.11346
0.27651     0.12743    -0.17594    -0.40396     0.58183    0.017965     0.11346
0.27326     0.18232    -0.14054    -0.30035    -0.27371    0.024786     0.11183
0.28398     0.21967    -0.11261    -0.24253     -1.4076    0.031932     0.11248
0.29145     0.23624   -0.095393    -0.22174     -2.4395    0.032906     0.11378
0.28236     0.22422    -0.08305    -0.21362     -3.0515    0.027709     0.11703
0.25735     0.18687   -0.069733    -0.19803     -3.1187    0.022837      0.1245
0.23136     0.12872   -0.050569    -0.15905     -2.7354    0.025111     0.13782
0.21545    0.061165   -0.026209   -0.084999     -2.1102    0.037778     0.15049
0.20798  -0.0067202 -0.00054884    0.021538     -1.4628    0.055968     0.15049
0.19109   -0.065835    0.022188     0.12678      -1.001     0.06961     0.13327
0.14432    -0.10351    0.034206     0.18102    -0.85642    0.074482    0.098842
0.06019    -0.11391    0.030633     0.14821     -1.0013    0.067661    0.056292
-0.050244   -0.099615    0.021863    0.033881     -1.2345    0.050771    0.017965
-0.1649   -0.076554    0.029658    -0.11715      -1.264    0.029009  -0.0057458
-0.26267   -0.059664    0.064413    -0.23896    -0.85544    0.010819   -0.018738
-0.33575   -0.067459     0.11541    -0.28053    0.019914  -0.0011985    -0.03173
-0.38252    -0.10903     0.16543    -0.23246      1.1379  -0.0054209   -0.048945
-0.39909    -0.18342     0.19563    -0.12657      2.1477  -0.0054209   -0.067134
-0.36921    -0.27404     0.19499   -0.016789      2.7834  -0.0011985   -0.078827
-0.27988    -0.35751     0.16738    0.058241      2.9455    0.003024   -0.076879
-0.12917    -0.41728     0.12483    0.084876      2.6677   0.0043233   -0.061937
0.061165    -0.44911    0.081303    0.066686       2.034  -0.0083442   -0.034329
0.26482     -0.4582    0.042975    0.016341      1.1512   -0.045372  -0.0041217
0.45646    -0.45041   0.0078962   -0.058689     0.20993    -0.10319    0.016666
0.60749    -0.42312   -0.023285    -0.15581    -0.54525    -0.15841    0.020888
0.68317    -0.36206   -0.046996    -0.27046    -0.96718    -0.18536   0.0069217
0.65978    -0.25585   -0.056741    -0.39616     -1.0341     -0.1701   -0.019388
0.54415    -0.11066   -0.051544    -0.51927      -0.796    -0.11488    -0.04862
0.3746    0.047198   -0.035303    -0.64334    -0.35719   -0.034654   -0.070058
0.20311     0.19011   -0.019063     -0.7658      0.1232    0.048497   -0.080776
0.067986     0.30282   -0.014191    -0.81582     0.50193     0.11768   -0.076229
-0.020687      0.3733    -0.01614     -0.6703      0.7228     0.16478   -0.060313
-0.07493     0.40481   -0.010943    -0.28378     0.82024     0.18946   -0.034329
-0.10709     0.40643    0.014717     0.23721     0.83421     0.19758  -0.0060706
-0.12852     0.38954    0.054344     0.69389      0.6809     0.18167     0.01017
-0.15548     0.35414    0.090722     0.94886     0.15698      0.1284   0.0043233
-0.19933     0.29892     0.10956     0.98167    -0.78983    0.027709   -0.026209
-0.2591     0.22649     0.10859     0.86766     -1.8474    -0.11196   -0.076229
-0.31918     0.15341    0.096244     0.70493     -2.5503    -0.25877    -0.13015
-0.36823    0.099167     0.08585      0.5487     -2.5785    -0.36758    -0.17042
-0.40688    0.070909    0.083576     0.41066     -1.8906    -0.40104    -0.18601
-0.43936    0.059541    0.079679     0.27879    -0.73786    -0.35556    -0.17919
-0.46892    0.050121    0.061489     0.14042     0.45516    -0.25098    -0.16068
-0.49166    0.037129    0.025436   -0.012892      1.2886    -0.11683    -0.14184
-0.48419    0.025111   -0.020362    -0.17984      1.6163    0.016991    -0.12787
-0.41533    0.023162   -0.061613    -0.31529      1.4919     0.13002    -0.11586
-0.27501     0.03518   -0.082076    -0.35069      1.0941     0.20765   -0.097991
-0.087597    0.055643    -0.07493    -0.27599     0.61139     0.24306   -0.072981
0.10729    0.075456   -0.050244    -0.15808     0.17907     0.23364   -0.046671
0.27424    0.087149   -0.021012   -0.070382    -0.11975     0.18849   -0.030756
0.39572    0.089748  -0.0018481   -0.040825    -0.26364     0.12548   -0.022961
0.4597     0.07708  0.00042559   -0.057715    -0.28476    0.061165   -0.019063
0.4597    0.044599   -0.014516   -0.085324    -0.23279    0.011794   -0.011917
0.40546  -0.0073698   -0.038227   -0.097017    -0.14931  -0.0099683  -0.0011985
0.32101   -0.067459   -0.060963   -0.080451   -0.069733  -0.0047713   0.0078962
0.22584    -0.11618    -0.07428   -0.026209   -0.016789    0.011794   0.0049729
0.13132     -0.1334   -0.069083    0.074806     0.01829    0.028359   -0.011267
0.032906    -0.10838   -0.038551     0.20311    0.064088    0.048497   -0.028157
-0.078178   -0.052518   0.0072465     0.30412     0.14334    0.078379   -0.026533
-0.2094    0.011144    0.051096     0.31159     0.24728     0.11671 -0.00022403
-0.36856    0.057917    0.076106     0.18427     0.32621     0.14626    0.039078
-0.5446    0.081303    0.072208   -0.054792     0.30964     0.15016    0.069934
-0.69921    0.088124    0.050121    -0.32698     0.15341     0.12125    0.080328
-0.78496    0.096893    0.038103    -0.56831    -0.10968    0.075781    0.070909
-0.76677     0.12613    0.055968    -0.76904    -0.36498    0.033881     0.05142
-0.64562      0.1768     0.10339    -0.94282    -0.49783   0.0065969    0.030957
-0.44781     0.23136     0.15926     -1.0848    -0.47802  -0.0057458    0.008221
-0.2016     0.26157     0.19336     -1.1734    -0.35459   -0.012242   -0.020037
0.074482     0.25118     0.19206     -1.1851    -0.21005   -0.019712   -0.049595
0.35122     0.20083     0.16023     -1.0766    -0.10903   -0.026858   -0.063886
0.588      0.1232     0.11606    -0.71935    -0.07428   -0.026209   -0.051544
0.73936     0.03518    0.081952    0.046548   -0.062587  -0.0096434   -0.010943
0.78549   -0.051219    0.067661      1.2077    -0.01549    0.028684    0.049472
0.73871    -0.12982    0.065062      2.4667     0.08585      0.0865     0.11476
0.63932    -0.19511     0.05207      3.3804     0.23136     0.15146     0.16998
0.53084    -0.24415    0.013743      3.5892     0.41618     0.19758     0.20895
0.44736    -0.27306   -0.049595      3.0458     0.64192     0.20733     0.22649
0.41196    -0.27599    -0.12592      2.0386     0.86734     0.17355     0.22389
0.42852    -0.25065    -0.19413     0.98394     0.99271     0.10761     0.20181
0.48017     -0.2068    -0.23441     0.22065     0.91378    0.029658     0.16348
0.52531      -0.161    -0.23928    -0.11098      0.5997   -0.042774     0.11995
0.52791    -0.12592      -0.212    -0.09117     0.13295   -0.092794    0.080003
0.4727    -0.10319     -0.1649    0.098842    -0.33315    -0.10806    0.054668
0.36064   -0.089871    -0.11261     0.28918    -0.63977   -0.078503    0.048172
0.19693   -0.086948   -0.071032      0.3837    -0.70018  -0.0093186    0.055318
-0.015815   -0.095717   -0.055116     0.36518     -0.5459    0.073182    0.063113
-0.26397    -0.12073   -0.066485     0.26514    -0.29937     0.13327    0.065062
-0.51537    -0.15223   -0.094418     0.12645    -0.11228     0.14561     0.06019
-0.73689    -0.17042    -0.12333   -0.014191   -0.090521     0.10631    0.050771
-0.89409    -0.15613    -0.13924    -0.13632     -0.2487    0.040052    0.037454
-0.95873    -0.10806    -0.13502    -0.23376     -0.5014    -0.01614    0.026735
-0.92495   -0.045047    -0.10838    -0.30002    -0.71513   -0.038876     0.02706
-0.80964   0.0020496   -0.067784    -0.32016     -0.7947   -0.038227    0.033881
-0.64172   0.0059473   -0.026533    -0.28443    -0.71935     -0.0405     0.03583
-0.45853   -0.042774 -0.00087364     -0.2042    -0.52739    -0.06616    0.028034
-0.30587    -0.13145   0.0056225    -0.10903    -0.28216    -0.11423   0.0065969
-0.2172    -0.22337 -0.00087364   -0.032055   -0.046996      -0.174   -0.030756
-0.19836    -0.28605   -0.011917    0.003024      0.1297    -0.22954   -0.082076
-0.23701    -0.30067   -0.017764  -0.0099683     0.21155    -0.26657    -0.14119
-0.30294    -0.26754    -0.01549   -0.064861     0.19044    -0.27599    -0.18829
-0.35134    -0.21005  -0.0060706    -0.15223    0.088124    -0.25715     -0.2107
-0.3416    -0.15158   0.0078962    -0.25942   -0.059339    -0.21622    -0.20128
-0.25455    -0.10644    0.019914    -0.35654    -0.19056     -0.1597    -0.16393
-0.10351   -0.072006    0.029658    -0.39616    -0.23181   -0.091495    -0.11131
0.073507   -0.036927    0.039727    -0.35394    -0.11845    -0.02361   -0.061288
0.21837    0.013418    0.048497    -0.26137     0.16056    0.025436    -0.03303
0.28106    0.085525    0.050446    -0.19348     0.52954    0.038428   -0.035303
0.25053       0.169    0.039078    -0.21557     0.86929    0.011794   -0.063561
0.14919     0.24111    0.012119    -0.34257      1.0814   -0.038227   -0.097991
0.021213     0.27911   -0.026209    -0.52186       1.121   -0.087272    -0.11586
-0.096367     0.27294   -0.064211    -0.66835     0.99369    -0.11196    -0.10514
-0.18309     0.23169   -0.088572    -0.71025     0.74716    -0.10514   -0.073631
-0.23409      0.1742   -0.093444    -0.61931     0.44704   -0.080451   -0.035628
-0.25455     0.11898   -0.082725    -0.41825      0.1625   -0.055441  -0.0089938
-0.25487    0.079679   -0.066485    -0.18342   -0.057715   -0.044073 -0.00087364
-0.23766    0.071883   -0.048945   0.0033489    -0.19706   -0.051219  -0.0060706
-0.19348     0.10209   -0.027183    0.095919    -0.26787   -0.068434   -0.011917
-0.10806     0.16868   0.0078962     0.10209     -0.2932   -0.078827   -0.010293
0.028359      0.2567    0.060515    0.059216    -0.30457   -0.072981   0.0017248
0.20311     0.34277     0.11378  -0.0037969     -0.3377   -0.051219    0.019914
0.37883     0.39572     0.14789   -0.080451    -0.40786   -0.022636    0.032257
0.50648     0.39864     0.14756     -0.1753    -0.47379    0.012443    0.031607
0.56267     0.35544     0.12093    -0.28053     -0.4543    0.059216    0.024137
0.55487     0.28398    0.092671    -0.36044    -0.28833     0.11411    0.014392
0.50453     0.20863    0.088773    -0.37408     0.01764     0.16121   0.0052977
0.43664     0.14789     0.11248    -0.31464     0.39377     0.18232  -0.0018481
0.37071     0.10794     0.14691    -0.21817     0.75171     0.16478  -0.0031473
0.31322    0.092346     0.17225    -0.13242       1.019     0.11248  -0.0041217
0.26417    0.094945     0.17517   -0.083375        1.16    0.046548   -0.007045
0.22714     0.10566     0.14951   -0.073955      1.1522  -0.0067202   -0.010943
0.20116     0.11378     0.10989   -0.089546     0.94399   -0.037577   -0.013866
0.17777     0.10956    0.065387    -0.11391     0.46815   -0.058365   -0.013541
0.14626    0.089423     0.02706    -0.13697     -0.2552   -0.093769  -0.0093186
0.10469    0.054993  -0.0041217    -0.15905     -1.0185    -0.15386  -0.0015233
0.066362    0.015692   -0.031081    -0.18407     -1.5483    -0.23149   0.0075714
0.047523   -0.014516   -0.054142    -0.20972     -1.6746    -0.30652    0.021213
0.054993   -0.030431   -0.067134    -0.22661     -1.3962    -0.35556    0.037778
0.084226   -0.025884    -0.06616    -0.22694    -0.86616    -0.36433    0.053694
0.12288  -0.0060706   -0.051219    -0.20908    -0.30749    -0.33055    0.064413
0.16088    0.017316   -0.029132    -0.17984    0.090072    -0.26819     0.06831
0.18784    0.033881   -0.011267    -0.14769     0.22974    -0.19933    0.068635
0.19044    0.031282   -0.008669    -0.12235     0.11443    -0.14411     0.06084
0.16868    0.008221   -0.020362    -0.10838    -0.17594    -0.11131    0.044599
0.12775   -0.031081   -0.039851    -0.10384    -0.51374    -0.10416    0.024137
0.075456   -0.076879    -0.05804    -0.10156    -0.77034    -0.10838   0.0023744
0.003024    -0.11715    -0.06551   -0.096692    -0.85252    -0.10774   -0.018738
-0.10059    -0.13794   -0.059664   -0.086948    -0.73104   -0.093444   -0.035628
-0.22824    -0.13632   -0.044723   -0.073306    -0.44976   -0.061937    -0.04992
-0.35686     -0.1321   -0.030756    -0.05804    -0.11586   -0.016464   -0.059664
-0.45171    -0.14801   -0.023285   -0.043748     0.15309    0.032257   -0.063561
-0.47672    -0.19478   -0.021337    -0.03303     0.28106    0.074482   -0.056416
-0.40883    -0.26169   -0.019063   -0.023285     0.26774    0.096244   -0.044073
-0.26007    -0.33088   -0.013866   -0.013216     0.16998    0.092346   -0.029132
-0.051868     -0.3809  -0.0099683  -0.0047713     0.06019    0.065387   -0.013216
0.19823    -0.40039   -0.012567  -0.0037969   -0.007045    0.027385   0.0049729
0.46263    -0.38545   -0.019712  -0.0083442   0.0091954 -0.00054884    0.025111
0.70266    -0.34387   -0.027833  -0.0076946     0.12255 -0.00087364      0.0433
0.86214    -0.28638   -0.034654   0.0075714      0.2947    0.036154    0.054993
0.89072     -0.2172    -0.04115    0.045249     0.46068     0.10209    0.061489
0.76145    -0.13307   -0.043099     0.10047     0.56559     0.17972    0.069934
0.48666   -0.037902   -0.036927     0.16185     0.59028     0.24695    0.081627
0.10631    0.053694   -0.019712     0.21285     0.55909     0.28528    0.094295
-0.31139     0.11606  -0.0015233     0.23916     0.50777     0.28918    0.097543
-0.68882     0.13002  0.00075039     0.22812     0.43015     0.26125    0.082927
-0.94996    0.096244   -0.021012     0.17907     0.27229     0.20993    0.050771
-1.036    0.040702   -0.059989     0.10436   -0.029132     0.14659    0.013093
-0.92755  0.00010078   -0.096692    0.027709    -0.46795    0.081627    -0.01614
-0.66933      0.0014    -0.11878   -0.028807    -0.92917    0.024137   -0.026209
-0.35264     0.04395    -0.12463   -0.053492     -1.2439   -0.024585   -0.018088
-0.062587     0.10729     -0.1178   -0.041799     -1.2566   -0.073955  -0.0015233
0.14367     0.16283   -0.094743   0.0020496    -0.89344     -0.1321   0.0078962
0.24793     0.19531   -0.051544    0.070584    -0.22597    -0.19511   0.0033489
0.27326       0.207     0.01017     0.15309     0.54708    -0.24383   -0.010943
0.27164     0.20928    0.080328     0.23559      1.2058    -0.24708   -0.022636
0.28756     0.21317     0.13782     0.30672      1.6427    -0.18861   -0.019712
0.34212     0.21772      0.1638     0.34894      1.8687   -0.078178    0.003024
0.4308     0.21058     0.15081      0.3392      1.9392    0.057592    0.041351
0.53408     0.18167     0.10534     0.25572      1.8427     0.18589    0.090072
0.61691     0.12385    0.036804     0.10826      1.4747     0.28106     0.14237
0.63867    0.041351   -0.044398   -0.072331     0.75495     0.32881     0.19174
0.56786   -0.046022    -0.12885    -0.26364    -0.18666      0.3353     0.23299
0.39929    -0.11358    -0.20323    -0.45593     -1.0013     0.31127      0.2567
0.15958    -0.14119    -0.25422    -0.62548     -1.3995     0.27067     0.25313
-0.096042    -0.12463    -0.26851    -0.72844     -1.3368     0.21707     0.22162
-0.30132   -0.080776    -0.24318     -0.7213     -1.0032     0.14984     0.17127
-0.42767   -0.034654    -0.18959    -0.58325    -0.65309    0.056942     0.10956
-0.49718  -0.0067202    -0.12398     -0.3325    -0.46048    -0.05804    0.045574
-0.54785  -0.0031473   -0.063237   -0.046996    -0.42897    -0.17952   -0.012242
-0.5917   -0.018088   -0.023935     0.16153    -0.44683    -0.27988   -0.060638
-0.60274   -0.035628   -0.020037     0.19434     -0.4137    -0.33705   -0.094743
-0.55305   -0.042449   -0.053492  -0.0057458    -0.33445    -0.35134    -0.11293
-0.44099   -0.036602    -0.11261    -0.39876    -0.31691    -0.33802    -0.11488
-0.29158   -0.023935    -0.17465    -0.85479    -0.47834    -0.31626    -0.10709
-0.14671   -0.012242     -0.2107     -1.2196    -0.80412    -0.30035   -0.096042
-0.036602  -0.0044465     -0.2055     -1.3618      -1.138    -0.29028   -0.089546
0.020888  -0.0028225    -0.15776     -1.2277     -1.2878    -0.28248    -0.09182
0.031282   -0.008669     -0.0824     -0.8353     -1.1455    -0.26787   -0.097666
0.012119   -0.016464    0.003024    -0.22986    -0.74436    -0.23896    -0.09929
-0.012567   -0.014516    0.087799     0.56007    -0.22239    -0.19446   -0.090845
-0.02426  0.00042559      0.1703      1.4341     0.26742     -0.1334    -0.07428
-0.021337    0.019914     0.24143      2.1844     0.61951   -0.054467   -0.053168
-0.014191     0.02706     0.27814      2.5749      0.8001    0.029658    -0.03238
-0.017439   0.0049729     0.26807      2.4992       0.842     0.10112   -0.021012
-0.033679   -0.043099     0.21935       2.049     0.80595     0.14529   -0.026209
-0.056741    -0.10546     0.15244      1.4465     0.74846     0.15731    -0.04115
-0.092145    -0.16782    0.081303     0.90794     0.69974     0.13944   -0.061613
-0.14022    -0.21395    0.020888     0.56039     0.65686     0.10242   -0.077528
-0.19219    -0.22921   -0.025559     0.41196     0.59222    0.060515   -0.087272
-0.23668    -0.20972   -0.059664     0.38532     0.47562    0.020888   -0.090196
-0.2578    -0.17075   -0.085973     0.38272     0.30607  -0.0047713   -0.087272
-0.23863     -0.1204    -0.10384     0.33075     0.11411  -0.0080194   -0.080451
-0.17237   -0.064861    -0.11391     0.19693   -0.056416    0.012119   -0.070707
-0.093769  -0.0076946     -0.1191    0.011469    -0.16945    0.049147   -0.060638
-0.051219    0.045249    -0.11553    -0.13794     -0.2133    0.093645   -0.055441
-0.072656    0.090397   -0.096042    -0.15905    -0.20031     0.13262   -0.061613
-0.14899      0.1245   -0.053817   -0.023935    -0.14476     0.15796   -0.072656
-0.24123     0.14659     0.01017     0.22487   -0.057715      0.1716   -0.076879
-0.30262     0.15211    0.083251     0.49413    0.046548     0.17387   -0.070058
-0.31009     0.13425     0.14821     0.68317     0.14529      0.1651   -0.054467
-0.26267    0.093645     0.18914     0.73417     0.21642     0.14626   -0.034329
-0.1714    0.037129     0.19953     0.65914      0.2502     0.12385    -0.01614
-0.050894   -0.025234     0.18167      0.5081     0.24988     0.10339  -0.0024977
0.086824   -0.079477     0.15049      0.3444     0.22877    0.082277   0.0072465
0.23039    -0.11196     0.12093     0.21447     0.20051    0.059216    0.012768
0.36291    -0.12008     0.10047       0.131     0.17257    0.038428    0.015692
0.4701    -0.10903    0.089423    0.083251     0.14269    0.020888    0.018615
0.5422   -0.089546    0.085525    0.051745     0.10209   0.0033489     0.01894
0.56884   -0.068434    0.080978    0.019589    0.036154   -0.017764    0.015692
0.54318   -0.044398    0.067011   -0.020362   -0.077528   -0.046671   0.0026992
0.4636   -0.018413    0.040702   -0.071682    -0.26884    -0.08305   -0.020037
0.33465   0.0069217   0.0062721     -0.1334    -0.53031    -0.12625    -0.04992
0.17745    0.027385   -0.021986    -0.20031    -0.79633    -0.17042   -0.085648
0.025111    0.040052    -0.03238    -0.26202    -0.98049    -0.19738    -0.11293
-0.09117    0.044275   -0.023285    -0.30847     -1.0292    -0.19381    -0.11748
-0.16165    0.042326 -0.00054884    -0.33283    -0.95256    -0.15743    -0.10026
-0.18829    0.038753    0.021213    -0.33802    -0.80217    -0.10481   -0.068758
-0.18309    0.046223    0.032906     -0.3325    -0.63262   -0.058365   -0.037902
-0.16035    0.072533    0.033231    -0.32828    -0.48451   -0.032705   -0.010618
-0.13047     0.11703    0.024137    -0.33055    -0.37115   -0.026209    0.012443
-0.10871     0.16608    0.013743     -0.3364    -0.28638   -0.025559    0.034206
-0.11001     0.20603   0.0049729    -0.33965    -0.21167   -0.021337    0.057592
-0.13145     0.22162  0.00075039     -0.3364    -0.12625  -0.0050961    0.081627
-0.15288     0.20668      0.0014    -0.32568   -0.018738    0.026735     0.10469
-0.14996     0.16218    0.003024    -0.31074     0.09397     0.06961      0.1219
-0.11715     0.10209   0.0036737    -0.29775     0.18232     0.11183     0.13197
-0.068758    0.038753 -0.00054884    -0.28768      0.2187     0.13587     0.13327
-0.027508   -0.017114  -0.0096434    -0.28086     0.18167      0.1323     0.12255
-0.0015233   -0.062912   -0.023285    -0.27534    0.080978     0.10599    0.098517
0.013418   -0.098316   -0.038551    -0.27696   -0.044073    0.070584    0.064413
0.030633     -0.1204   -0.051219    -0.29223    -0.13275    0.039402    0.023487
0.059216    -0.12625   -0.056091    -0.31886    -0.14087    0.028034    -0.01484
0.10177     -0.1178   -0.047321    -0.33672   -0.062587    0.037454   -0.040825
0.15861    -0.10189   -0.022636    -0.32081    0.072208    0.064088   -0.048945
0.23104   -0.077853   0.0088706    -0.27209     0.22194    0.098517   -0.039526
0.31939   -0.041475    0.031282    -0.22467     0.34829     0.12743   -0.019388
0.4243   0.0088706    0.033231    -0.22532     0.41196     0.13587  -0.0024977
0.5422    0.070909    0.011469    -0.27923     0.38825     0.12418   0.0039985
0.66076     0.13717   -0.022961    -0.35134     0.30185     0.10274 -0.00022403
0.74553     0.19531   -0.057715    -0.40071      0.2109     0.08585   -0.012892
0.74586     0.22941    -0.08305    -0.41208      0.1729    0.071558   -0.032705
0.62503     0.23689   -0.095068    -0.41598      0.2148    0.056292   -0.055766
0.41163     0.22974   -0.096042    -0.45073     0.32978    0.042975   -0.079152
0.18654     0.22162   -0.093119    -0.52674     0.48536    0.039727    -0.09117
0.022188     0.21058   -0.096042    -0.61573     0.64257    0.052395   -0.081101
-0.068109     0.19271    -0.11163     -0.6716     0.76827    0.081627   -0.047321
-0.11651     0.16088    -0.13404    -0.67615     0.85759     0.11801   0.0046481
-0.1636     0.10826    -0.15841    -0.64627     0.87708     0.14269    0.055318
-0.23246    0.029983    -0.17789    -0.62061      0.7569     0.13425      0.0865
-0.32568   -0.070382    -0.18114    -0.63003     0.44834     0.07708    0.087149
-0.43319    -0.17497    -0.15743    -0.66153   -0.011592   -0.015165    0.061814
-0.53323    -0.26754    -0.10416    -0.66478    -0.51374    -0.11521     0.02706
-0.60891    -0.33867   -0.031081     -0.5943    -0.97887    -0.20193  -0.0021729
-0.65471    -0.38934    0.041676    -0.43417      -1.366    -0.26657   -0.025234
-0.67452    -0.41858    0.095594    -0.19868     -1.6135    -0.31009   -0.046347
-0.6755      -0.428     0.12028    0.057917     -1.6467     -0.3325   -0.071682
-0.66575     -0.4163     0.12223     0.29827     -1.4174    -0.32925    -0.10286
-0.6375    -0.38155     0.11216     0.51102     -0.9636    -0.30132    -0.13145
-0.57351    -0.33607    0.094295     0.65654     -0.4137    -0.26072    -0.15093
-0.47769    -0.31236    0.061165     0.63348    0.075456    -0.22467    -0.15808
-0.39032     -0.3338    0.008221     0.33303     0.39572     -0.2016    -0.14834
-0.37018    -0.39227   -0.050894    -0.24091     0.52759    -0.18407    -0.12008
-0.44001    -0.44001   -0.091495    -0.91131     0.50842    -0.16328   -0.072981
-0.56019    -0.41111   -0.098965     -1.4274     0.39572    -0.13664    -0.01549
-0.67355    -0.27339   -0.075904     -1.5843     0.23883    -0.11586    0.037454
-0.75183   -0.044398   -0.036927     -1.2835    0.079679    -0.10936    0.072858
-0.78626     0.22324   0.0072465    -0.56864   -0.042449    -0.11163    0.086175
-0.76515     0.47724    0.049472     0.37688   -0.086298    -0.10968    0.082602
-0.66413     0.68187    0.082602      1.2685  -0.0089938   -0.096367    0.073832
-0.47867     0.82284     0.10014      1.8729     0.18784   -0.069408    0.067661
-0.23766     0.89267    0.097543      2.0766     0.42495   -0.038227    0.064737
0.016666     0.89397    0.080653       1.923     0.58216   -0.015165    0.063763
0.26319      0.8407    0.062139       1.578      0.5893  -0.0037969    0.064088
0.49056     0.74618    0.055968      1.2321     0.45191  -0.0044465    0.065387
0.67473     0.62276    0.058566      1.0025     0.23559   -0.015165    0.067011
0.78646     0.47984    0.060515     0.90761    0.041027   -0.029132    0.069285
0.81179     0.32523    0.053369     0.89202     -0.0837   -0.034978    0.072208
0.75365     0.17062    0.034206     0.88098    -0.17237   -0.021986    0.075456
0.6377    0.039078    0.009845     0.82154    -0.27274    0.013418    0.075456
0.49998   -0.050244  -0.0057458     0.69746    -0.38252    0.053694     0.06896
0.3772   -0.088896  -0.0011985     0.52369    -0.47022    0.076431    0.056942
0.2973   -0.081426    0.022188     0.33855     -0.5118     0.06831    0.044924
0.26255   -0.049595    0.056617     0.17582    -0.50238    0.032257    0.034206
0.25215   -0.017114    0.086175    0.044599    -0.44456   -0.018088    0.021863
0.25053 -0.00054884     0.10177   -0.067459    -0.33543   -0.073955   0.0043233
0.24695  -0.0037969    0.096244    -0.16977    -0.12885    -0.13827   -0.018413
0.23916   -0.025234    0.079354    -0.24286     0.18914    -0.20583   -0.040825
0.23234   -0.055116    0.065062    -0.25942     0.53279    -0.26462   -0.063561
0.22844   -0.086948    0.045899    -0.22629     0.77639    -0.30165   -0.080776
0.22844    -0.12203    0.003024    -0.19641     0.83713    -0.31074   -0.096692
0.23169    -0.15776   -0.072006    -0.22207     0.71143    -0.29417    -0.10741
0.23916    -0.18342      -0.161    -0.30717     0.51102    -0.25877    -0.10416
0.2606    -0.18374    -0.22759    -0.41728     0.41163    -0.20972   -0.077853
0.30704    -0.15353    -0.24675    -0.49588     0.51395    -0.14769   -0.026858
0.37428    -0.10351    -0.21557    -0.49101     0.78224    -0.07428    0.044599
0.44444   -0.055766     -0.1623    -0.38934      1.0856   0.0023744     0.12255
0.50225   -0.027508    -0.12008    -0.22954      1.2883    0.074157     0.18881
0.52986   -0.025559    -0.11098   -0.090521      1.3149     0.13392     0.22812
0.51622   -0.044073    -0.13404   -0.064211       1.183     0.18102     0.23071
0.46523   -0.071682     -0.1753    -0.19381     0.96705     0.21188     0.20116
0.38532    -0.10189      -0.212    -0.43092     0.73222     0.22389     0.15373
0.28853     -0.1295    -0.22629    -0.65926     0.51622     0.22227     0.10566
0.18979    -0.15256    -0.21297    -0.78171     0.32458     0.22065    0.065387
0.10794    -0.16815    -0.17465    -0.75962     0.13197     0.22552     0.03583
0.05207    -0.17887    -0.12203    -0.61249   -0.076554     0.23461    0.013743
0.021213    -0.18179   -0.067784     -0.3796    -0.28183     0.23689  -0.0018481
0.0095202    -0.17465   -0.019388   -0.088572     -0.4241     0.22909   -0.011267
0.014068    -0.15581    0.024137     0.21642    -0.42605     0.21058   -0.015815
0.029983     -0.1282    0.065062     0.45873    -0.22661     0.18037   -0.021337
0.056292   -0.097341     0.10047     0.56267     0.20798     0.14042   -0.027508
0.088124   -0.067784     0.12548     0.51362     0.85662    0.097543   -0.033354
0.11931   -0.040825     0.14009      0.3733      1.6124    0.056292   -0.039851
0.14724   -0.021337     0.14821     0.23591      2.2975    0.021538   -0.043748
0.169  -0.0067202     0.15276      0.1703      2.7028  -0.0063954   -0.045372
0.1781   0.0043233     0.15309     0.18881      2.6093   -0.034654   -0.046022
0.16218   0.0039985     0.14529     0.25475      1.8116   -0.072331   -0.050894
0.10729    -0.01484     0.12775     0.31192     0.22552    -0.12463   -0.062587
0.023812   -0.044723     0.10209     0.31939     -1.8981    -0.18991    -0.08305
-0.060963   -0.073955    0.072208     0.26514     -3.9418    -0.25227    -0.10774
-0.12365   -0.089221    0.045574     0.16673     -4.9701    -0.28703    -0.12982
-0.15223   -0.082725    0.027385     0.06084     -4.9698    -0.28183    -0.14249
-0.14574   -0.059339    0.019914   -0.016789     -4.9698    -0.23701    -0.13762
-0.11196   -0.027183    0.021213   -0.050569     -4.2445    -0.16588     -0.1178
-0.06616  -0.0028225     0.02706   -0.042774     -2.9199   -0.085973   -0.094743
-0.033679   0.0023744    0.030957  -0.0063954     -1.7282  -0.0080194   -0.077203
-0.034004   -0.020362    0.030308    0.039727    -0.81159    0.065712   -0.066485
-0.067784   -0.060313    0.030308    0.078379    -0.12885     0.14139   -0.057065
-0.11326   -0.093444    0.041676     0.09397     0.41358     0.22844   -0.044723
-0.1256   -0.096692    0.072533    0.085525     0.90566     0.32621   -0.026858
-0.066485   -0.064211     0.12125    0.062789      1.4075      0.4165  -0.0063954
0.058566   -0.012567     0.17225    0.039727      1.9031     0.47594    0.013418
0.20603    0.031607     0.20408     0.02706      2.2838     0.48861    0.028359
0.31581     0.04395     0.20148    0.019914       2.393     0.44963    0.039727
0.33563    0.019589     0.16315   0.0072465      2.1386     0.36389    0.046548
0.24208   -0.037902    0.097543   -0.021986      1.5494     0.24468    0.046548
0.042326     -0.1204    0.022188   -0.072656     0.74586     0.11086    0.034206
-0.23344    -0.21752   -0.045372    -0.13664    -0.13567   -0.029132   0.0075714
-0.53031    -0.31204   -0.091495     -0.2016    -0.97919    -0.17302   -0.024585
-0.78593    -0.38155    -0.11098    -0.25487     -1.7058    -0.32016    -0.05804
-0.94736    -0.40916    -0.10611    -0.28995     -2.2443    -0.46925   -0.088572
-0.98212    -0.38512   -0.089546    -0.30619     -2.5188    -0.60502    -0.11683
-0.8902    -0.32081    -0.07493    -0.30522     -2.4665    -0.69694    -0.14152
-0.71805    -0.24058   -0.069408     -0.2958     -2.0757     -0.7148    -0.16165
-0.54298    -0.16555   -0.070058    -0.27306      -1.418    -0.64854    -0.16945
-0.4163    -0.09929    -0.06551    -0.23603    -0.62678    -0.51115    -0.16003
-0.35167   -0.036602   -0.050244    -0.18894     0.12775     -0.3403    -0.13502
-0.32795    0.019914   -0.026858    -0.13859     0.70006    -0.18212    -0.10741
-0.31464    0.070259  -0.0041217   -0.098965      1.0268   -0.062912   -0.082076
-0.28833     0.11118   0.0095202   -0.072656      1.1278    0.013743   -0.056741
-0.23246     0.14172    0.011144   -0.055116      1.0759     0.06019   -0.028157
-0.13697      0.1638   0.0043233   -0.043748     0.96543    0.091372   0.0033489
-0.0067202     0.18037  -0.0047713   -0.036927     0.86864     0.11378    0.030957
0.12872     0.20116   -0.010943   -0.040175     0.82316     0.13262    0.048497
0.23104     0.22584   -0.011267   -0.045697     0.83778     0.14919     0.05207
0.27424     0.25085  -0.0021729   -0.046671     0.90047      0.1638     0.04395
0.2463     0.26677    0.012119   -0.036602     0.97517     0.17192    0.027709
0.14789      0.2619    0.027385   -0.017114      1.0258     0.17712   0.0023744
-0.0080194     0.22747    0.037129     0.01017      1.0297     0.18297   -0.026858
-0.18894     0.15893    0.036479    0.040377     0.97907     0.19076   -0.046022
-0.34062    0.070909    0.030308    0.074157     0.88683     0.19628   -0.042124
-0.40201   -0.013541    0.027385     0.10924     0.77412     0.19336   -0.013866
-0.33543   -0.078503    0.031282     0.13782     0.66238      0.1781    0.029658
-0.15938    -0.12333    0.033881     0.14984      0.5513     0.15049    0.073832
0.060515    -0.15808    0.022837     0.13717     0.42885     0.10859     0.10306
0.24663    -0.18699 -0.00022403    0.090072     0.29178    0.049472     0.10794
0.35154    -0.20225   -0.027508   0.0017248     0.14561   -0.026533    0.091696
0.3772    -0.19348   -0.052518    -0.12755   -0.011917    -0.10968    0.065062
0.35252    -0.15613   -0.071032    -0.27241    -0.17465    -0.18471    0.041676
0.30055   -0.094093   -0.080451    -0.38382    -0.30035    -0.22791    0.030633
0.22941   -0.015165   -0.082725    -0.40883    -0.34614    -0.22629    0.036804
0.14399    0.075456   -0.077853    -0.31529    -0.29093    -0.18017    0.052395
0.051745     0.16575   -0.072006     -0.1204    -0.16328    -0.11066    0.064737
-0.042449     0.23851   -0.069408     0.10631   -0.024585   -0.042449    0.070259
-0.13047     0.27781   -0.065835     0.28041    0.066686   0.0075714    0.072858
-0.18471     0.28983   -0.055116     0.33628    0.083901    0.041027    0.078055
-0.18569     0.29535   -0.036278     0.25767    0.032906    0.070259    0.092346
-0.15061     0.31322   -0.016789     0.10014   -0.050569     0.10826     0.11411
-0.10903     0.34667  -0.0096434   -0.038551    -0.14314     0.15568     0.13652
-0.087272     0.38402   -0.018413     -0.0837    -0.26624     0.20343     0.14919
-0.095068     0.39896   -0.044723   -0.030756    -0.47932     0.23169     0.14334
-0.1295     0.37168   -0.081751    0.062464    -0.83173     0.22292     0.11703
-0.18082     0.30412    -0.11878     0.11768     -1.2783       0.169     0.07708
-0.22824     0.22389    -0.13307    0.082602     -1.6788    0.086175    0.032906
-0.24383      0.1625    -0.11196   -0.044723     -1.8835   0.0091954  -0.0021729
-0.20615       0.131   -0.061937    -0.21005     -1.8094   -0.033679   -0.021012
-0.11845     0.11995  -0.0018481    -0.32081     -1.4878   -0.035628   -0.022311
-0.0073698     0.11248    0.044924    -0.28183     -1.0338   -0.012567   -0.013866
0.097543    0.097218    0.067661   -0.057715     -0.5813    0.010819  -0.0015233
0.169    0.073832     0.06961     0.27489    -0.22207    0.016666   0.0043233
0.19856    0.049147    0.057592     0.56592    0.013093   0.0033489 -0.00087364
0.19693    0.033231    0.045249     0.70948     0.14594   -0.013541   -0.012242
0.17777     0.02706    0.038103     0.69714     0.20473    -0.01549   -0.015165
0.15633    0.028359    0.038428     0.59255     0.20246   0.0069217  -0.0034721
0.14269    0.030957    0.036154     0.47075     0.14496    0.053044    0.022837
0.13457    0.031607    0.024786     0.38305     0.05142     0.10989    0.054993
0.11963    0.029009   0.0026992     0.32978   -0.042449     0.16185    0.079029
0.092346    0.020888   -0.023285     0.27326   -0.096042     0.20148    0.095269
0.056617   0.0056225   -0.047971      0.1716   -0.077203     0.22909     0.10209
0.028034   -0.013541   -0.067134   0.0023744    0.011469     0.24598     0.10209
0.017965   -0.031406   -0.084674    -0.24188     0.14367     0.25085    0.096569
0.028359   -0.046347    -0.10579     -0.5459     0.29373     0.23981    0.084551
0.056617   -0.060963    -0.13599    -0.85025     0.44639     0.20928    0.065387
0.10696   -0.070707    -0.16393     -1.0217     0.59222     0.16283    0.042975
0.17387   -0.073306     -0.1675    -0.89539     0.72377     0.10436    0.020239
0.23526    -0.06551    -0.13469    -0.43384     0.82966    0.040702  0.00075039
0.27814   -0.054467   -0.068434     0.18004     0.89624   -0.021661   -0.013541
0.30282   -0.049595    0.012119     0.66206     0.89982   -0.078178   -0.025559
0.31322   -0.060638    0.082277     0.85727     0.83291    -0.12495   -0.037902
0.30964   -0.094418     0.11866     0.79003     0.70721    -0.16068   -0.047971
0.28593    -0.14801     0.11541      0.5958     0.55942    -0.18536   -0.056091
0.23981    -0.20908    0.083251     0.42332     0.43437    -0.20453   -0.057715
0.17127    -0.26429    0.038103     0.35349     0.35869    -0.22402   -0.052843
0.075781    -0.30814  -0.0063954      0.3811     0.31354    -0.23701    -0.04927
-0.046671    -0.33705   -0.045372     0.45516     0.26579    -0.23798    -0.04927
-0.18114     -0.3442   -0.078178     0.52044     0.20863    -0.22921   -0.054467
-0.30067    -0.31301   -0.098316     0.54253     0.14432    -0.21622   -0.060963
-0.37635    -0.23084   -0.097991     0.50518    0.078379    -0.20518   -0.061613
-0.39616    -0.09182   -0.072981     0.41228    0.030633    -0.19738   -0.057715
-0.36141    0.082602   -0.028482     0.27781    0.017316    -0.18926   -0.050244
-0.2893     0.24436    0.024137      0.1258    0.026735    -0.17075   -0.042774
-0.20096     0.34635    0.072858  -0.0096434     0.03518     -0.1321   -0.034329
-0.11683     0.36226     0.10242   -0.097017    0.025436    -0.08305   -0.027833
-0.058365     0.30185     0.11054    -0.12495    0.016991   -0.040825   -0.026209
-0.034329     0.19563     0.10242    -0.10221    0.065062   -0.013866    -0.03238
-0.0405    0.082602    0.086175   -0.052193     0.21447   0.0010752   -0.042774
-0.060313  -0.0073698    0.067986  -0.0018481     0.43892   0.0075714   -0.054792
-0.075579   -0.069408    0.052395    0.028359     0.64549    0.009845   -0.062587
-0.071357    -0.10936    0.038103    0.031607     0.73319    0.014717   -0.059664
-0.046022    -0.13599    0.026735    0.011144     0.66563    0.023812   -0.047646
-0.01484    -0.15776    0.016991   -0.022961     0.49024    0.036479   -0.032055
0.0095202    -0.18212     0.01017   -0.060638     0.29795    0.050771   -0.019063
0.020564      -0.212   0.0036737   -0.097666     0.16868    0.067661   -0.014191
0.012119    -0.24091  -0.0063954    -0.13145      0.1206    0.080653   -0.017764
-0.01484    -0.25942   -0.020037    -0.15743     0.11898    0.086175   -0.023285
-0.052843    -0.25098   -0.034978    -0.17367    0.096893      0.0852   -0.028807
-0.08305    -0.20583   -0.047971    -0.17854  -0.0028225    0.079354   -0.030431
-0.089871    -0.13145   -0.056091    -0.17854    -0.17887    0.062464   -0.029782
-0.064536   -0.043423   -0.060313    -0.18244    -0.38155    0.020564   -0.026209
-0.018738    0.038428   -0.062262    -0.19543    -0.56409    -0.04862   -0.021661
0.019264     0.10112   -0.062262    -0.21752    -0.68882    -0.12885   -0.018088
0.020888     0.13132   -0.053492    -0.23701    -0.72097    -0.18991   -0.020037
-0.028807      0.1297   -0.031406    -0.23961    -0.62191    -0.21492   -0.032055
-0.12527     0.10144    0.003024    -0.22499    -0.38739    -0.20648   -0.053817
-0.25065    0.057267    0.032906    -0.20258   -0.088247    -0.18049   -0.081751
-0.37115  0.00010078    0.040377    -0.19348     0.14399    -0.15938    -0.11066
-0.44489   -0.061937    0.016991    -0.21492     0.19011    -0.15776    -0.13437
-0.42735    -0.11261   -0.027183    -0.26397   0.0046481    -0.17887    -0.14379
-0.30489    -0.13859   -0.068434    -0.32211    -0.33705    -0.22174     -0.1321
-0.10546    -0.13827   -0.088247    -0.36433    -0.67452    -0.28053    -0.10384
0.10826    -0.12852   -0.082076    -0.37083    -0.85122    -0.33835   -0.068758
0.27749    -0.12755   -0.054142    -0.33705    -0.79925    -0.37635   -0.036602
0.39019    -0.13794    -0.01484    -0.27469    -0.56864    -0.38187   -0.011267
0.47302    -0.15743    0.020888    -0.20583    -0.27209    -0.35199    0.010495
0.56592    -0.17952    0.038753    -0.14639    -0.01549     -0.2971     0.03453
0.69811    -0.20388     0.03583   -0.098641     0.15211    -0.22369    0.062789
0.8446    -0.23376    0.023487   -0.064211     0.23429    -0.13859    0.090397
0.93717    -0.26332    0.014068   -0.039851     0.26157   -0.047971     0.10826
0.90501    -0.27404   0.0091954   -0.021986      0.2567     0.03583     0.10956
0.72475    -0.24188   0.0065969   -0.010943     0.21902    0.099492    0.090397
0.44216    -0.15321      0.0014   -0.012567     0.13425     0.13262    0.055968
0.16738   0.0059473  -0.0044465   -0.027833    0.003024     0.13522    0.018615
0.0069217     0.23851 -0.00054884    -0.04992    -0.13437     0.11313  -0.0050961
0.0056225     0.51167    0.021213   -0.072006    -0.22402    0.076431  -0.0083442
0.13457     0.75918    0.058566    -0.10579    -0.23603    0.040702   0.0069217
0.30802     0.91119    0.096893    -0.17692    -0.18179    0.016016    0.030308
0.42462     0.92158     0.11898    -0.32471    -0.10611   0.0020496    0.046873
0.41813     0.78451     0.10696      -0.555    -0.04927  -0.0044465    0.047523
0.28268     0.52954    0.061489    -0.81322   -0.021337  -0.0018481    0.037778
0.083901     0.22649  -0.0011985     -1.0097    -0.01614     0.01017    0.029333
-0.089546   -0.042449   -0.051219     -1.0734   -0.044398    0.031607    0.029658
-0.19738     -0.2146   -0.069733    -0.99121     -0.1321    0.057592    0.037778
-0.25227    -0.26722   -0.052518    -0.78658     -0.2893    0.081627    0.050121
-0.28995    -0.21914   -0.008669    -0.48256     -0.4988     0.10209     0.06019
-0.33607    -0.11651    0.044275   -0.073955    -0.73591     0.11411    0.063763
-0.37635  -0.0028225    0.083251     0.42657    -0.95743     0.11866    0.061814
-0.36726    0.086824    0.091696     0.94529     -1.0789     0.11476    0.058891
-0.28118     0.13165    0.067661      1.3487     -1.0347     0.10436    0.058891
-0.14541      0.1258    0.019264      1.5199    -0.83303    0.093645    0.062464
-0.027508    0.076755   -0.035953       1.427    -0.55272    0.091696    0.069934
-0.0015233   0.0020496   -0.083375      1.1392    -0.28183    0.097543     0.07708
-0.095717   -0.073306    -0.11033     0.78256   -0.042449     0.10761    0.080003
-0.26397    -0.12235    -0.11293     0.46555     0.22422     0.11346    0.076755
-0.43287    -0.12625    -0.09929     0.23721     0.58378     0.11638    0.072858
-0.54655   -0.086948   -0.084349    0.080978      1.0583     0.11898    0.071883
-0.58975   -0.018088   -0.077203   -0.044398      1.6212     0.11833    0.074806
-0.57091    0.053369    -0.08305    -0.17789       2.202     0.11638    0.077405
-0.51115    0.097218    -0.10351    -0.33478      2.6911     0.11183     0.07708
-0.43547    0.090397    -0.13762    -0.49945      2.9302     0.10209    0.069934
-0.35556     0.03453    -0.17367    -0.63262      2.7155    0.086824    0.054344
-0.26234   -0.043748    -0.19024    -0.70343      1.8954    0.070584    0.036479
-0.14216    -0.11001     -0.1753    -0.70895      0.4597     0.05207    0.018615
-0.00087364    -0.14281    -0.13729    -0.68459     -1.3391    0.023487    0.003024
0.13392    -0.14216   -0.096367    -0.65016     -2.9885   -0.019388   -0.012892
0.22617    -0.12463   -0.063561    -0.53713     -4.0918   -0.068758   -0.028482
0.25443    -0.10449   -0.037577    -0.25292     -4.4248    -0.11456   -0.042124
0.21382   -0.091495  -0.0089938     0.19141     -4.0054    -0.15126   -0.050244
0.12125   -0.089546    0.029658     0.64582     -3.0684    -0.17887   -0.052193
0.01017   -0.096042    0.071234      0.9258     -1.9383    -0.19381   -0.047646
-0.084999    -0.10676     0.10144     0.93814    -0.89279    -0.18991   -0.035628
-0.14411    -0.11975     0.10631     0.73514   -0.093119    -0.16653   -0.021012
-0.16425    -0.13177    0.085525     0.47335     0.41748    -0.12625  -0.0073698
