-0.1649   -0.066485   -0.032705     0.16121     0.92158    0.055968    0.020888
-0.041475    -0.12138   -0.071032   -0.050569      1.2915    0.049472    0.064737
0.081952    -0.14899    -0.10384    -0.24545      1.7076    0.061814     0.10826
0.16835    -0.15386    -0.12657    -0.32081      1.9002    0.082602     0.13392
0.19823    -0.14736    -0.14509    -0.23733      1.5608    0.093321     0.13197
0.16835    -0.13664    -0.15776    -0.03303     0.52174    0.081303     0.10761
0.087799    -0.12592    -0.16133      0.2096     -1.0107    0.050771    0.075131
-0.034654    -0.11521    -0.14834     0.41326     -2.4902    0.014392    0.046873
-0.19121   -0.098641    -0.12008     0.52564     -3.4818   -0.010618     0.02641
-0.36985   -0.068758     -0.0837     0.54448     -3.7956   -0.018738    0.013418
-0.55305   -0.023285   -0.045372     0.49836     -3.5042   -0.013541   0.0091954
-0.71253    0.036804   -0.012567      0.4178     -2.8602  -0.0037969    0.009845
-0.80802    0.099817   0.0069217     0.32588     -2.1527 -0.00054884   0.0062721
-0.81647     0.14821   0.0095202     0.23429     -1.5596  -0.0054209  -0.0089938
-0.72877      0.1677  -0.0067202     0.15276     -1.1182    -0.01549   -0.033354
-0.5524     0.15698    -0.03238    0.086175    -0.78463   -0.023935   -0.055116
-0.30457     0.11898   -0.055441    0.040702    -0.49523    -0.02426   -0.062912
-0.021986    0.061814    -0.06551    0.020564    -0.21882   -0.015815   -0.057715
0.25378   0.0039985   -0.057715    0.027385    0.029333  -0.0011985   -0.043099
0.49153   -0.034004   -0.037252    0.055643     0.22097    0.013743   -0.024585
0.67148   -0.039526  -0.0099683    0.089748     0.34764    0.023162  -0.0096434
0.78484   -0.016789    0.015692     0.11736     0.44281    0.027709  0.00010078
0.83486    0.016991    0.031282     0.13425     0.55974    0.027709   0.0056225
0.82186    0.040377    0.037129     0.14334     0.72994    0.025111    0.012443
0.73514    0.044924    0.039078     0.14691     0.93165    0.020888     0.01764
0.56949    0.029983    0.039727     0.14691      1.1152    0.015042    0.019264
0.34764   0.0010752    0.041027     0.14237      1.2262   0.0085458    0.013743
0.11508   -0.035628    0.042001      0.1349      1.2201   0.0062721   0.0033489
-0.079152   -0.072981    0.045249     0.12872       1.072   0.0091954  -0.0041217
-0.20096    -0.10709     0.05207     0.12093     0.78906    0.017316  -0.0060706
-0.2435    -0.13697    0.058566     0.11183     0.41813    0.025436  0.00075039
-0.22044    -0.16003    0.060515    0.098842    0.031607    0.030308    0.017316
-0.14736    -0.17075    0.058891      0.0852    -0.30067    0.033881    0.042975
-0.035303    -0.15516    0.064413    0.072858    -0.53453    0.039078    0.071883
0.096569    -0.10416    0.076755    0.061489    -0.68005    0.047198    0.095594
0.21415   -0.030431    0.091696    0.050446    -0.77749     0.05207     0.10469
0.28691    0.041027    0.098517    0.033881    -0.85577    0.044599    0.093321
0.29568    0.090397    0.096569   0.0095202    -0.91293    0.023487     0.06084
0.24825     0.11346    0.089748   -0.013541    -0.92235  -0.0057458     0.01894
0.17452     0.11963      0.0852   -0.025234    -0.84245   -0.033354   -0.016464
0.10956     0.11833      0.0852   -0.021986    -0.64984   -0.045372   -0.033679
0.080003     0.11898    0.087149   -0.013866    -0.35751   -0.033354   -0.033679
0.092996     0.12418    0.086824   -0.011917   -0.012242  -0.0041217   -0.024909
0.1219      0.1245     0.06896   -0.022311     0.32198    0.022512   -0.022311
0.1245     0.10404    0.031932   -0.049595     0.58768    0.031607   -0.035628
0.071558    0.054993   -0.015815   -0.087922     0.75333    0.024461    -0.06551
-0.038227  -0.0093186   -0.059014    -0.12625     0.81959   0.0075714    -0.10124
-0.18504   -0.065835   -0.088247    -0.15646     0.81602   -0.010618    -0.12333
-0.34257   -0.097341   -0.098641    -0.17302     0.78743   -0.024585    -0.12398
-0.49393   -0.097666   -0.096692    -0.17887     0.77672   -0.028482    -0.10838
-0.63035   -0.073306   -0.086623    -0.17854     0.80952   -0.027508   -0.089546
-0.74663   -0.041799   -0.074605    -0.17789      0.8904   -0.028157   -0.078178
-0.82946   -0.027183   -0.070382    -0.17659      1.0077   -0.037902   -0.081101
-0.85869   -0.064536   -0.082725    -0.17594      1.1392   -0.056741    -0.10351
-0.81517    -0.16653    -0.11358    -0.17465      1.2591   -0.078178    -0.13372
-0.69629    -0.30587    -0.14541    -0.16685      1.3458   -0.093119    -0.15256
-0.53453    -0.42605    -0.15483    -0.14444      1.3896   -0.090196    -0.14606
-0.37115    -0.46178    -0.13372    -0.10319      1.3854   -0.066485    -0.11683
-0.22564     -0.3783   -0.086298   -0.051544      1.3234   -0.038227   -0.080127
-0.097017    -0.18731   -0.033354   -0.007045      1.1941   -0.025559   -0.051544
0.019589    0.055968   0.0052977    0.015367      1.0031   -0.037252   -0.038551
0.10956     0.28658    0.019914   0.0088706     0.77704   -0.072331     -0.0405
0.14367     0.45613    0.013093   -0.019712     0.55325    -0.11683   -0.053492
0.094295     0.53506  -0.0057458   -0.063561     0.36973    -0.15483   -0.072656
-0.029782     0.52434   -0.026209    -0.10611     0.26319      -0.174   -0.089546
-0.18601     0.45158   -0.036602    -0.12722      0.2541    -0.17075   -0.097017
-0.30489     0.36291   -0.026858    -0.11521     0.33758    -0.14087   -0.086298
-0.32698     0.29697  0.00042559   -0.072656      0.4727   -0.094743   -0.057065
-0.24156     0.26839    0.040052   -0.013866      0.5945   -0.043099   -0.013866
-0.086298     0.26319    0.075781      0.0433     0.65166   0.0049729    0.032257
0.082602      0.2567     0.09462    0.089098     0.62568    0.040377    0.074482
0.21902     0.23786    0.097218     0.11508     0.52044    0.059541     0.10436
0.29957     0.20148      0.0852     0.11508     0.34862    0.061165     0.11606
0.32393     0.15309    0.065062    0.092671      0.1206    0.049472     0.10436
0.30055     0.10274    0.045899    0.062139    -0.14379    0.029333    0.076755
0.23559    0.059541    0.038753    0.039727    -0.42377   0.0088706    0.042975
0.14009    0.030308    0.042975    0.024786    -0.69434  -0.0041217    0.014068
0.035505     0.01894    0.058891   0.0049729    -0.91586   -0.011592  -0.0018481
-0.047971    0.024137    0.085525    -0.02426     -1.0351   -0.019388  -0.0063954
-0.086298    0.041027     0.11476   -0.060313      -1.025   -0.028807  -0.0060706
-0.073306    0.061489     0.13457   -0.096042    -0.88922   -0.037902  -0.0044465
-0.018738    0.079354     0.13977    -0.12527    -0.66803   -0.043748   0.0017248
0.062789    0.084876     0.12872    -0.14249    -0.44196   -0.040825     0.01829
0.15763     0.07708     0.10112    -0.15451     -0.2906   -0.026858    0.046873
0.25215     0.06084    0.058241    -0.13924    -0.25098  -0.0011985    0.083576
0.3327    0.041027   0.0043233   -0.056741    -0.29288    0.029333     0.11866
0.38305    0.020564   -0.051868    0.087799    -0.34225    0.054344     0.14107
0.39669  -0.0018481    -0.10124     0.23299    -0.32048     0.06084     0.14334
0.37103   -0.027833    -0.13275      0.2947    -0.20485     0.04395     0.12613
0.31354   -0.059989    -0.14476     0.21642    -0.04992   0.0052977    0.094945
0.24013   -0.093444    -0.13794  -0.0018481    0.056292   -0.043099    0.063438
0.16835    -0.12268    -0.11456    -0.28183    0.048172   -0.087922    0.042326
0.11508    -0.13859   -0.078503     -0.5053   -0.087922    -0.11391    0.038428
0.088124    -0.13762   -0.033354    -0.57936    -0.31724    -0.11586    0.049796
0.088124     -0.1191    0.016016    -0.47184    -0.58683    -0.10059    0.067661
0.10371   -0.090196    0.062789    -0.18374    -0.82069   -0.079477    0.078704
0.11995   -0.061288    0.099817     0.26774    -0.93989   -0.066485    0.077405
0.12937   -0.039851     0.12483      0.7988    -0.91813    -0.06681    0.062464
0.12937   -0.034004     0.13197      1.2565    -0.78236   -0.080776    0.037454
0.11638   -0.041799     0.11736      1.4549    -0.58715    -0.10546   0.0078962
0.089423   -0.054467    0.087474      1.2597    -0.39292    -0.13404   -0.017439
0.053369   -0.065186    0.055968     0.67538    -0.25812    -0.15646    -0.03238
0.020564   -0.067134    0.034855   -0.088247    -0.20323    -0.16295   -0.034654
0.0085458   -0.059989    0.026085    -0.70148     -0.2055    -0.14639   -0.025884
0.029333   -0.045372    0.026735    -0.94769     -0.2159    -0.11131   -0.013866
0.075456    -0.02426    0.034855    -0.80834    -0.18309   -0.068434  -0.0076946
0.12645  -0.0054209    0.042975    -0.41825   -0.084024    -0.03173   -0.013866
0.15309   0.0075714    0.042651    0.022512    0.074157   -0.010618   -0.034654
0.14204   0.0059473    0.030308     0.35122      0.2606   -0.011917   -0.067784
0.099167   -0.012892    0.011794     0.50323     0.43924   -0.026533    -0.10449
0.039078   -0.045047 -0.00022403     0.49641      0.5919   -0.044398    -0.13697
-0.020687   -0.087272  0.00042559      0.3759     0.70981   -0.052843    -0.16003
-0.070382    -0.13827    0.009845     0.16283     0.79393   -0.042449    -0.16782
-0.097991    -0.19381    0.015042    -0.14152     0.83583   -0.013541    -0.16328
-0.09182    -0.24415  0.00010078    -0.51732     0.83648    0.022188    -0.14379
-0.031081    -0.27631   -0.036602    -0.90709      0.8053    0.053694    -0.11131
0.086824    -0.28216   -0.089871     -1.2423     0.74359    0.074482   -0.067459
0.23006    -0.26527    -0.14476     -1.4778      0.6351     0.07708   -0.020037
0.34602    -0.23701    -0.18569     -1.5902     0.45873    0.065387    0.020564
0.39344    -0.20875    -0.21037      -1.532      0.2083    0.047198    0.046223
0.35804    -0.17822     -0.2172     -1.2384    -0.10319    0.031282    0.054019
0.25053    -0.13372    -0.21135    -0.69304    -0.45658     0.01764    0.052395
0.0865   -0.077528    -0.19446    0.009845    -0.80802 -0.00022403    0.044924
-0.12722   -0.025559    -0.17367      0.6848     -1.0805   -0.030106    0.029333
-0.37927   0.0017248    -0.15938      1.1571     -1.1897   -0.070058   0.0020496
-0.6258   -0.012567    -0.15548      1.3526     -1.0838    -0.11001   -0.033679
-0.80737   -0.067784    -0.15841      1.3078    -0.78691    -0.13989   -0.068434
-0.8785    -0.15451    -0.16945      1.1418    -0.40688      -0.161    -0.09182
-0.83595    -0.25195    -0.18894     0.95958   -0.090521    -0.17757    -0.10286
-0.70993    -0.32795    -0.21362     0.81569    0.053369    -0.19836    -0.10286
-0.53583     -0.3403    -0.23246     0.70753    0.016991    -0.22434   -0.094093
-0.33705    -0.26169    -0.22597     0.61074    -0.11358     -0.2461   -0.077528
-0.13794   -0.097991    -0.18082     0.50388    -0.22661     -0.2526   -0.056741
0.028034     0.10761   -0.098316     0.39474    -0.24415    -0.24091   -0.039851
0.12743      0.2999   0.0043233     0.30964    -0.16003    -0.21557   -0.034978
0.14334     0.42982     0.10306     0.26904   -0.031081    -0.18601   -0.041799
0.087474     0.48341     0.17777     0.26677    0.067011     -0.1597   -0.052518
-0.0063954      0.4688      0.2135     0.28041    0.084876    -0.13404   -0.058689
-0.098316     0.40968     0.21285     0.28528    0.030633    -0.10546   -0.052518
-0.16263     0.33075     0.18881     0.26742   -0.058365   -0.070058   -0.033679
-0.18731     0.24728     0.15796     0.22584    -0.14119   -0.028157  -0.0063954
-0.17887      0.1677     0.12613     0.16673    -0.18147    0.016666    0.023812
-0.14119    0.094945     0.10112     0.10371    -0.15743    0.056617     0.05207
-0.074605    0.029983    0.083251    0.049147   -0.082076    0.079354    0.070584
0.0023744   -0.030106    0.075781   0.0052977  -0.0073698    0.081627    0.074806
0.063763   -0.080451    0.074482    -0.02361    0.014717    0.067336    0.064413
0.090722    -0.11131    0.083901   -0.039851   -0.021337    0.042001    0.042001
0.07708    -0.11261     0.10696   -0.041799   -0.065186    0.009845    0.013093
0.03453   -0.079802     0.14042   -0.035953   -0.039526   -0.021986    -0.01614
-0.008669   -0.023935     0.17355   -0.043748    0.096893   -0.041475   -0.040825
-0.029782    0.035505     0.19888   -0.081751     0.31451   -0.044073   -0.055116
-0.024585    0.081303     0.20603    -0.14996     0.52272   -0.036602   -0.054792
-0.0011985     0.10534     0.19304    -0.22791     0.62471   -0.024909   -0.045372
0.030957     0.10989     0.16283     -0.2919      0.5474   -0.010618    -0.03238
0.066686     0.10047      0.1206    -0.33088     0.26774   0.0065969   -0.021337
0.095594    0.075781    0.065712    -0.34777    -0.16523    0.020564   -0.012892
0.10859    0.029658  -0.0024977    -0.36271    -0.64594    0.030633  -0.0031473
0.10144   -0.037577   -0.086623    -0.43222     -1.0662    0.038753    0.008221
0.080653    -0.11618    -0.18926    -0.61346     -1.3608    0.043625    0.018615
0.052395    -0.18601    -0.30197    -0.92528       -1.52    0.041676    0.026735
0.023812    -0.22467    -0.39909      -1.303     -1.5434    0.032257    0.037129
0.008221    -0.21752    -0.45236      -1.636     -1.4388    0.023812    0.058566
0.021213    -0.17172    -0.44716     -1.8114     -1.2423    0.024461    0.092346
0.07708    -0.10936     -0.3848     -1.7454     -1.0045    0.033231      0.1297
0.17225   -0.055116    -0.27891     -1.4164    -0.76872    0.046223     0.15601
0.27879   -0.022961    -0.15516    -0.86941    -0.56929    0.053369     0.16121
0.35317  -0.0096434   -0.036602    -0.21882    -0.41663    0.047198     0.14302
0.36551  -0.0015233    0.062789     0.40449    -0.30132    0.028034     0.10891
0.30769    0.014717     0.14172     0.88942    -0.20713  -0.0018481    0.064737
0.19336    0.041351     0.19466      1.1665     -0.1204   -0.032705    0.013743
0.048497     0.06896      0.2096      1.2162   -0.029132   -0.055116   -0.034004
-0.10059    0.086175     0.17972      1.0892     0.07773   -0.056091   -0.070707
-0.23441      0.0852     0.10826     0.86441      0.2122   -0.031406   -0.090521
-0.3429    0.059541    0.015692     0.58086     0.36291    0.016016   -0.093444
-0.4228    0.008221   -0.068109      0.2515     0.49511    0.072208   -0.078827
-0.48159   -0.064211    -0.12105   -0.085648     0.57923     0.12093   -0.049595
-0.51992    -0.14899    -0.13924    -0.33607     0.58833     0.15114   -0.014516
-0.53128    -0.23019    -0.13047    -0.35914     0.49251     0.16283    0.013743
-0.49426    -0.29223    -0.09994    -0.06551     0.28723     0.16705    0.032257
-0.39194    -0.32666   -0.048296     0.46945    0.011469     0.17582    0.049472
-0.22402    -0.33153    0.012768      1.0343    -0.27176     0.18784    0.070584
-0.015815    -0.31756    0.066686      1.4205    -0.48873     0.19499    0.092671
0.19109    -0.29807    0.096569      1.5192    -0.57156     0.19239     0.11313
0.35284    -0.27664    0.092021      1.3471    -0.49815     0.18297     0.13295
0.4295    -0.24415    0.054668     0.99856    -0.30587     0.17127     0.14659
0.40514    -0.18926  -0.0018481     0.58573   -0.070058     0.15893     0.14724
0.29503    -0.10416   -0.052518     0.20798     0.13814     0.14302     0.13392
0.13392    0.014068   -0.076229   -0.074605     0.27976     0.12743     0.10729
-0.035303     0.15828   -0.059989    -0.24708      0.3431     0.12093    0.075781
-0.16653     0.30964  -0.0067202    -0.32601     0.34667     0.12807    0.051096
-0.21914     0.44769    0.063763    -0.33997     0.31874     0.14269    0.038103
-0.17887     0.55942     0.12613    -0.31659     0.27781     0.15373    0.033231
-0.052193     0.63542     0.15893     -0.2906     0.23559     0.15276     0.03583
0.13522     0.66531     0.16056    -0.32438     0.20311     0.13717    0.039078
0.35187     0.64972     0.13717    -0.50887     0.16998     0.10761    0.041027
0.57046     0.59775     0.10371    -0.85934     0.11801    0.072858    0.042001
0.766     0.51882     0.07708     -1.2647    0.046873    0.041676    0.044599
0.90826     0.41326    0.065387     -1.5664   -0.014191    0.018615    0.049472
0.9677     0.28853    0.064088     -1.6798   -0.017114   0.0049729    0.053044
0.9297     0.16608     0.06831     -1.6113    0.071883  -0.0093186    0.048172
0.804    0.070909    0.077405     -1.3881      0.2606    -0.03173    0.029983
0.62471    0.016991    0.095269    -0.97757     0.53571   -0.059014  -0.0031473
0.42268  -0.0031473     0.12418    -0.31009     0.87123   -0.080127   -0.038551
0.21058   -0.012567     0.15601     0.58443      1.2373   -0.084999   -0.069083
-0.0099683   -0.034654     0.17387      1.4617      1.5988   -0.067134    -0.09117
-0.22239   -0.080451     0.16218      1.9837      1.9207   -0.024909    -0.10546
-0.39876    -0.14834     0.11476        1.92      2.1675     0.03453    -0.11131
-0.50822    -0.22337    0.039727      1.3227      2.3163    0.096569    -0.10774
-0.53226    -0.28378   -0.034004     0.54773      2.3611     0.14724   -0.088247
-0.47055    -0.30652   -0.079802    0.029658      2.2803     0.17907   -0.050894
-0.34712    -0.28281   -0.079477   -0.030431      2.0025     0.19726 -0.00054884
-0.19706    -0.22467   -0.041799     0.23201      1.4465     0.20635    0.053044
-0.054467    -0.15061   0.0072465     0.53603     0.57566      0.2083    0.092996
0.054993   -0.078827    0.037129     0.67765    -0.53811     0.19466     0.10696
0.12515   -0.022636    0.029333     0.60197     -1.6541     0.15893    0.090397
0.16478    0.012443    -0.01484     0.38175     -2.4785     0.10242     0.05272
0.19011    0.028684   -0.077203     0.15114     -2.8056    0.036154     0.01017
0.20733    0.034206    -0.13437    0.021213     -2.6211   -0.021986   -0.023285
0.2148    0.036479    -0.17302    0.030957     -2.0969    -0.06681   -0.044073
0.20928    0.036154    -0.19381     0.13132     -1.4927    -0.10416   -0.054142
0.19661    0.034855     -0.2016     0.21382     -1.0269    -0.14249   -0.057715
0.19531    0.038103    -0.20063     0.17647    -0.79763    -0.18471   -0.060963
0.21123     0.06019    -0.18082   0.0033489    -0.74468    -0.22726   -0.066485
0.22487     0.10924    -0.12463    -0.21882      -0.707    -0.25845   -0.069733
0.21123     0.17907   -0.030431     -0.3731    -0.55435    -0.27111   -0.070707
0.15666     0.24533    0.077405    -0.40201    -0.27436    -0.26462   -0.078503
0.047523     0.28008     0.16023    -0.32471    0.049796    -0.24838   -0.093119
-0.1243     0.26125     0.19563     -0.2042     0.31516    -0.22726    -0.10968
-0.33575     0.19531     0.18427   -0.097341     0.46393    -0.20615    -0.11683
-0.53973     0.10469     0.14302   -0.033679     0.49478    -0.18991    -0.10968
-0.6794    0.014717    0.098517   -0.012567     0.45613    -0.17822   -0.090521
-0.72097   -0.053168     0.06831   -0.025234     0.40481      -0.174   -0.069083
-0.66121   -0.093119    0.054019   -0.054467     0.38435    -0.17627   -0.052193
-0.53648    -0.11553    0.048822   -0.083375     0.40968    -0.18147   -0.045697
-0.40201    -0.14281    0.041676    -0.10189     0.47205    -0.18569   -0.051868
-0.30294    -0.18731    0.024786    -0.11391     0.54708    -0.18471   -0.070382
-0.2591    -0.24838   0.0010752     -0.1282     0.61496    -0.17497   -0.095393
-0.26072    -0.30879   -0.020362    -0.14314     0.66206    -0.15256    -0.11683
-0.27501    -0.34842   -0.038876      -0.161     0.68447    -0.12235    -0.13145
-0.26657    -0.35361   -0.054142    -0.18926     0.67862   -0.094743    -0.13177
-0.2081    -0.32016   -0.070382    -0.23441     0.64712   -0.079152    -0.11845
-0.096042    -0.25065   -0.079477    -0.29125     0.59385   -0.071357   -0.093769
0.049147    -0.15581   -0.072331     -0.3338     0.52044   -0.066485   -0.062587
0.18979    -0.04992   -0.047646    -0.33802     0.42462   -0.062262   -0.028157
0.29243    0.040702   -0.016789    -0.30782     0.30574    -0.05804   0.0049729
0.34277     0.09462   0.0036737    -0.27599     0.17257   -0.051219    0.033881
0.33433     0.10696   0.0043233    -0.26527    0.047198     -0.0405    0.057917
0.28171    0.080328   -0.012892     -0.2539   -0.042774    -0.03173    0.074157
0.20538    0.024461   -0.036278    -0.20031   -0.085973   -0.032055    0.080653
0.11963   -0.044073   -0.052193    -0.09117   -0.094093   -0.043423    0.076431
0.029009    -0.10481   -0.054142    0.033556   -0.086623   -0.054467    0.065062
-0.061288    -0.13632   -0.046022     0.10664   -0.071357   -0.060313    0.055968
-0.13794    -0.13047   -0.036278     0.09462   -0.057065   -0.056091     0.05272
-0.19511   -0.090521   -0.027183    0.011794   -0.056741   -0.045697    0.050446
-0.23831   -0.030106   -0.017114    -0.11261   -0.093769   -0.037252      0.0433
-0.2854     0.03583  -0.0067202    -0.25098    -0.19186   -0.036278    0.027385
-0.34777    0.091696  0.00042559    -0.38512    -0.35296   -0.039526   0.0023744
-0.42247     0.12028  -0.0028225    -0.49685    -0.56247   -0.041475   -0.026858
-0.49685     0.11346   -0.018738    -0.57156    -0.79795    -0.04115   -0.054142
-0.55467    0.079679   -0.045697    -0.60144     -1.0224   -0.043099   -0.072006
-0.5813    0.037129   -0.080127    -0.58683     -1.1809   -0.045047   -0.076879
-0.56604   0.0033489    -0.11423    -0.53746     -1.2348   -0.045047    -0.06616
-0.50465    -0.01484    -0.14281    -0.48321     -1.1712   -0.038876   -0.041799
-0.39811   -0.019712    -0.15905    -0.46178     -1.0055   -0.021986   -0.007045
-0.2526   -0.013541    -0.16198    -0.48224    -0.78236   0.0059473    0.037778
-0.069083   0.0046481    -0.15776     -0.5014    -0.56117    0.041351    0.084876
0.14399    0.029009    -0.15451    -0.45041    -0.38415    0.071234     0.12678
0.35122    0.050121    -0.15126    -0.28346    -0.26137    0.086824     0.16023
0.50713    0.060515    -0.13632  -0.0083442    -0.17822    0.084876     0.17907
0.58833    0.059216    -0.10156     0.31289    -0.11261    0.067986     0.18102
0.5984    0.054668   -0.047646      0.5906   -0.053817    0.044275      0.1638
0.55357    0.054019    0.016666     0.76795   0.0010752    0.022188     0.12678
0.47529    0.054668    0.073832     0.83551    0.055318   0.0056225    0.081303
0.36713    0.040052     0.10761     0.81179     0.10079   -0.007045    0.037454
0.23136      0.0014     0.11021     0.73449     0.11671   -0.020037      0.0014
0.080328   -0.054467    0.085525     0.64939    0.078704    -0.03303   -0.027183
-0.067459    -0.11001    0.053369     0.59125   -0.017439   -0.046347    -0.04992
-0.19251    -0.15223    0.034855     0.56592    -0.14801   -0.056741   -0.060638
-0.27956    -0.18049     0.03518     0.54675    -0.27339    -0.05739   -0.053492
-0.31334    -0.19706    0.047523     0.49413    -0.35102   -0.042124   -0.025884
-0.27891    -0.20193    0.056292      0.3824    -0.35686  -0.0096434    0.018615
-0.17757    -0.19154    0.047523     0.22454    -0.29125    0.030957    0.070909
-0.031406    -0.15938    0.020239    0.074157    -0.18407    0.066686     0.11248
0.12483    -0.10156    -0.01549   -0.010618   -0.073631      0.0852     0.13035
0.26092    -0.02426   -0.045372  -0.0018481   0.0026992    0.082927     0.11931
0.34992    0.053694    -0.06551    0.078704    0.029658    0.067011     0.08585
0.3746     0.11216   -0.072656     0.17972    0.019264    0.044599    0.046223
0.3353     0.14172   -0.067784     0.25605    0.032582    0.020888    0.016666
0.25865     0.14789   -0.051868     0.28463     0.14594   0.0043233   0.0023744
0.18232     0.15114   -0.028157     0.26319     0.40221  -0.0047713  -0.0034721
0.14107     0.16315  -0.0018481     0.20473     0.78808   -0.011917  -0.0080194
0.15016     0.18167    0.023812     0.13035      1.2438    -0.02361    -0.01614
0.19758     0.19466    0.041676    0.059541      1.6638   -0.037902   -0.029457
0.24241     0.18751    0.045249   0.0036737       1.959   -0.051868   -0.045697
0.24728     0.15406    0.035505   -0.035628      2.0997   -0.058689   -0.061288
0.20181     0.10079    0.015367   -0.062262      2.1159    -0.04862   -0.072331
0.1206    0.042975  -0.0093186   -0.081101      2.0454   -0.023285   -0.079152
0.015692   -0.008669   -0.030756   -0.096692      1.9077   0.0069217   -0.085973
-0.11391   -0.051544   -0.045372    -0.11001      1.7021    0.024137   -0.096692
-0.26884   -0.086623   -0.053168    -0.12203      1.4215    0.020564    -0.10903
-0.43157    -0.11326   -0.053168     -0.1308      1.0954  -0.0044465    -0.12268
-0.56766    -0.12333   -0.043423    -0.13697      0.8027   -0.039526    -0.13664
-0.63977    -0.11001   -0.026858    -0.14801     0.60684   -0.067784    -0.14899
-0.62743   -0.070382  -0.0083442    -0.18179     0.50355   -0.075904    -0.15678
-0.53421  -0.0083442     0.01017    -0.24221     0.41618   -0.057065    -0.15938
-0.38934    0.063438    0.024137    -0.31106     0.24858   -0.021986    -0.15678
-0.23668     0.12418    0.032906    -0.36791   -0.070058    0.013418    -0.14964
-0.10968     0.15958    0.038753    -0.41078    -0.53128    0.033231    -0.13859
-0.02426     0.15828    0.037129     -0.4673     -1.0399    0.030633    -0.12105
0.01017     0.11476    0.021538    -0.56182     -1.4554   0.0039985    -0.10026
-0.013866    0.029658  -0.0054209    -0.65893     -1.6457   -0.036927   -0.087597
-0.090196   -0.081101   -0.034654    -0.67387     -1.5593   -0.085648   -0.090521
-0.19641    -0.18796   -0.055116    -0.56019     -1.2277    -0.13145    -0.10774
-0.29223     -0.2591   -0.061288    -0.35199     -0.7606    -0.16425    -0.13047
-0.34095    -0.27436   -0.057065    -0.12365    -0.32341    -0.17822    -0.14281
-0.3351    -0.23896   -0.046996    0.069934   -0.048296    -0.17237    -0.14541
-0.28898     -0.1701   -0.037577     0.21642     0.01829    -0.15353    -0.13989
-0.23733   -0.090521   -0.029782     0.34212   -0.097666    -0.12982    -0.13242
-0.19998    -0.01549   -0.020037     0.48504    -0.33802    -0.10286      -0.123
-0.1753    0.045249  -0.0073698     0.65102    -0.63977   -0.067134    -0.10741
-0.14249      0.0852   0.0072465     0.77931    -0.95711   -0.019063   -0.078503
-0.079477     0.10599     0.01829      0.7621      -1.252    0.031607   -0.040175
0.01829     0.11313    0.022837       0.512     -1.4849    0.070584  -0.0015233
0.13814     0.11931     0.02706     0.06084     -1.6064    0.087149    0.032906
0.258     0.13944    0.043625      -0.415     -1.5596    0.077405    0.059865
0.35057     0.17582    0.080003    -0.68687     -1.3115    0.040377    0.077405
0.39799     0.21155     0.13684    -0.60924    -0.89507    -0.01549    0.083576
0.39442     0.22422     0.19531    -0.18536    -0.41565   -0.076879    0.076106
0.36194     0.20311     0.23006     0.41683    0.012768     -0.1217    0.061814
0.33075     0.15406     0.22422       0.931     0.32621    -0.13437    0.057267
0.31809    0.097543      0.1781      1.1541     0.51265    -0.11326    0.076431
0.32069    0.047847    0.096893      1.0265     0.56657   -0.069733     0.11411
0.32263   0.0078962  -0.0063954     0.65102     0.48179   -0.018413     0.16056
0.30932   -0.027183    -0.10871     0.22714     0.26352    0.028684     0.20213
0.27749   -0.056416    -0.18666   -0.042124   -0.036927    0.067661     0.23169
0.23136   -0.076879    -0.22791   -0.047646    -0.33543    0.093321     0.24955
0.17842   -0.082076    -0.23636     0.17777    -0.56052     0.10469     0.25118
0.1206   -0.065835    -0.21882     0.50225    -0.68459     0.10599     0.23624
0.06019    -0.03173    -0.18374     0.77542     -0.7135     0.10274     0.20993
-0.0083442   0.0036737    -0.13469     0.90436    -0.67323     0.10112     0.18557
-0.086298    0.024461   -0.080451     0.87123    -0.60112     0.10079     0.16868
-0.1714    0.022837    -0.03303     0.71987    -0.52934    0.097543     0.15471
-0.24058   0.0010752  0.00042559     0.51914    -0.47444    0.089098     0.14302
-0.26364    -0.03173    0.015692     0.32913    -0.42442    0.075456     0.13035
-0.22207   -0.063886    0.017316     0.18037    -0.34939    0.055643     0.11573
-0.10968   -0.084674    0.010495    0.076431    -0.23571    0.030957     0.10242
0.076106   -0.090521  -0.0024977   0.0020496   -0.089871   0.0059473    0.092996
0.32036   -0.084999   -0.016789   -0.061288    0.073832   -0.011267    0.090722
0.57793   -0.084024   -0.023285    -0.12495     0.23071   -0.017439    0.097868
0.78808   -0.093769    -0.01614    -0.18471     0.34732   -0.011917     0.10826
0.90144    -0.10806  0.00075039    -0.23084     0.40416   0.0043233     0.11931
0.90436    -0.11098    0.024786    -0.24903     0.40708    0.028359      0.1271
0.81212   -0.090521    0.048497    -0.24448     0.38727    0.058566     0.12937
0.65426   -0.045047    0.070909    -0.23246      0.3824    0.089098     0.12418
0.46523    0.016991    0.092021    -0.21557     0.40741     0.11183     0.10664
0.28463    0.079679     0.10696    -0.19413     0.42755      0.1206     0.07708
0.13912     0.13197     0.10599     -0.1675     0.39702     0.11898     0.04395
0.041351     0.16478    0.084226    -0.14671      0.3025     0.10924    0.017316
-0.0096434     0.17387    0.046223    -0.16003     0.18037    0.097218   0.0039985
-0.018088     0.16315   0.0065969    -0.22402     0.07773    0.082602 -0.00022403
0.017965     0.14302   -0.019388    -0.31983   -0.017764    0.059216  -0.0011985
0.10047      0.1245   -0.017764    -0.40851    -0.14346    0.021863  -0.0044465
0.21252     0.10956    0.013418     -0.4699    -0.29417   -0.027833   -0.010293
0.31419    0.083576    0.058566    -0.50822    -0.42994   -0.077528   -0.019063
0.35771    0.028684     0.09397    -0.54233    -0.48484    -0.11878   -0.033679
0.31029    -0.06551     0.10274    -0.56701    -0.38967    -0.14606   -0.055766
0.18134    -0.18504    0.081952    -0.55142    -0.12203    -0.16133   -0.088247
0.0069217    -0.29288    0.041351     -0.4543     0.26969    -0.17237      -0.123
-0.17659    -0.34712  -0.0024977    -0.26592     0.70818    -0.17919    -0.14704
-0.34647    -0.32698   -0.030431   -0.036927      1.1194    -0.17724    -0.15158
-0.50335    -0.24026   -0.030431     0.16056      1.4133     -0.1636    -0.13924
-0.64432    -0.11715  -0.0024977      0.2908      1.4734    -0.13892    -0.11943
-0.74468    0.013093    0.040702     0.36194      1.1606    -0.11098    -0.10026
-0.78204     0.12418    0.075781     0.39409     0.42008   -0.086623   -0.085973
-0.7645     0.19044    0.087149     0.39961     -0.5943    -0.07493   -0.079152
-0.74436     0.20148    0.075456     0.38272     -1.5609   -0.072981   -0.081751
-0.77911     0.16543    0.050121     0.34537     -2.1898   -0.072656   -0.091495
-0.87363    0.097543    0.021863     0.27976     -2.3258   -0.062587    -0.09929
-0.97302    0.016991  -0.0093186       0.169     -1.9877    -0.04115   -0.097991
-1.0016   -0.051868   -0.045372  -0.0076946     -1.3446  -0.0080194   -0.084674
-0.90319   -0.091495   -0.092794    -0.25812    -0.64302    0.032257   -0.063561
-0.67712   -0.097341    -0.14541    -0.55792    -0.10254    0.076755   -0.042124
-0.36238   -0.076229    -0.18894    -0.83368     0.14074     0.11866    -0.02426
-0.011917   -0.035953     -0.2068     -1.0039    0.074806     0.15471  -0.0089938
0.32491   0.0091954    -0.18374     -1.0204    -0.19836     0.17907   0.0049729
0.60976    0.044924    -0.12917    -0.89897    -0.51992     0.18687    0.020564
0.81991    0.058566   -0.065835    -0.69206    -0.74436     0.17972    0.031932
0.93685    0.044924   -0.017114    -0.43449    -0.78853     0.16478    0.034855
0.94464    0.012119    0.009845    -0.11163    -0.66088     0.15016    0.029658
0.84038   -0.019388    0.019589     0.28333    -0.44781     0.14496    0.020888
0.64712   -0.023935    0.025111     0.69811    -0.25422     0.14984    0.011469
0.40643   0.0095202    0.030633      1.0291    -0.16295     0.15893   0.0052977
0.17777    0.078055    0.038103      1.1827    -0.19771     0.15698   0.0023744
0.0069217     0.16445    0.041676      1.1243    -0.34972     0.12743  -0.0057458
-0.095393     0.24793    0.037129     0.89689    -0.57676     0.06831   -0.027183
-0.14281     0.31159    0.025111     0.58248    -0.78204  -0.0057458   -0.060963
-0.15711     0.34732    0.010495     0.26547    -0.82621   -0.071032   -0.096367
-0.14444     0.35674   0.0033489   0.0056225    -0.61119    -0.10806    -0.11813
-0.10741     0.34407   0.0072465    -0.17594    -0.16458    -0.11651    -0.11651
-0.061937      0.3025    0.013743    -0.28638     0.34894    -0.11521   -0.097991
-0.030431     0.22487     0.01017    -0.34355     0.73254    -0.12787   -0.077203
-0.036927     0.11216   -0.012892    -0.35914     0.85987    -0.16165   -0.069408
-0.084674   -0.024585   -0.051868    -0.34452      0.7124    -0.20518   -0.079802
-0.14931     -0.1597   -0.095393    -0.31561     0.39409    -0.24123    -0.10546
-0.19868    -0.26364    -0.13145    -0.28378    0.078055    -0.25845     -0.1321
-0.212    -0.31691    -0.15126     -0.2474   -0.078503    -0.24903    -0.14834
-0.19251    -0.31756    -0.15451    -0.20908  0.00075039    -0.21362    -0.14769
-0.15646    -0.28021    -0.14249    -0.18764     0.28496    -0.16393    -0.13372
-0.1204    -0.22629    -0.11715     -0.2055     0.65914    -0.11358    -0.11553
-0.094743    -0.17107   -0.077853     -0.2578     0.99791   -0.071357    -0.10124
-0.072981    -0.12008   -0.026858    -0.31983      1.2246   -0.038227   -0.083375
-0.046022   -0.069083    0.032257    -0.36336      1.3237  -0.0089938   -0.059989
-0.0099683   -0.012892    0.094295    -0.36498      1.3214    0.020239    -0.03238
0.033231    0.050446     0.15016    -0.31886      1.2656      0.0433  -0.0063954
0.071883     0.11313     0.18654    -0.23311      1.1908    0.055643    0.011794
0.090397      0.1664     0.19628    -0.13664      1.1174    0.057592    0.016016
0.079679     0.19499     0.18362   -0.055441      1.0522    0.050121   0.0069217
0.039727     0.19206     0.15698  0.00010078     0.99304     0.03453   -0.012567
-0.020687     0.15828      0.1284    0.029333     0.93879    0.018615   -0.039201
-0.088247     0.10047     0.10339     0.03583      0.8852   0.0056225   -0.062587
-0.14281    0.028684    0.076106    0.023487     0.83128  -0.0015233   -0.072331
-0.16263   -0.042124    0.043625   -0.011917     0.78061 -0.00087364   -0.064536
-0.12917   -0.092145    0.010819   -0.073955     0.74651    0.011144   -0.039201
-0.043748    -0.11293   -0.013216    -0.14996     0.74034    0.030957 -0.00054884
0.072208    -0.10189   -0.022961     -0.2172     0.75853    0.051745    0.041027
0.17907   -0.066485   -0.017764    -0.26039     0.77509    0.065387     0.07708
0.23494   -0.024909  -0.0041217    -0.28183     0.75041    0.065712    0.099167
0.21772   0.0023744   0.0043233    -0.29385     0.66108    0.049796    0.099167
0.13814   0.0065969  -0.0018481    -0.31659     0.51167    0.019589    0.080003
0.029658   -0.011267   -0.023935    -0.37375     0.33205   -0.015815    0.053369
-0.071357   -0.042124   -0.054467     -0.4962     0.15406   -0.042124    0.031607
-0.14476   -0.080451   -0.084024    -0.70571   0.0010752   -0.045697    0.022512
-0.17822    -0.12495    -0.10319    -0.94671    -0.11618   -0.028157    0.029658
-0.1688     -0.1701    -0.10221     -1.0539    -0.19251 -0.00054884    0.048172
-0.11293    -0.20485   -0.075255     -0.8785    -0.23149    0.023812    0.067661
-0.0093186    -0.21914   -0.021986    -0.44294    -0.24123    0.033881    0.080653
0.12613    -0.21265    0.045574    0.067011    -0.24221    0.028359    0.085525
0.27002    -0.18959     0.10956     0.45223    -0.24838    0.015692    0.090397
0.3876    -0.15516     0.15438     0.66011    -0.24935   0.0059473    0.097868
0.44379    -0.11683     0.17062     0.76892    -0.22467  0.00010078    0.099817
0.41098   -0.084024     0.15373     0.85987    -0.16263  -0.0050961      0.0865
0.29048   -0.063237     0.10924     0.92645   -0.068109   -0.013216    0.053694
0.11248    -0.05739    0.046873     0.89852    0.042651   -0.025559    0.015042
-0.084024   -0.076229   -0.020037     0.73384     0.15731   -0.036927   -0.011592
-0.26624    -0.11748   -0.079802     0.46068     0.26774   -0.038227    -0.01484
-0.415      -0.161    -0.12333     0.16283     0.36518    -0.03173   0.0039985
-0.51537    -0.17594    -0.15158   -0.069733     0.43339   -0.021012    0.033881
-0.56084    -0.14574    -0.17075    -0.17042     0.45191   -0.014516    0.056617
-0.55727   -0.068758    -0.18309    -0.11358     0.40903   -0.015165    0.064413
-0.52251    0.038103    -0.18894    0.079679     0.30867   -0.021337    0.055968
-0.4634     0.14984    -0.18179     0.35674     0.18362   -0.026858    0.042651
-0.36791      0.2502    -0.15451     0.65816    0.081952   -0.026209    0.037129
-0.22661     0.32621    -0.10449     0.92158    0.047523   -0.015165    0.042975
-0.047971      0.3733    -0.04115      1.0824    0.094945  -0.0028225     0.05272
0.13035      0.3889    0.019914      1.0934     0.19986   0.0036737    0.059865
0.26319     0.37525    0.060515     0.93295     0.31354   0.0036737    0.058241
0.32101     0.34245    0.069285     0.62178     0.38954   0.0026992     0.05142
0.30152     0.29827    0.047198     0.23883     0.40416   0.0065969    0.043625
0.23396     0.25085   0.0091954    -0.09994     0.35154    0.015367    0.040052
0.15926     0.20603   -0.027833    -0.30294     0.23039     0.02641    0.042326
0.11573     0.16413   -0.053492    -0.34712    0.051745    0.030308    0.045899
0.11216     0.11898    -0.05804    -0.27209    -0.16133     0.01764    0.041351
0.13197    0.067661   -0.036927     -0.1217    -0.37635   -0.012892    0.025436
0.14919    0.014392   0.0046481    0.094945    -0.54882   -0.056741  -0.0021729
0.13717   -0.034654    0.060515     0.33985    -0.64334    -0.10221   -0.035303
0.085525   -0.071682     0.11703     0.49446    -0.66965    -0.13404   -0.063561
0.0052977   -0.089221     0.16056     0.41293    -0.67745    -0.14444   -0.078178
-0.079477   -0.085973     0.17485    0.057267    -0.72649    -0.12722   -0.073306
-0.14964   -0.070382     0.14789    -0.46178    -0.85544     -0.0837   -0.047321
-0.19056   -0.055441    0.076755    -0.98861     -1.0721   -0.022961  -0.0063954
-0.19738   -0.053168   -0.022311     -1.4307      -1.342    0.037778    0.034855
-0.16458   -0.061288    -0.12203     -1.7292     -1.5898    0.085525    0.065712
-0.097017   -0.072006    -0.19056     -1.7746     -1.7237     0.11151     0.08585
-0.0057458   -0.070382    -0.20485     -1.4118     -1.6645     0.11703     0.10242
0.094295   -0.051219    -0.16003    -0.56799     -1.3946     0.11118     0.11833
0.18199   -0.029132   -0.076229     0.60976    -0.98764    0.098517     0.13262
0.22519   -0.031081   0.0095202      1.7031    -0.58033    0.079029     0.13457
0.20863    -0.07428    0.066686      2.3397     -0.2971    0.049147     0.12125
0.13782    -0.15256    0.079679       2.365    -0.18634    0.008221    0.090072
0.04395    -0.23961    0.050446      1.8989    -0.21037   -0.037577    0.046223
-0.037577    -0.30392   0.0017248      1.2224    -0.29288   -0.078503  -0.0024977
-0.075579    -0.31983   -0.037902     0.61106    -0.35556    -0.10936   -0.046671
-0.062912    -0.27501   -0.045697     0.23039    -0.34225     -0.1217   -0.074605
-0.020687    -0.18536   -0.015815     0.11118    -0.24188    -0.11813   -0.087272
0.020888   -0.081426    0.032582     0.17647   -0.084674    -0.10709   -0.087922
0.048497    0.009845    0.077405     0.30445    0.078379   -0.095068   -0.082725
0.074806    0.076106     0.10469     0.39117     0.19693   -0.085973   -0.072331
0.11346     0.10631     0.10794     0.37883     0.23981   -0.084349   -0.061937
0.16283    0.096244    0.087474     0.26904     0.19823   -0.091495   -0.052518
0.2044    0.048497     0.05272     0.10047     0.11151    -0.10806   -0.046671
0.20603   -0.026858    0.012443   -0.071357     0.03453     -0.1282   -0.047321
0.14009    -0.11098   -0.021986     -0.2107   -0.010618    -0.14964    -0.05804
0.0039985    -0.18536   -0.044398    -0.30262   -0.031081    -0.16295   -0.080776
-0.15548    -0.23798   -0.054142    -0.35199   -0.072656      -0.161    -0.10514
-0.27209    -0.26722   -0.059664    -0.36758    -0.19673    -0.14281     -0.1191
-0.31561    -0.27241   -0.062587    -0.36011    -0.40916    -0.11326    -0.11456
-0.30229    -0.25455   -0.068109    -0.34484    -0.66575     -0.0837    -0.10221
-0.27144    -0.22077   -0.076229    -0.33575    -0.90254   -0.065186    -0.10286
-0.2539    -0.18342   -0.084999    -0.33575     -1.0698   -0.062262    -0.12463
-0.26234    -0.15256   -0.095717     -0.3429     -1.1556   -0.070707    -0.15451
-0.27858    -0.12527    -0.10579    -0.35394     -1.1731   -0.082076    -0.17659
-0.27176   -0.086623    -0.11066    -0.36368     -1.1517   -0.084349    -0.17562
-0.22791   -0.021337    -0.10416    -0.37018     -1.1013   -0.077853    -0.15288
-0.15516    0.073832   -0.089871    -0.37213     -1.0165   -0.068434    -0.11651
-0.061288     0.19336   -0.072006    -0.36791    -0.90156   -0.061613   -0.078827
0.059865     0.32263    -0.04927    -0.35426     -0.7528   -0.058365   -0.043099
0.20083     0.43632   -0.026209    -0.33315    -0.54947   -0.062587   -0.010943
0.32881      0.5094   -0.007045    -0.31106    -0.26722   -0.072331    0.013418
0.40773     0.53668   0.0085458     -0.2906    0.095269   -0.083375     0.02641
0.42203     0.52499    0.023812    -0.27858     0.51979   -0.088572    0.030308
0.37915     0.48341    0.041027    -0.28508     0.98654   -0.082076    0.033556
0.30282     0.42203    0.058891    -0.31691      1.4426   -0.067134    0.037454
0.21025     0.35089    0.071883    -0.37668      1.8103   -0.047646    0.041027
0.11346     0.27554    0.074482    -0.45528      2.0276   -0.029132    0.038428
0.012119     0.19856    0.066686    -0.54135      2.0711   -0.012242    0.031282
-0.094418     0.11995    0.045899    -0.62938      1.9496   0.0033489     0.02641
-0.19998    0.044599    0.008221     -0.7135       1.691    0.022837     0.02706
-0.28313   -0.018413   -0.043099    -0.76839      1.3399     0.05142    0.037129
-0.32568   -0.058365   -0.096692    -0.74566     0.96543    0.088448    0.058241
-0.31496    -0.06551    -0.13372    -0.60242     0.63542     0.13165    0.088124
-0.25325   -0.041799    -0.13632     -0.3429     0.37493     0.17127     0.11963
-0.15841  -0.0041217    -0.10449   -0.011917      0.1729     0.19791     0.14204
-0.055766    0.027385   -0.052843     0.31679   -0.014191     0.20376     0.14756
0.032582    0.037778 -0.00022403     0.56786    -0.22726     0.18622     0.13197
0.092021    0.027709    0.038753     0.70136    -0.44456     0.14724     0.10079
0.12937   0.0049729    0.053044     0.72052    -0.57838    0.094945    0.068635
0.16185   -0.018738    0.044924     0.65654    -0.55077    0.042651    0.048497
0.20213   -0.034004    0.025761     0.54805    -0.34777   0.0020496    0.047198
0.24695   -0.038876   0.0059473      0.4269   -0.031406   -0.020687    0.060515
0.27846   -0.042124  -0.0089938     0.31094     0.29243   -0.031081    0.073507
0.27814   -0.055441   -0.021986     0.20278     0.51557   -0.040825    0.074806
0.23071   -0.088247   -0.035303     0.10696     0.56007   -0.063237    0.058891
0.1336    -0.14216    -0.04992    0.034206     0.38857    -0.10644    0.023812
0.0039985     -0.2055   -0.064861   -0.008669    0.041027    -0.16425   -0.021661
-0.1269    -0.25747   -0.078827    -0.01484    -0.36726    -0.21979   -0.061937
-0.22759    -0.28248   -0.082076   0.0095202    -0.69174    -0.25455   -0.089221
-0.29093    -0.27404   -0.065186    0.055968    -0.82491    -0.25292    -0.10449
-0.33802    -0.22921   -0.027833     0.11248    -0.72812     -0.2159    -0.11228
-0.39616    -0.15841    0.019264     0.16413      -0.428    -0.15483    -0.11358
-0.47802    -0.07493    0.062464      0.2057   0.0095202   -0.081101    -0.11261
-0.57513   0.0033489    0.093645     0.23136     0.48374   -0.013541    -0.11586
-0.66608    0.057267     0.10209     0.22649     0.89365    0.036154    -0.12268
-0.71805     0.06831    0.088448     0.17095      1.1775     0.06019     -0.1295
-0.70018    0.023812    0.058891    0.054993      1.3295    0.064737     -0.1295
-0.59527   -0.065186    0.021863    -0.10546      1.3685    0.061489     -0.1204
-0.40883     -0.1727   -0.011267    -0.27306      1.2834    0.059541    -0.10416
-0.16003    -0.26169   -0.034329    -0.40461      1.0505    0.064737   -0.089871
0.12483    -0.30587   -0.046996    -0.46795     0.68025    0.074806   -0.082076
0.41391    -0.29547   -0.051868     -0.4595     0.20376    0.084226   -0.075579
0.68999    -0.24643   -0.048945    -0.39551    -0.34809     0.09462   -0.056091
0.93879    -0.19543   -0.038227    -0.30879     -0.9269     0.11346   -0.014516
1.1122    -0.19511   -0.031081    -0.24935     -1.4661     0.13652    0.043625
1.1496    -0.27176   -0.035303    -0.25325     -1.8718     0.15503    0.093645
1.0245    -0.40461   -0.053168     -0.2945     -2.0429     0.16121     0.11638
0.766    -0.52674   -0.068109    -0.31009     -1.9202     0.15536     0.10696
0.45061    -0.57189   -0.065186    -0.24805     -1.5155     0.14269    0.076755
0.15406     -0.5066   -0.039851    -0.11553    -0.94379     0.13132    0.044924
-0.07493    -0.34614 -0.00087364    0.036804     -0.3783     0.13067     0.02706
-0.22239    -0.13989    0.038428     0.15601    0.046223     0.14107    0.026085
-0.28833    0.056617     0.06896     0.21512     0.29665     0.15146    0.032906
-0.27696     0.20376    0.089098      0.2174     0.42138     0.15309    0.041351
-0.20193     0.29275    0.099167     0.18297     0.49348     0.14204    0.049472
-0.081751     0.33173     0.09462     0.13165     0.56299     0.11963    0.051745
0.056292     0.33595    0.072208    0.081303     0.64127    0.091047    0.044599
0.17939     0.31679    0.032582    0.044924     0.70948    0.061814    0.029658
0.25085     0.27781  -0.0099683    0.034206     0.73579    0.034206    0.012443
0.24793     0.22747   -0.043423    0.051745     0.69324    0.010495  -0.0028225
0.18719     0.18654   -0.055441    0.093645     0.57566  -0.0093186    -0.01484
0.10339     0.17517   -0.039201     0.15373     0.39572   -0.029132   -0.019063
0.029658     0.19628   0.0020496      0.2148     0.17745   -0.053168  -0.0093186
-0.021012     0.24078    0.056617     0.25735   -0.051544   -0.077853    0.012443
-0.043099     0.29827     0.11118     0.26547    -0.26819   -0.097341    0.040052
-0.034329     0.35966     0.15601     0.24111    -0.44424    -0.11001    0.064737
0.0085458     0.41878     0.18622     0.19206    -0.53128    -0.11456    0.075131
0.079679     0.47367     0.20018     0.12515    -0.49036    -0.11488    0.064088
0.16056     0.52012     0.19499    0.042326    -0.31918    -0.11358    0.029983
0.23916     0.54643     0.16933   -0.072331   -0.061937    -0.11553   -0.018088
0.31127     0.53214      0.1271    -0.24156     0.23104    -0.12073   -0.064536
0.37428     0.47205    0.085525    -0.47055     0.53668    -0.12235   -0.088572
0.42657       0.385    0.063763    -0.73981     0.83843    -0.10514   -0.084024
0.45646     0.30639    0.069285     -1.0243      1.0785   -0.063561    -0.05739
0.44736     0.26547    0.083576     -1.2618      1.1454  -0.0034721   -0.022961
0.39052     0.26937    0.078055     -1.3716     0.89722    0.055643    0.003024
0.28496     0.29405    0.033556     -1.3111     0.24728    0.095919    0.015042
0.14496     0.31094   -0.053168     -1.0835    -0.68979     0.11216    0.020564
-0.0018481      0.2947    -0.15223    -0.70376     -1.6044     0.10859    0.029983
-0.1191     0.23948    -0.22434     -0.2146     -2.2086     0.10079    0.055643
-0.18244     0.14919    -0.24968     0.30834     -2.3518    0.098193     0.10014
-0.19154    0.030633    -0.23538     0.77412     -2.0602     0.10306     0.14561
-0.16685    -0.10709    -0.20225       1.109     -1.4999     0.11216     0.17615
-0.14509    -0.23863    -0.17692      1.2828    -0.88857     0.11963     0.18297
-0.1623    -0.33932     -0.1714      1.3302    -0.39616     0.11931     0.16478
-0.23896    -0.38739    -0.18309      1.3084   -0.095068     0.10112     0.12807
-0.35849    -0.37343    -0.19283      1.2464    0.046873    0.064088    0.081952
-0.48938    -0.30944    -0.18147       1.136     0.10664    0.016016    0.041027
-0.60079    -0.22499    -0.14281     0.96738     0.14789   -0.029132    0.011794
-0.67225    -0.15061   -0.085973     0.75528     0.21447   -0.058689  -0.0024977
-0.69012    -0.10449   -0.026858     0.54026     0.33368   -0.065186  -0.0083442
-0.65471   -0.089546    0.015042     0.36486     0.51232   -0.046347  -0.0060706
-0.57513   -0.097666    0.033556     0.24468     0.71922   -0.011267 -0.00022403
-0.466    -0.11488    0.032582     0.16348     0.89462    0.024137   0.0085458
-0.34679    -0.12852    0.020888    0.098517     0.98037    0.043625    0.014392
-0.24026     -0.1282   0.0078962    0.061489     0.94919    0.037778    0.014392
-0.15841    -0.10968   0.0046481    0.095919     0.78126   0.0085458   0.0043233
-0.10579   -0.076554    0.019264     0.22941      0.4688   -0.036927   -0.011592
-0.079152   -0.037577    0.054668     0.41943    0.036479   -0.085973   -0.025234
-0.073631  -0.0060706    0.099167     0.58021    -0.43352    -0.12105   -0.030756
-0.077528    0.008221     0.13944     0.64874    -0.82069    -0.13242   -0.025559
-0.081426 -0.00022403     0.15991     0.61594     -1.0299     -0.1217   -0.013541
-0.080451   -0.027508     0.15081       0.512     -1.0321   -0.097991  -0.0028225
-0.075255   -0.064211     0.11866     0.38207    -0.86714   -0.071682   0.0020496
-0.068434   -0.098316    0.075456      0.2593    -0.60956   -0.048296  0.00010078
-0.063886    -0.12138    0.039402     0.15893    -0.33835   -0.034004  -0.0041217
-0.067459     -0.1321    0.014068    0.079354    -0.10903   -0.032055  -0.0063954
-0.079477     -0.1334  -0.0011985   0.0078962    0.056617   -0.042124  -0.0076946
-0.092145     -0.1269   -0.008669   -0.060963     0.16478   -0.060313   -0.010943
-0.095068    -0.11326  -0.0067202     -0.1269     0.23689   -0.082076   -0.017114
-0.085648   -0.096042   0.0049729    -0.18082     0.29438    -0.10189   -0.024585
-0.06616   -0.079802    0.022188    -0.21817     0.34115    -0.11618   -0.031081
-0.045697    -0.06551     0.03518    -0.23733     0.37265     -0.1243   -0.035953
-0.029132   -0.058365    0.038428     -0.2474     0.39084    -0.12333    -0.04115
-0.020687   -0.060963    0.035505    -0.26007     0.39994    -0.11131   -0.045372
-0.020687   -0.071682    0.027385    -0.28703     0.39831   -0.092469   -0.050244
-0.030106   -0.080127    0.014717    -0.33185     0.37883   -0.076879   -0.051868
-0.038227   -0.082725   0.0023744    -0.37668     0.33595   -0.068434   -0.049595
-0.037902   -0.073955  -0.0083442    -0.39064     0.27456   -0.065835    -0.04115
-0.024585   -0.053168   -0.012242    -0.35459      0.2096   -0.070058    -0.03303
0.0075714   -0.027833  -0.0054209    -0.26494     0.15698   -0.080451   -0.030106
0.062464  -0.0080194    0.014068    -0.13762     0.12515    -0.10254   -0.034004
0.14042  -0.0060706    0.044924   -0.008669     0.11573    -0.13762   -0.044073
0.23104    -0.03303    0.080003    0.079679     0.11866    -0.18439   -0.059664
0.30607   -0.095717     0.10924     0.09397      0.1336    -0.23376   -0.081101
0.33433    -0.18374      0.1245    0.009845      0.1664    -0.27696    -0.10838
0.30607    -0.27209     0.12613    -0.18536     0.20895    -0.30327    -0.13762
0.22877    -0.32666     0.11541    -0.47996     0.24241    -0.30489    -0.16718
0.11638    -0.33153    0.090722     -0.8392     0.25507    -0.28281    -0.18861
-0.0083442    -0.29028    0.047523     -1.1721     0.24468    -0.24026    -0.19056
-0.11456    -0.22174   -0.013541     -1.3313     0.22552    -0.18309    -0.16912
-0.18017    -0.14152   -0.079152     -1.2053     0.20408     -0.1178    -0.12787
-0.19381   -0.062912    -0.12527    -0.80022     0.17582    -0.04927   -0.076879
-0.15613    0.012119    -0.13145    -0.19219     0.13717    0.021863   -0.022636
-0.086948    0.080653   -0.097666     0.48601      0.0865    0.092346    0.031607
-0.007045     0.14204   -0.048296      1.0401    0.019264     0.16056    0.084551
0.074482     0.19563    -0.01549      1.2951   -0.081751     0.21902     0.13425
0.1664     0.23559   -0.016464      1.1941    -0.22467      0.2528     0.17322
0.27067     0.25443   -0.051219     0.84103    -0.38577     0.25183     0.19044
0.3785     0.25183   -0.097017     0.43015    -0.51309     0.21805     0.17907
0.49121     0.23396    -0.12625      0.1336    -0.54915     0.16283     0.14464
0.60424     0.20538     -0.1308    0.017965    -0.46502     0.10144    0.096569
0.68512     0.16868    -0.12722    0.044924    -0.27534    0.041027      0.0433
0.69454     0.12743    -0.13307     0.13067   -0.032705   -0.011592   -0.008669
0.62081    0.088124    -0.15126     0.20408     0.19304   -0.052518   -0.052518
0.47692    0.057592    -0.16523     0.23006      0.3444   -0.074605   -0.080451
0.27391    0.038428     -0.1649     0.20863     0.39539   -0.071682    -0.08305
0.022188    0.027709    -0.14801      0.1625     0.35739   -0.043748   -0.061288
-0.26137    0.021538    -0.12722     0.11898     0.26482   0.0020496   -0.030756
-0.5459    0.009845    -0.10579    0.088773     0.15763    0.050446   -0.010618
-0.79373   -0.013866   -0.080776    0.071558    0.065712      0.0852   -0.013541
-0.96685    -0.04992   -0.053817    0.046223   0.0043233    0.092671   -0.032705
-1.0373   -0.096367   -0.025234   -0.021337   -0.016464    0.073182   -0.055766
-0.99608    -0.14639   0.0095202    -0.16035   0.0078962    0.044924   -0.067459
-0.85284    -0.19381     0.05272    -0.36238    0.074157    0.023487   -0.059664
-0.62126    -0.23181    0.094945    -0.57903      0.1625    0.014392   -0.034978
-0.31236     -0.2526     0.12223    -0.73526      0.2515    0.014717  -0.0021729
0.054344    -0.25227      0.1206    -0.77911     0.32036    0.017965    0.030308
0.4217    -0.23603    0.087799    -0.69986     0.35089    0.016666    0.052395
0.70298    -0.21395    0.033881    -0.53063      0.3327   0.0078962    0.058891
0.83193    -0.18829   -0.029457    -0.32211     0.26287   -0.010943    0.048822
0.78354    -0.15743   -0.089871    -0.13047     0.14399   -0.038551    0.024786
0.57014    -0.12235    -0.12787   0.0069217   -0.017439   -0.073631   -0.007045
0.24793   -0.084024     -0.1282    0.078379     -0.2081    -0.10416   -0.036278
-0.10189   -0.035303   -0.084999    0.096569    -0.41176     -0.1191   -0.051544
-0.39746    0.022512   -0.010293    0.080978    -0.61249    -0.11521   -0.048945
-0.58423    0.084226    0.070259    0.055318    -0.79145   -0.098965   -0.029782
-0.64627     0.14691     0.12872    0.033881    -0.92755   -0.080776  -0.0031473
-0.59754      0.2057     0.15049    0.016991    -0.99349    -0.06681    0.021538
-0.4686     0.26125     0.14139  -0.0018481    -0.96588   -0.058689    0.038428
-0.29385     0.31094     0.11768   -0.021986    -0.84732   -0.050569    0.049147
-0.10124     0.34375    0.092021   -0.045047    -0.65893   -0.032705    0.056292
0.097543     0.34894    0.074482   -0.079802    -0.43514 -0.00054884    0.067336
0.29892     0.32036    0.062464    -0.14769    -0.20323    0.038753    0.081952
0.49088     0.25443    0.045574    -0.28118    0.016016    0.071234    0.092996
0.64549     0.16153    0.013743    -0.50433      0.2148    0.081627    0.089098
0.74456    0.062464   -0.030756    -0.80087       0.385    0.058566    0.067661
0.78711   -0.016464   -0.076554     -1.1016     0.53019    0.008221    0.039078
0.76535   -0.055766    -0.10838     -1.2995     0.63802    -0.04927    0.013743
0.64484   -0.057065    -0.11586     -1.3043     0.68415   -0.095393  -0.0076946
0.38142   -0.039526   -0.097017     -1.0854     0.65361    -0.12463   -0.026858
-0.021012   -0.023935   -0.059339    -0.65698      0.5552    -0.13664   -0.047321
-0.48744    -0.01614  -0.0080194   -0.065835     0.42332    -0.12722   -0.063237
-0.90904  -0.0076946    0.051096       0.588     0.29145   -0.092794   -0.068758
-1.2153    0.011469    0.096569      1.1363     0.16023   -0.043099    -0.05804
-1.3917    0.040052     0.10599      1.4013  -0.0080194   0.0078962   -0.030756
-1.458    0.071883    0.074482         1.3    -0.23636    0.046223   0.0056225
-1.4196     0.10436     0.01764     0.91833    -0.48938    0.070909    0.043625
-1.2576     0.13879   -0.043423     0.45223    -0.69239    0.084551    0.075131
-0.95451      0.1742   -0.094418    0.084226    -0.77716    0.092996    0.097543
-0.52414     0.21123    -0.13112    -0.10579    -0.71415     0.09397     0.11021
-0.019388     0.24955    -0.15743    -0.13437    -0.52998    0.081303     0.10729
0.47562     0.28236    -0.17562   -0.041475    -0.26851    0.049147    0.090072
0.87935     0.29308    -0.18601     0.12872    0.032257   0.0049729    0.065062
1.1434     0.27294    -0.17724     0.31939      0.3457   -0.035953      0.0433
1.2548     0.22389    -0.14152      0.4688     0.64614   -0.059664    0.029658
1.2422     0.15893   -0.079152     0.53181     0.89689   -0.060963    0.022837
1.158    0.096569  -0.0031473     0.50095       1.058   -0.046347    0.016666
1.0528    0.053044    0.071558     0.40449      1.0954   -0.022311   0.0056225
0.95114     0.03453     0.12678     0.28593      1.0122   0.0075714  -0.0050961
0.85402    0.037129     0.15114     0.18719      0.8472    0.045249   -0.007045
0.75333    0.048497     0.14886     0.12872     0.64809    0.089748  -0.0018481
0.64322    0.057917     0.13132     0.10924     0.44184     0.13327   0.0065969
0.5081    0.051745     0.10501     0.10924     0.22747      0.1638    0.010819
0.34017    0.022188    0.072533     0.10794   -0.015165      0.1716   0.0075714
0.14724   -0.029132    0.042651    0.092021    -0.31529     0.14626  -0.0073698
-0.037902   -0.089546    0.022188    0.054344    -0.68037    0.088773   -0.029457
-0.17724    -0.13924    0.012768  -0.0034721     -1.0773    0.012443   -0.052193
-0.24805     -0.1662   0.0056225   -0.065835     -1.4323   -0.060313   -0.072006
-0.24838    -0.17302  -0.0028225    -0.12008     -1.6688    -0.11488   -0.086948
-0.19381     -0.1688   -0.015165    -0.15841     -1.7431    -0.14639   -0.098641
-0.10806    -0.15905   -0.024909    -0.17724     -1.6317    -0.15873    -0.10514
-0.012567    -0.14281   -0.021661    -0.17887     -1.3232    -0.15418    -0.10416
0.083251    -0.11618   -0.008669     -0.1714    -0.85219    -0.13664   -0.096367
0.16608   -0.080127   0.0043233    -0.17172    -0.30977    -0.11228   -0.087272
0.21512   -0.043423     0.01017    -0.19219     0.19856   -0.094093   -0.082076
0.21382  -0.0096434   0.0078962    -0.22272     0.60164   -0.091495   -0.085324
0.15763    0.020564   0.0020496    -0.23766     0.87448    -0.11066   -0.097666
0.059216    0.047198  -0.0028225     -0.2029      1.0206    -0.14541    -0.11813
-0.060963    0.058891  -0.0063954    -0.10449      1.0658    -0.18374    -0.14022
-0.18114    0.043625   -0.011267    0.024461      1.0398    -0.20972    -0.15808
-0.28248 -0.00054884   -0.025559    0.095594     0.95179    -0.21362    -0.16393
-0.34939   -0.061613   -0.047321    0.019589     0.80335    -0.19089    -0.15353
-0.37505     -0.1204   -0.057715    -0.20745     0.60067    -0.14379    -0.12365
-0.35329    -0.15418     -0.0405    -0.47737     0.37818   -0.081751   -0.079802
-0.2893    -0.15548   0.0036737    -0.66056     0.18167  -0.0076946    -0.03238
-0.2055    -0.13859    0.050771    -0.69953    0.042001    0.064413   0.0062721
-0.13112     -0.1204    0.075456    -0.61703   -0.032705     0.12288    0.030633
-0.083375    -0.10514     0.07773    -0.45171   -0.046347     0.16283    0.041027
-0.060313   -0.090845    0.075781    -0.19673   0.0065969     0.19174    0.046223
-0.050894   -0.075255    0.086175     0.16998     0.12872     0.21902    0.055318
-0.044723   -0.062912     0.10274     0.59093     0.31224     0.24663    0.070584
-0.035628   -0.055116     0.10209     0.90209     0.53668     0.27294    0.092021
-0.02426   -0.053492    0.064088     0.90664     0.75658     0.29308     0.11638
-0.019388   -0.058689   -0.013541     0.48406     0.91119      0.2999     0.13555
-0.029132   -0.065186    -0.11261    -0.28313     0.95016     0.28821     0.14399
-0.058689   -0.072331     -0.2094     -1.0763     0.86019      0.2567     0.13392
-0.10579   -0.080451    -0.28086     -1.5424     0.66368     0.20993     0.10631
-0.15029   -0.085324    -0.30749     -1.4888     0.40806     0.15244    0.069934
-0.17432   -0.077203    -0.28183    -0.94801     0.16413    0.092996    0.036154
-0.1701   -0.055441     -0.2133    -0.14152  -0.0018481    0.042326    0.013418
-0.14281   -0.026858    -0.12527     0.64419    -0.07428   0.0017248   0.0026992
-0.10611  -0.0024977   -0.038551      1.2035   -0.087272    -0.03173 -0.00054884
-0.077528    0.011794    0.030308      1.4796    -0.10903   -0.063237  -0.0018481
-0.067784    0.015042    0.079029      1.5124    -0.20972   -0.092469 -0.00022403
-0.071032    0.011144     0.10924       1.388    -0.41565    -0.12073   0.0039985
-0.078827   0.0023744      0.1271      1.1889    -0.68264    -0.14639   0.0091954
-0.0824  -0.0080194     0.13002     0.95861    -0.92463    -0.16588    0.011469
-0.070707   -0.019388     0.11638     0.70558     -1.0672    -0.16977    0.011144
-0.041475   -0.027183    0.088773     0.42787     -1.0796    -0.15191    0.016016
0.010819   -0.025884    0.050121     0.14334    -0.97757    -0.11228    0.031607
0.07708    -0.01614   0.0072465    -0.11066    -0.80802   -0.059989    0.055643
0.14334 -0.00022403   -0.028157    -0.29255    -0.62743   -0.013541    0.083576
0.18589    0.015042   -0.048296    -0.37408    -0.48126    0.014068     0.10436
0.18524    0.029009   -0.046347    -0.34744    -0.39454     0.01829     0.10826
0.13847    0.035505   -0.027508    -0.22791    -0.36921   0.0023744    0.089423
0.054668    0.032257  -0.0031473   -0.056416    -0.38642    -0.02361    0.056617
-0.052843     0.01829    0.019264     0.11313    -0.42215   -0.052193    0.020888
-0.17042  -0.0024977     0.03518     0.23689    -0.45983   -0.077203   -0.011917
-0.28281   -0.023935    0.044599     0.29405    -0.49003   -0.096042   -0.036927
-0.3744   -0.044723    0.048172     0.29405     -0.4988    -0.10481   -0.050244
-0.43352   -0.061288    0.051096     0.25767    -0.46957    -0.10156   -0.052518
-0.45658     -0.0837    0.052395     0.20311    -0.40461   -0.090521   -0.052518
-0.44781    -0.11845    0.050446     0.14334    -0.32503   -0.078178   -0.052843
-0.41338    -0.15223    0.043625    0.086824    -0.25227   -0.067134   -0.050894
-0.34484    -0.16815    0.031932      0.0433    -0.18959   -0.053492   -0.042124
-0.23116    -0.15841    0.020239     0.01764    -0.13534   -0.034654   -0.023935
-0.080127    -0.12787    0.016666    0.009845   -0.089546   -0.016464  -0.0011985
0.083251   -0.089871    0.024461    0.013743   -0.056741   -0.010293    0.021863
0.22682   -0.060313    0.038103     0.01894   -0.040175   -0.021012    0.033231
0.33335   -0.042449    0.046873    0.016991   -0.036927    -0.04115    0.025761
0.39474    -0.03303    0.044275  -0.0073698   -0.046347   -0.061288   0.0046481
0.40643   -0.022636    0.029009   -0.081426    -0.06616   -0.073306   -0.016789
0.37168  -0.0083442   0.0046481    -0.26332   -0.089871    -0.07428   -0.029457
0.3012   0.0075714   -0.022311     -0.5969    -0.11196   -0.067134    -0.03238
0.21285    0.020564   -0.044723     -1.0302    -0.12008   -0.056741   -0.026858
0.12385    0.028684   -0.056741     -1.4388    -0.11326   -0.046347   -0.019388
0.054344    0.033881   -0.057715     -1.7051    -0.11326   -0.037577   -0.019063
0.028359    0.041676   -0.049595     -1.7834    -0.14704   -0.033354    -0.02361
0.039727    0.051096   -0.036602      -1.674    -0.22889    -0.03238   -0.026209
0.059541    0.060515   -0.015165     -1.3355    -0.33705   -0.034329   -0.023935
0.055968    0.072208    0.023812    -0.68167    -0.41695   -0.032055   -0.012892
0.018615      0.0865    0.080003      0.3012    -0.40948   -0.017439   0.0023744
-0.044723    0.097218     0.13295      1.3786     -0.2906    0.009845    0.021863
-0.1191    0.085525     0.15309      2.1584   -0.097341    0.040702    0.042975
-0.174     0.04395     0.12223      2.3235    0.096893    0.065387    0.063438
-0.18569   -0.020037    0.047523      1.8268     0.22584    0.081303     0.08585
-0.14704   -0.086298   -0.042124     0.92483      0.2606    0.082602     0.10859
-0.073955    -0.13307    -0.11228  -0.0050961      0.2161    0.072533     0.12775
-0.0018481    -0.14249    -0.14574    -0.65634     0.13035    0.055318     0.13912
0.038753    -0.10936    -0.13989    -0.92008    0.040702    0.031932     0.13749
0.033231    -0.04115    -0.10611    -0.81809   -0.031081   0.0052977     0.11606
-0.021337    0.045574   -0.062587    -0.43417   -0.077203   -0.021012    0.074157
-0.10968     0.13912   -0.026209    0.079029   -0.097341   -0.044073    0.016341
-0.19998     0.22812  -0.0034721     0.52012   -0.092794   -0.057065   -0.041799
-0.24935     0.30087    0.010819     0.76632   -0.062912   -0.053168   -0.079802
-0.22044      0.3457    0.032257     0.81829   -0.011267   -0.035303   -0.088572
-0.092469     0.34992    0.063438     0.74553    0.049796   -0.015815   -0.075255
0.11931     0.30347    0.081952     0.60749     0.10079  -0.0093186   -0.061613
0.37623     0.21382    0.068635     0.44671     0.14139   -0.026533   -0.067459
0.62763     0.11054     0.02641     0.33887     0.19888   -0.064211   -0.095068
0.80822    0.020564   -0.023935     0.35901     0.31159    -0.10903    -0.13924
0.85272   -0.037252   -0.062912     0.50258     0.49836    -0.14444    -0.18471
0.72605   -0.054142   -0.077203     0.68155     0.75528    -0.16035    -0.21622
0.44119   -0.029782   -0.064211     0.78451      1.0551    -0.14899    -0.22174
0.051096    0.025436   -0.036278     0.75333      1.3552    -0.10481    -0.19673
-0.36921    0.088448   -0.008669     0.59028       1.617   -0.026858    -0.14346
-0.74955     0.13717   0.0039985     0.34212      1.8083    0.072858   -0.072331
-1.0321      0.1651 -0.00054884    0.073507       1.897     0.17062   0.0010752
-1.1822     0.17582   -0.020362    -0.16068      1.8421     0.24241    0.056617
-1.1929     0.18069   -0.047971    -0.33997      1.5943     0.27067    0.080003
-1.0854     0.18719   -0.078827    -0.46925      1.1554     0.25345    0.078379
-0.90676     0.19953    -0.10968    -0.56604     0.61106     0.19953    0.063763
-0.69921     0.21545    -0.13047    -0.64562     0.14756     0.13035    0.048822
-0.48094     0.23266    -0.13697    -0.69921   -0.026209    0.071234    0.040052
-0.2539      0.2476     -0.1256    -0.68882     0.16738    0.038753    0.040377
-0.021012       0.258   -0.096692    -0.59007     0.62665    0.036479    0.046223
0.20051     0.26157   -0.051544    -0.43839      1.1561    0.055643    0.055318
0.39767     0.25443   0.0039985    -0.31236       1.577    0.080653    0.065062
0.55617     0.23266     0.06831    -0.24708      1.7687    0.097868    0.076106
0.66011     0.19791      0.1336    -0.20031      1.6475    0.099167      0.0865
0.69584     0.15438     0.18264    -0.11196      1.1577    0.085525    0.088773
0.65751     0.10534     0.19369    0.049147     0.26417    0.061165    0.076431
0.55617     0.05142     0.15373     0.24176     -1.0052    0.025436    0.049147
0.4191  -0.0044465    0.067986     0.38435     -2.4528   -0.019712    0.015367
0.28268   -0.053168   -0.033354     0.41423     -3.7846   -0.072006   -0.015165
0.17615   -0.085648    -0.11033     0.34505     -4.7161    -0.12917   -0.036927
0.10924   -0.095717    -0.13827     0.23916     -4.9698    -0.18731    -0.04992
0.076431   -0.092794    -0.11423     0.14367     -4.9444    -0.23961   -0.058365
0.075131   -0.089546   -0.056741    0.042975      -4.415    -0.27923   -0.060638
0.10761   -0.097341   0.0075714    -0.10709     -3.7202    -0.29645   -0.050569
0.17647    -0.11651    0.064413    -0.29515     -3.0339    -0.28833   -0.029132
0.27716    -0.13892     0.11021    -0.43514     -2.4623    -0.25747   0.0020496
0.39019    -0.15418     0.14756    -0.43741     -2.0524    -0.21102    0.038753
0.47887     -0.1636     0.16738    -0.29547     -1.7659    -0.15776    0.069285
0.5133    -0.17465     0.15601    -0.11293     -1.4914    -0.10806    0.087149
0.48634    -0.19673     0.10371   -0.040825     -1.1335   -0.064211    0.096244
0.41585    -0.23538    0.013093    -0.18407    -0.67452   -0.019712     0.10112
0.33173    -0.28053    -0.10416    -0.53778    -0.17367    0.030633     0.10599
0.2502    -0.32016    -0.22402    -0.97302     0.27521      0.0865     0.10859
0.1716    -0.34127    -0.32243      -1.266     0.61074     0.13912     0.10436
0.087799    -0.33445    -0.37115     -1.2056     0.84233     0.17972    0.087799
-0.0031473    -0.29872    -0.36076    -0.74566      1.0125     0.20116     0.06019
-0.10221    -0.24578    -0.29515   -0.049595      1.1522     0.19726    0.022512
-0.21817    -0.19771    -0.19998     0.61464      1.2743     0.16705   -0.019712
-0.35199    -0.18082    -0.10741      1.0479      1.3779     0.10794   -0.059339
-0.47932     -0.2055     -0.0405      1.1905      1.4666    0.029009   -0.090845
-0.56539    -0.25845  -0.0089938      1.0833      1.5615   -0.053168    -0.11261
-0.58358    -0.31009   -0.010943     0.80822      1.6849     -0.1217    -0.12527
-0.53291     -0.3338   -0.036602     0.43534      1.8297    -0.16425    -0.13112
-0.43254    -0.31918   -0.069083    0.024461      1.9626    -0.17854    -0.13404
-0.31042    -0.26851   -0.090196     -0.3731      2.0191    -0.17205    -0.13567
-0.20225    -0.19089   -0.082076    -0.70636      1.9515    -0.15905    -0.13762
-0.13729    -0.10806   -0.046996    -0.93372      1.7537    -0.14899    -0.14249
-0.13307   -0.046996  0.00010078     -1.0331      1.4725    -0.14184    -0.14866
-0.18374   -0.021012     0.04395     -1.0023      1.1798    -0.13145    -0.15646
-0.26332   -0.023935    0.083576    -0.81744     0.93685    -0.11228    -0.16523
-0.3312   -0.038227     0.11963    -0.43709     0.77477   -0.083375    -0.16945
-0.35849   -0.044398     0.15536      0.0865     0.69779   -0.050569    -0.16295
-0.3364   -0.033679     0.18232     0.56104     0.68642   -0.022311    -0.14216
-0.27371  -0.0073698     0.18979     0.79783     0.70656  -0.0037969    -0.11163
-0.18309    0.021863      0.1755      0.7556     0.72182   0.0033489   -0.072981
-0.0824    0.041027     0.14432     0.53149      0.7124   0.0033489   -0.032705
0.0020496    0.038753     0.10566     0.27879      0.6718   0.0026992  0.00010078
0.047523    0.016016    0.065712     0.11606      0.5997  -0.0011985     0.01894
0.045574   -0.011917    0.030633    0.080653     0.49868   -0.013541    0.021863
0.015692   -0.026209   0.0033489     0.13814     0.38727   -0.036278    0.013743
-0.011592   -0.016464   -0.016464     0.22779      0.2895    -0.06551   0.0023744
-0.014191    0.015367   -0.032055      0.2895     0.22032   -0.087597  0.00010078
0.013743    0.060515   -0.047971     0.28301     0.18427   -0.095717    0.009845
0.067336     0.11118   -0.056091     0.20116     0.17745   -0.089871    0.032257
0.12613     0.15698   -0.044073    0.068635     0.18134   -0.074605    0.058566
0.1664     0.18394  -0.0083442    -0.07428     0.17452   -0.062262    0.078055
0.1768     0.18427    0.040052    -0.19056     0.15633   -0.062587    0.081952
0.16673     0.15958    0.083251    -0.25942     0.13847   -0.074605     0.06961
0.15114     0.11995     0.11151    -0.28508     0.13132   -0.088896    0.046873
0.13425    0.072208     0.12158    -0.28411     0.13814   -0.097666    0.019914
0.12385    0.028684     0.11573    -0.27988     0.14951   -0.097017  -0.0050961
0.1258   0.0026992    0.097868     -0.2906     0.15568   -0.090521   -0.023285
0.14139      0.0014    0.072858    -0.32601     0.15698   -0.078178   -0.033354
0.16933    0.021538    0.046548    -0.39616     0.15406   -0.056091   -0.035953
0.21025     0.05207     0.01894    -0.48744     0.14594   -0.022311   -0.027183
0.2567    0.078055   -0.013216    -0.56084     0.13197    0.022512  -0.0073698
0.28301    0.088773   -0.048945    -0.57546     0.10404    0.066037    0.020564
0.24923      0.0852    -0.08305     -0.5118    0.057267    0.096569    0.049796
0.12483    0.072208    -0.11456    -0.37733   -0.013866     0.10859    0.070259
-0.077203     0.06019    -0.14152    -0.21102   -0.094093     0.10209    0.073182
-0.30717    0.056942    -0.15581   -0.067134    -0.14671    0.083251    0.060515
-0.49491    0.067661    -0.14411    0.013743    -0.14314    0.063113    0.041027
-0.59884     0.09462    -0.09994    0.041027   -0.073955    0.053694    0.023487
-0.61184     0.12807   -0.033354    0.054344    0.045249     0.06084    0.016016
-0.5498     0.14854    0.035505    0.091372     0.19206    0.082277    0.021213
-0.4254     0.14529    0.085525     0.16803     0.35512     0.10891    0.039078
-0.24123     0.11346     0.10566     0.27391     0.53116     0.13165    0.066037
-0.0089938    0.059216    0.098517     0.38662     0.70428     0.14334    0.095269
0.24111  -0.0060706    0.080978     0.48212       0.842     0.14302      0.1206
0.46165    -0.06681    0.066362     0.54091     0.90274     0.13197      0.1323
0.61041    -0.10546    0.061165     0.54935     0.81634     0.11768     0.12548
0.66466    -0.11391    0.064737     0.51135     0.52272     0.10242     0.10242
0.61659   -0.095393    0.071558     0.44444     0.01764    0.083251    0.072208
0.48894   -0.061937    0.070584     0.36811     -0.6271    0.061165    0.051096
0.32491   -0.032055    0.058891     0.29438     -1.2842    0.038428    0.045899
0.16705    -0.01549     0.03453     0.22422     -1.8136    0.019914    0.054019
0.045249   -0.013216   0.0026992     0.15893     -2.1293    0.012768    0.064413
-0.025559   -0.015815   -0.030431    0.098517     -2.2099    0.012119    0.068635
-0.046347   -0.015815   -0.060638    0.050446     -2.1001   0.0069217    0.065712
-0.035953   -0.007045   -0.086948     0.01829     -1.8763  -0.0089938    0.056617
-0.011267    0.012119    -0.11326   -0.013541     -1.6109   -0.036602    0.047198
0.021863    0.042651    -0.13729   -0.061937     -1.3605   -0.074605    0.039727
0.061814    0.080328    -0.14964    -0.12625     -1.1387    -0.11715    0.032257
0.10242     0.12255    -0.13469    -0.17854    -0.92463     -0.1597    0.025436
0.13652     0.15991   -0.087272    -0.18374    -0.66803    -0.19186     0.01829
0.14919     0.18004   -0.014191    -0.13015    -0.32373    -0.21525   0.0043233
0.1206     0.17322     0.06084   -0.035953     0.10891    -0.22856   -0.015815
0.033556     0.13457     0.11476    0.062464     0.54513    -0.23766   -0.039201
-0.10514    0.066362      0.1336     0.13067     0.85532    -0.24156   -0.062587
-0.25357   -0.012567     0.11931     0.15601     0.92255    -0.23896   -0.080451
-0.35167   -0.069408    0.091696     0.14724     0.70266    -0.22661   -0.090196
-0.35459   -0.079152    0.065062     0.11866      0.2619    -0.19966   -0.088896
-0.2487   -0.036927    0.045249    0.081627     -0.2565    -0.15451   -0.073306
-0.059339    0.040052    0.030633    0.036154    -0.67875   -0.099615   -0.051219
0.15211     0.12255    0.019589   -0.020687    -0.86843   -0.048945   -0.031406
0.32231     0.18329   0.0023744   -0.085324    -0.78301   -0.014516   -0.027183
0.41326     0.19953   -0.021661    -0.14346    -0.48808    0.003024   -0.043423
0.41683     0.16868   -0.048296    -0.18407    -0.10741    0.011794   -0.068434
0.34862     0.10599   -0.069408    -0.21037     0.23331    0.020239   -0.088572
0.23201    0.038428    -0.08305    -0.23149     0.45613    0.030633   -0.097341
0.088773   -0.013866   -0.090196    -0.24123      0.5474    0.042651   -0.094093
-0.045372   -0.040825   -0.089546    -0.21362     0.53603     0.06084    -0.07493
-0.12852    -0.04115   -0.085324     -0.1334     0.46295    0.085525   -0.042449
-0.12527   -0.015815   -0.079477   -0.018738     0.36259     0.10891  -0.0028225
-0.035303     0.01829   -0.077528     0.09462     0.27456     0.12353    0.031282
0.10177    0.037778   -0.085648      0.1781     0.23981      0.1271    0.048822
0.22324    0.027709    -0.10319     0.22129     0.28301      0.1219    0.050771
0.27456  -0.0063954    -0.11618     0.22844     0.40319     0.11346    0.042001
0.23201   -0.036927    -0.11293      0.2096     0.56397     0.10177    0.022188
0.10956   -0.035953   -0.093444     0.17745     0.70623      0.0865  -0.0057458
-0.05804   0.0036737    -0.06616     0.14237     0.77801    0.072858    -0.03238
-0.21947    0.070584   -0.039201     0.11183     0.75755    0.066037   -0.050244
-0.34225     0.14367   -0.014191    0.092996     0.64907    0.069934   -0.055116
-0.41013     0.19986    0.008221    0.091372     0.48991    0.083576   -0.048296
-0.41468     0.22389    0.028359     0.10501     0.32491     0.10404    -0.03173
-0.36206     0.22032    0.046223      0.1258     0.18687     0.12515  -0.0099683
-0.27566     0.19953     0.06019     0.13782    0.083251     0.14237    0.011794
-0.17919      0.1716    0.065062     0.12418   -0.008669     0.15016    0.031282
-0.098316     0.14042    0.059541    0.083576    -0.12398     0.14139    0.045899
-0.047971     0.10826    0.047847    0.023162    -0.28703     0.11736    0.055318
-0.031081    0.075781    0.034855   -0.042774    -0.50465    0.088124    0.061489
-0.042774    0.040702    0.023812   -0.097017    -0.76742    0.063763    0.062464
-0.076554  0.00042559    0.020888     -0.1256     -1.0406    0.042651    0.054019
-0.13307   -0.044723    0.029333    -0.12203     -1.2504     0.01764    0.041351
-0.2029   -0.094743    0.045574   -0.092794     -1.3202   -0.016464    0.028034
-0.26559    -0.14444    0.060515   -0.055116     -1.2312   -0.055441    0.011794
-0.29742    -0.18699    0.062789   -0.029132      -1.036   -0.089871  -0.0083442
-0.28086    -0.21817    0.049472   -0.029782    -0.82101    -0.11456   -0.029132
-0.21655    -0.23701    0.025436   -0.053168    -0.67387    -0.12495    -0.04862
-0.11715     -0.2448   0.0023744    -0.08305    -0.64009    -0.12365   -0.062262
-0.0067202    -0.23798   -0.011267    -0.10449    -0.70083    -0.11715   -0.069408
0.094945    -0.21232   -0.011267    -0.11098    -0.78366    -0.11715   -0.072331
0.17712    -0.15938  -0.0018481    -0.10156    -0.80867    -0.13047   -0.078503
0.23201   -0.078503   0.0039985     -0.0837    -0.71675    -0.15256   -0.094743
0.2528    0.015692  -0.0047713   -0.058689    -0.50595    -0.17205     -0.1204
0.23429    0.096893   -0.035303   -0.023935    -0.22077    -0.17952    -0.14574
0.17939     0.14269   -0.090845    0.012119    0.066686     -0.1649    -0.15256
0.099167     0.14302    -0.15386      0.0433     0.28723     -0.1217    -0.13112
0.012119     0.10794    -0.19641    0.064088     0.41326   -0.052843   -0.084024
-0.057715    0.062139    -0.19576    0.080978     0.46717    0.028034   -0.024909
-0.089546    0.025436    -0.14801     0.09397     0.48731     0.10274    0.029009
-0.081426   0.0023744   -0.070058    0.091047     0.49381     0.15666    0.065387
-0.04992  -0.0067202    0.010819     0.06896     0.47724     0.18004    0.079354
-0.014191   -0.007045    0.074806    0.044599      0.4165     0.16998    0.074806
0.0069217  -0.0076946     0.11378    0.042001      0.2973     0.13522    0.055968
0.008221    -0.01549     0.12775    0.072533     0.12028    0.090397    0.031932
-0.0015233    -0.03303     0.11801     0.11021   -0.080451    0.045249    0.011794
-0.0083442   -0.061288    0.083901     0.11118     -0.2526   0.0065969   0.0026992
-0.0054209   -0.088896    0.029983    0.048497    -0.35784   -0.018088   0.0065969
0.009845    -0.10709   -0.028482   -0.059989    -0.38804   -0.021661    0.024137
0.029983    -0.11131    -0.07428    -0.16588    -0.35459  -0.0067202     0.05207
0.0433    -0.10124   -0.097341    -0.21687    -0.28021     0.01894     0.07773
0.042975    -0.08305   -0.097991    -0.18342    -0.17984    0.042326    0.093645
0.032582   -0.060638   -0.081101   -0.068109   -0.057715    0.056292    0.094295
0.019589   -0.034978    -0.04992    0.088448    0.087799    0.066686    0.085525
0.0017248   -0.016464   -0.013866     0.23169     0.24436    0.076755    0.072208
-0.020687   -0.019063    0.015367     0.31776     0.38825    0.088773     0.06019
-0.032705   -0.047321     0.03583     0.33465     0.49413     0.10079     0.05142
-0.0083442   -0.092794    0.051745     0.30185     0.52564     0.11086    0.049796
0.059865    -0.14574     0.06896      0.2463     0.45483     0.11606    0.057267
0.15861    -0.19056    0.087149     0.19499     0.28496     0.10859    0.071883
0.26579    -0.22499    0.095594     0.15893    0.061489    0.083576    0.083901
0.35512    -0.25455    0.086824     0.13522    -0.15418     0.04395    0.081952
0.40481    -0.28248    0.057267     0.11313    -0.31269  -0.0063954    0.063113
0.40676    -0.30554    0.012119      0.0865    -0.39454   -0.062587     0.03518
0.36324    -0.31756   -0.034978    0.054019    -0.41338    -0.11521   0.0072465
0.29308    -0.31626   -0.068109    0.020888    -0.40169    -0.15776   -0.012892
0.22065     -0.2932   -0.078178  -0.0047713    -0.39974    -0.19121   -0.021012
0.15341    -0.23701   -0.067459   -0.016789    -0.44489    -0.22304   -0.021012
0.07708    -0.15191   -0.046347   -0.019388    -0.55662    -0.26169   -0.018413
-0.027508   -0.051868   -0.026209   -0.018413    -0.69141    -0.30229    -0.01614
-0.16555    0.042651   -0.011917    -0.01484    -0.77294    -0.32893   -0.013541
-0.31594     0.11995  -0.0034721  -0.0073698    -0.73396    -0.32276   -0.012567
-0.44651     0.17485   0.0026992   0.0059473    -0.56929    -0.27988  -0.0073698
-0.52674     0.20278   0.0072465   0.0075714     -0.3325    -0.20843   0.0036737
-0.54298     0.20311    0.011144   -0.037252    -0.10546    -0.12463    0.016991
-0.5079     0.17939    0.011794    -0.14801    0.045899   -0.051219     0.02641
-0.44651     0.13847   0.0095202    -0.29223     0.10112  -0.0054209    0.028359
-0.38382    0.092996   0.0052977    -0.40493    0.098842    0.013743    0.020888
-0.33088    0.062464  0.00075039    -0.43936    0.093645    0.011144   0.0065969
-0.27988     0.06084  -0.0011985    -0.40266     0.11963  -0.0011985   -0.012567
-0.22044    0.092021  -0.0015233     -0.3338     0.18589   -0.017439    -0.03303
-0.14639     0.14334  -0.0018481    -0.22726     0.27619   -0.041475   -0.055116
-0.05739     0.18589  -0.0034721    -0.05739     0.37785   -0.071032   -0.076554
0.050446      0.2044  -0.0018481     0.16998     0.48114   -0.094418   -0.087922
0.17095     0.20603    0.013418     0.39474     0.58021   -0.095393   -0.077203
0.28106     0.20246    0.038753     0.54318      0.6731    -0.06681    -0.04115
0.35057     0.19823    0.063113     0.57436     0.75593   -0.010293   0.0075714
0.36324     0.18979    0.077405     0.49901     0.82641    0.054993    0.050771
0.32036      0.1716    0.075456     0.36551     0.86376     0.10631    0.071234
0.24046     0.14367    0.057917     0.23006     0.85045      0.1258    0.062464
0.14042     0.10566    0.029009     0.13035     0.78419     0.10794    0.029333
0.044275    0.062139  -0.0054209    0.073832     0.68285    0.062139    -0.01484
-0.02361    0.018615   -0.036927    0.046548     0.57339   0.0085458   -0.056091
-0.046022    -0.02426   -0.059989    0.032582     0.48439   -0.032705     -0.0837
-0.036278   -0.063237   -0.073631     0.01829      0.4295   -0.052193    -0.09182
-0.017439   -0.082725   -0.077853  -0.0037969     0.40546   -0.046671     -0.0824
-0.016789   -0.059664   -0.068758   -0.030106     0.39409   -0.025234   -0.062262
-0.051868   0.0091954   -0.048945   -0.052843     0.38987   0.0010752    -0.04115
-0.12982     0.10729   -0.025559   -0.067134     0.39377    0.025436   -0.022636
-0.24318     0.20181  -0.0067202   -0.070382     0.39637    0.043625  -0.0080194
-0.37083     0.25897   0.0049729    -0.06616     0.38825     0.05207   0.0039985
-0.48776      0.2593    0.011469   -0.058689     0.36356    0.050446    0.014717
-0.56636     0.19823    0.016341   -0.054142     0.31581    0.043625    0.022188
-0.5826    0.091696    0.020239   -0.054142     0.24013    0.031607    0.024786
-0.51862   -0.035953    0.021863   -0.054467     0.14854    0.013743    0.024786
-0.37733    -0.15093    0.022188   -0.049595    0.063438  -0.0050961    0.022512
-0.18374    -0.21979    0.024461   -0.037252    0.008221   -0.018738     0.01894
0.021538    -0.22694    0.036479   -0.016789  -0.0037969   -0.021986     0.01764
0.19921    -0.18244    0.055643    0.010819    0.017316   -0.016464    0.022512
0.32166    -0.11293    0.074157    0.039078    0.054019  -0.0024977    0.030633
0.37883   -0.047646    0.086175    0.057592    0.094945    0.018615    0.037454
0.38175  -0.0093186      0.0852    0.057592     0.13717    0.040702    0.041027
0.35219      0.0014     0.06961    0.033231     0.18784    0.057592    0.040052
0.30932  -0.0060706     0.04395   -0.011917     0.25702    0.064737     0.03453
0.26222   -0.014516    0.018615   -0.060313       0.347    0.060515    0.025436
0.21512   -0.013541   0.0017248   -0.092794     0.46685    0.046873    0.017965
0.17192  -0.0018481  -0.0060706    -0.10286     0.62211    0.028359    0.019589
0.13522    0.012768  -0.0054209   -0.092469     0.77899    0.015367    0.031607
0.10242    0.013743  -0.0054209   -0.069408     0.86214    0.011469    0.045574
0.062464   -0.018738   -0.013216   -0.047321     0.82511    0.016341    0.045574
0.0095202   -0.092145   -0.029782    -0.03303     0.69389    0.020239    0.025111
-0.044723    -0.18991   -0.051219   -0.029457     0.53214    0.016341   -0.010943
-0.079802     -0.2867    -0.07428   -0.034329     0.37623  -0.0028225   -0.047971
-0.076554    -0.36238   -0.093444   -0.048945     0.24111   -0.036927   -0.077528
-0.045697    -0.40526    -0.10579   -0.071682     0.14691   -0.085324   -0.098316
-0.01614    -0.41143    -0.11066    -0.10221     0.10924    -0.14606    -0.11293
-0.010293    -0.37927    -0.10611    -0.13437    0.088773     -0.2042    -0.12203
-0.028157    -0.31236    -0.09182     -0.1636   -0.063237    -0.24773    -0.12365
-0.059014    -0.21914   -0.074605    -0.18634    -0.54428    -0.27014    -0.11813
-0.09117     -0.1178   -0.061613     -0.2029     -1.3784    -0.27664    -0.10416
-0.12008    -0.02361   -0.057715    -0.21135     -2.3255    -0.27241   -0.088247
-0.13762    0.061814   -0.061937     -0.2068     -3.0482    -0.26007   -0.076229
-0.13567     0.13684   -0.067134    -0.18634     -3.3009    -0.23344    -0.06681
-0.10546     0.19434   -0.069083    -0.15516     -3.0472    -0.18634   -0.056091
-0.046022     0.23006   -0.065186    -0.12073     -2.4476     -0.1204   -0.040825
0.039402     0.24501   -0.052843    -0.09117     -1.7441   -0.046347   -0.017764
0.13684      0.2489   -0.034004   -0.065835     -1.1335    0.022512    0.010819
0.22292     0.24598   -0.017114   -0.050894    -0.70928    0.069285    0.038103
0.27554     0.24111  -0.0096434   -0.047646    -0.45073    0.084551    0.054668
0.29015     0.23461   -0.011592   -0.053817    -0.27371    0.069285    0.057592
0.27229     0.22909   -0.017114   -0.063886   -0.093444    0.040702    0.042651
0.23754     0.21772   -0.021337   -0.073955     0.13684    0.016666     0.01017
0.20473     0.18719   -0.024909   -0.086298     0.40384      0.0014   -0.030106
0.18881      0.1336   -0.034654    -0.10741     0.65589    -0.01614   -0.068758
0.18069    0.062139   -0.055766    -0.13437     0.84915   -0.040825   -0.096692
0.14724   -0.017764   -0.082076    -0.15905      0.9651    -0.06616    -0.10319
0.070259   -0.092794    -0.10091     -0.1714     0.99823   -0.076554   -0.084349
-0.034654    -0.14931    -0.10189    -0.16263       0.969   -0.060963   -0.044073
-0.13145    -0.17854   -0.085648    -0.13112     0.91281   -0.019388   0.0056225
-0.18991    -0.18017    -0.05804   -0.084349     0.86344    0.031607    0.049796
-0.21135    -0.15743   -0.032055   -0.034654     0.83388    0.074482    0.075131
-0.21655    -0.10709   -0.015165   0.0065969     0.81862    0.097543    0.076431
-0.22694   -0.029132   -0.007045    0.028034       0.804     0.10209    0.056617
-0.25585    0.069934   0.0020496    0.030957     0.77996    0.098517    0.027709
-0.30717     0.17712    0.013743    0.022837     0.74651    0.093645  0.00075039
-0.36791     0.27359    0.025436     0.01017     0.71825    0.088448   -0.014191
-0.41663     0.34375    0.037778   0.0026992     0.71305    0.087149    -0.01614
-0.42637      0.3785    0.047523   0.0017248     0.73806    0.092021  -0.0093186
-0.37148     0.37525     0.05207  -0.0018481     0.77964    0.099492   0.0033489
-0.23961     0.33595    0.053044   -0.012242     0.80757     0.10371    0.017316
-0.053168     0.27132    0.050771    -0.03303     0.79166     0.10534    0.030957
0.14724     0.19174    0.049147   -0.072656     0.70981     0.11054    0.042326
0.32134     0.10436    0.047198    -0.14054     0.54155     0.11768    0.050771
0.44086    0.017316    0.044924    -0.22921     0.29275     0.12288    0.057592
0.50095    -0.05739    0.042001    -0.32633  0.00010078     0.12483    0.067336
0.51135    -0.10546     0.03583      -0.415     -0.2919     0.12905    0.078704
0.48634    -0.11943    0.022837    -0.45885    -0.55987     0.13782      0.0865
0.43989    -0.10611   0.0072465    -0.40851    -0.79405     0.14659    0.084226
0.38337   -0.079152  -0.0047713    -0.23603    -0.99349     0.14659    0.069285
0.32686   -0.054467  0.00075039    0.032257     -1.1543     0.13457    0.048172
0.28008   -0.046996    0.028359      0.3353     -1.2657     0.11216    0.030633
0.2463   -0.063561    0.072858     0.59872     -1.3222    0.081627    0.020564
0.22259    -0.11131     0.11931     0.76242     -1.3332    0.045899    0.017965
0.21252    -0.18569     0.14984      0.8066     -1.3092    0.012768    0.019914
0.22714    -0.26819     0.15633     0.75495     -1.2663    -0.01484     0.01764
0.27651    -0.33218     0.13879     0.64874      -1.215   -0.038876    0.011144
0.34894    -0.35329     0.10469     0.52272     -1.1432   -0.066485  -0.0080194
0.4165    -0.33088    0.061489     0.39961     -1.0279    -0.10286   -0.046996
0.44216    -0.27404     0.01829     0.28983     -0.8457    -0.13989    -0.10416
0.40514    -0.20096   -0.011267     0.18362     -0.5878     -0.1623    -0.15256
0.30022    -0.11975   -0.021337    0.044599    -0.27176    -0.15418    -0.16815
0.13067   -0.030106   -0.010943    -0.15808    0.048172    -0.11326    -0.14736
-0.081101    0.069934   0.0075714    -0.41533     0.30932   -0.053168    -0.10254
-0.29937     0.17355     0.02641     -0.6794     0.48114   0.0036737   -0.056091
-0.49685     0.26677    0.040702    -0.90319     0.56916    0.040702   -0.025234
-0.65146     0.32621    0.048497     -1.0783      0.5906    0.054668   -0.016464
-0.74078     0.33108     0.05142     -1.2144     0.58021    0.049472   -0.021012
-0.73429     0.27261    0.047198      -1.255     0.58216    0.040377   -0.029132
-0.60404     0.17355    0.041676     -1.0682     0.63153    0.041027   -0.022636
-0.34647    0.072208    0.038428    -0.59754     0.74878    0.060515   0.0052977
-0.0044465   0.0065969    0.036804    0.012768     0.93327    0.095594    0.048172
0.33205  -0.0060706     0.02706     0.49316      1.1421     0.12872    0.082277
0.55812    0.018615  -0.0011985     0.68869      1.3003     0.13814    0.085525
0.60197    0.045249   -0.051219     0.64095      1.3406     0.10891    0.049147
0.4571    0.048172    -0.11326     0.52207      1.2347    0.048497   -0.011267
0.18199     0.01764     -0.1662     0.50583      1.0015   -0.018738   -0.072656
-0.14411   -0.028157    -0.19511     0.65816     0.69941   -0.070382    -0.11358
-0.44489   -0.064536    -0.19413     0.92483     0.41163   -0.092145      -0.123
-0.66478   -0.076229    -0.16977      1.1986     0.19336   -0.088896    -0.10449
-0.77684   -0.067459    -0.12885      1.3854     0.05272   -0.069408   -0.063886
-0.77456   -0.050894   -0.083375      1.4374   -0.042774   -0.045372   -0.010943
-0.67907     -0.0405   -0.044398      1.3555    -0.14801   -0.027183    0.041676
-0.53486   -0.044723    -0.01614      1.1652    -0.30327   -0.021661    0.079354
-0.38545   -0.063237   0.0023744     0.89884    -0.51894    -0.03238    0.095269
-0.26234   -0.086948   0.0078962     0.58443    -0.77327   -0.055441    0.092021
-0.1701    -0.10903 -0.00022403     0.24143    -0.98536   -0.086948    0.079679
-0.10254    -0.12105   -0.021012    -0.13047     -1.0438    -0.12333    0.066037
-0.045697      -0.123   -0.060313    -0.53973    -0.89312    -0.15581    0.058241
0.0062721    -0.11813     -0.1178    -0.94152    -0.58001    -0.18017    0.055968
0.054993    -0.11261    -0.18212     -1.2205    -0.21785    -0.18959    0.055643
0.096569    -0.11066    -0.23474     -1.2673    0.066686    -0.18471    0.053044
0.12483    -0.11261    -0.26299     -1.0773     0.19888     -0.1701    0.052395
0.13425    -0.10968    -0.25845    -0.73819      0.1729    -0.14996    0.052395
0.13262   -0.094418    -0.21914    -0.34095    0.014068    -0.12852    0.055968
0.131   -0.063561    -0.14931    0.088773    -0.23019    -0.10481    0.064088
0.13197   -0.024909   -0.060963     0.54026    -0.48841   -0.080451    0.074157
0.12872    0.011794    0.026735     0.93197    -0.69824   -0.057065    0.080978
0.11086    0.040702    0.097543      1.1606    -0.80964   -0.044073    0.080978
0.080328    0.062139     0.14821      1.1792    -0.77229   -0.039201    0.072858
0.042651    0.079029     0.18232      1.0167    -0.57741   -0.031406    0.062464
-0.0047713    0.091696     0.20018     0.74976    -0.28281    -0.01549    0.054019
-0.063237    0.092021     0.20116     0.46912    0.013418   0.0010752    0.045899
-0.13015    0.073182     0.18102     0.24078     0.22357   0.0095202    0.032582
-0.18991    0.032582     0.13912    0.098193     0.29665   0.0059473    0.016991
-0.22856   -0.026209    0.079679    0.040052     0.21837   -0.011917 -0.00087364
-0.23701   -0.096367    0.016991    0.024137   0.0085458   -0.037252    -0.02361
-0.21947    -0.17075   -0.033354   -0.020362    -0.28605   -0.063886   -0.048945
-0.18471    -0.22856   -0.061613     -0.1334    -0.59949   -0.084349   -0.067459
-0.13827    -0.25098   -0.062262    -0.29028    -0.87038   -0.097991   -0.075255
-0.092469    -0.22467    -0.03173    -0.41435     -1.0568    -0.10936   -0.070707
-0.060638    -0.15581    0.028684    -0.43287     -1.1348    -0.12138   -0.060638
-0.04927   -0.065186     0.10599    -0.33445     -1.1062    -0.13145   -0.054142
-0.05739    0.023812     0.17842    -0.16393     -1.0032    -0.13957    -0.05804
-0.075255    0.092021     0.22877    0.050121     -0.8444    -0.14087   -0.070382
-0.096042      0.1297     0.24566     0.31322    -0.61021     -0.1295   -0.081426
-0.11033     0.13002     0.22032     0.60294    -0.27436    -0.10416   -0.084674
-0.10546     0.10112     0.15633     0.82024     0.14204   -0.072006   -0.072331
-0.061937    0.058241     0.06831     0.81732     0.56721   -0.038551   -0.045372
0.024786    0.024786   -0.021012      0.4727     0.92061  -0.0041217  -0.0093186
0.13425    0.021538   -0.089871    -0.19251      1.1399    0.029333    0.021538
0.24143     0.05272    -0.12138    -0.94022      1.2051    0.056617    0.037129
0.32458     0.10924    -0.11651     -1.4602      1.1467    0.074806    0.034855
0.37168       0.169   -0.087272     -1.5661      1.0265    0.086175     0.01894
0.37948     0.20635   -0.047321     -1.2689     0.90534    0.090072  -0.0054209
0.35317     0.20311   -0.013541    -0.74501     0.81634    0.090072    -0.03238
0.30964     0.16315   0.0052977     -0.2159     0.76372    0.084551   -0.052518
0.26612     0.10599   0.0078962     0.16088     0.73482    0.073182   -0.059014
0.23006     0.05272   0.0010752     0.33855     0.70363    0.056617   -0.057065
0.20181    0.015692  -0.0063954     0.36259     0.64419    0.039078   -0.053817
0.18167  -0.0037969   -0.011592     0.30315      0.5461    0.023162   -0.052843
0.1677  -0.0080194   -0.017439     0.20603      0.4204   0.0078962   -0.055116
0.14919  -0.0024977   -0.029457    0.094295     0.30055  -0.0099683   -0.059014
0.1206   0.0059473   -0.042124  -0.0076946     0.24176   -0.027508    -0.05739
0.089098    0.019264   -0.039851   -0.085648     0.27294   -0.039526    -0.04927
0.071883    0.041351   -0.021012    -0.15743     0.36064   -0.043748   -0.033354
0.085525    0.072533   0.0069217    -0.25812     0.41423   -0.044073   -0.012242
0.14009     0.10274    0.027385    -0.41403     0.33693   -0.052843   0.0056225
0.22065     0.11573    0.023812    -0.60404    0.083901   -0.079802    0.014068
0.30087     0.10014 -0.00022403    -0.77521    -0.29645     -0.1269    0.012443
0.35706    0.067336   -0.028157    -0.88305    -0.66803    -0.18017   0.0072465
0.3798    0.037454   -0.044073    -0.95483    -0.89409    -0.21622   0.0039985
0.35349    0.024137   -0.043748     -1.0685    -0.90871    -0.21947      0.0014
0.25865     0.01764   -0.033679     -1.2543     -0.7554    -0.19121   -0.008669
0.084876  0.00010078   -0.027833     -1.4615    -0.54038    -0.14574   -0.033679
-0.14769   -0.043423   -0.038551     -1.6119    -0.37278    -0.10319   -0.071357
-0.39129    -0.10611   -0.067459     -1.6606    -0.30132   -0.075579    -0.10806
-0.57838     -0.1649    -0.09994     -1.5885    -0.31171   -0.062262    -0.12852
-0.65763    -0.19771      -0.123     -1.3417    -0.34257   -0.052518    -0.12592
-0.61801    -0.18959     -0.1204    -0.81094    -0.31659   -0.035953   -0.098316
-0.48094    -0.13892   -0.087272    0.058566    -0.19543  -0.0073698   -0.050894
-0.29288   -0.057715   -0.035628      1.1116   0.0010752    0.029333   0.0046481
-0.10936    0.031282     0.01017      1.9951     0.20863    0.062464    0.047847
0.027385     0.10469    0.033556      2.3757     0.35447    0.079029    0.067661
0.10404     0.15049    0.029658       2.138     0.39767     0.07708    0.067011
0.14237     0.16185   0.0095202      1.4387      0.3431    0.067661    0.061165
0.16575     0.14204   -0.011592      0.5854     0.22162    0.063438    0.062139
0.17972     0.09397   -0.027183    -0.14249    0.067011    0.067986    0.072533
0.17452    0.025761   -0.034978    -0.60177   -0.097017    0.078704      0.0852
0.13555   -0.056741   -0.036602    -0.80607    -0.25162    0.084876    0.092346
0.059541    -0.14996   -0.034654    -0.80737    -0.37375    0.083251    0.087474
-0.032705    -0.24188   -0.027833    -0.65114    -0.43092    0.080653    0.071234
-0.10221    -0.31659   -0.014516    -0.39259    -0.40104    0.082927    0.049472
-0.11001    -0.35654   0.0056225   -0.095068    -0.28963    0.093645    0.033231
-0.04927    -0.35621    0.020239     0.19856    -0.13372     0.10924     0.02641
0.059216    -0.32276    0.021213     0.48504    0.016666      0.1284    0.029009
0.17874    -0.27404   0.0059473     0.76665     0.13067     0.14691    0.038753
0.24793    -0.23961   -0.022961     0.99174     0.20213     0.15828    0.047847
0.2044    -0.23116   -0.055766      1.0697     0.23689     0.15081    0.040702
0.037454    -0.22661   -0.076554     0.95633     0.25118     0.12255    0.017316
-0.19348    -0.18374   -0.069733     0.71078     0.27326    0.083251   -0.010618
-0.40948    -0.07428    -0.03238       0.461     0.32231    0.042001   -0.029457
-0.56182    0.097543    0.022512     0.32166     0.39344   0.0065969   -0.037902
-0.64334     0.29827    0.080978     0.33563     0.46068   -0.018738   -0.043748
-0.66413     0.48341     0.12807     0.46782     0.49738   -0.030756   -0.051544
-0.61996     0.62828     0.15373     0.63802     0.48991   -0.029782   -0.059014
-0.48906     0.72475      0.1638     0.76242     0.44671    -0.01484   -0.059014
-0.25975     0.78094     0.16608     0.80173      0.3863    0.012443   -0.041799
0.037778     0.80595     0.16803     0.74716     0.31711    0.044599  -0.0063954
0.33725     0.79945       0.169     0.62763     0.23136    0.079679    0.040377
0.56234     0.74878     0.16738     0.47659     0.12125     0.11183     0.08585
0.66368     0.64549     0.15601     0.32881   -0.023935     0.13652     0.11833
0.64322     0.48829     0.12678      0.2057    -0.21037     0.14756     0.13035
0.54935     0.30217    0.080328     0.10924    -0.43547     0.14107     0.12255
0.46198      0.1232    0.029009    0.031932    -0.69336     0.11638    0.099492
0.44314   -0.020362    -0.01549   -0.039201    -0.96393    0.075131    0.067011
0.50388    -0.12625   -0.048945    -0.10871     -1.1949    0.021213    0.029333
0.60164     -0.2068   -0.073306    -0.18049     -1.3128    -0.03173  -0.0037969
0.66206    -0.27956   -0.089546    -0.24968     -1.2543    -0.07493    -0.02426
0.61853    -0.35134    -0.10059    -0.31139     -1.0113    -0.10286   -0.035303
0.4308    -0.41598    -0.10351    -0.35361    -0.64432    -0.11456   -0.050244
0.11573    -0.46048   -0.095717    -0.36921    -0.25487    -0.11293   -0.075579
-0.25162    -0.47152   -0.077203    -0.36336     0.06896   -0.098965    -0.10449
-0.57546    -0.44521   -0.052518    -0.34225     0.27814   -0.076229    -0.12333
-0.80152    -0.39357   -0.038227    -0.31594     0.37103   -0.051868    -0.12592
-0.92008    -0.33705   -0.048296      -0.301     0.36746   -0.036278    -0.11618
-0.93859    -0.27761   -0.081426    -0.30457     0.29015   -0.033679   -0.099615
-0.86908    -0.18764    -0.11618    -0.32601     0.16056   -0.037577   -0.078178
-0.74078   -0.043099    -0.13567    -0.35004      0.0014   -0.038876   -0.051868
-0.61508     0.13132    -0.13794    -0.36141     -0.1623    -0.03173   -0.026858
-0.55727     0.27781     -0.1321    -0.36011    -0.29547   -0.022636    -0.01614
-0.58098     0.34407    -0.13794    -0.35719    -0.35556   -0.021337   -0.026533
-0.64951      0.3025    -0.16425    -0.36661    -0.30424   -0.027508   -0.050569
-0.70863     0.16965    -0.20583    -0.38967    -0.12527   -0.028807   -0.067459
-0.69824 -0.00054884    -0.24448    -0.40169      0.1651   -0.015815   -0.053168
-0.57221    -0.14476     -0.2552    -0.36433     0.52337    0.014717  -0.0018481
-0.32276    -0.22109    -0.22499       -0.25     0.89495    0.054668    0.071234
0.0091954    -0.21882    -0.16458   -0.064861      1.2282    0.091372      0.1323
0.35219    -0.15776   -0.096367     0.12905      1.4923     0.11378     0.15503
0.62471   -0.071032   -0.045047     0.22454      1.6849     0.11898     0.13912
0.74878   0.0075714   -0.014516     0.13002      1.8174     0.11606     0.10144
0.67343    0.055968   0.0091954    -0.14704      1.8889     0.12223    0.070259
0.41228    0.072208    0.044924    -0.51504      1.8483     0.14724    0.060515
0.048822    0.065062    0.092996    -0.85349      1.5735     0.18459    0.075781
-0.29872    0.047847     0.14269     -1.0805      0.9245     0.21447     0.10534
-0.52349    0.030957      0.1742     -1.1695   -0.072981     0.20863     0.13197
-0.56441     0.01829      0.1755     -1.1098     -1.1435     0.15211     0.14172
-0.4241    0.010495     0.14529     -0.8876     -1.9439    0.053694     0.13002
-0.15776   0.0049729    0.091372    -0.52251     -2.2729   -0.058689    0.099492
0.15698 -0.00087364    0.022837    -0.11098     -2.1212    -0.15646    0.062789
0.44801  -0.0089938   -0.045372     0.22357     -1.6392    -0.21914    0.031282
0.66726   -0.025234   -0.096367     0.43274     -1.0818    -0.24513    0.013418
0.78841   -0.051219    -0.11521     0.55617    -0.69921    -0.24708   0.0085458
0.8079   -0.084349   -0.097017     0.67018    -0.59852    -0.24513     0.01017
0.74878    -0.11033   -0.045697     0.82544    -0.69726    -0.25065    0.010819
0.64614    -0.11618    0.023487      1.0216    -0.81484    -0.26104   0.0065969
0.53019   -0.097991    0.090722      1.2029    -0.80347    -0.26884  -0.0037969
0.4204   -0.060313      0.1336      1.2984    -0.62288    -0.26234   -0.015815
0.32686   -0.020687     0.14432      1.2591    -0.34322    -0.23311   -0.027183
0.24533   0.0056225     0.12872      1.0937   -0.094743    -0.18504   -0.034978
0.16835   0.0095202    0.096244      0.8524  -0.0047713    -0.12625   -0.035628
0.098842  -0.0073698    0.064413     0.59775     -0.1243   -0.067459   -0.028482
0.05142   -0.031406    0.042001     0.37265    -0.39876   -0.019388   -0.016789
0.038103    -0.04992    0.030633     0.18979    -0.73461     0.01017  -0.0041217
0.058241   -0.058365     0.02641    0.037454     -1.0412    0.015042   0.0072465
0.09462   -0.057715     0.02641    -0.10254     -1.2511  -0.0054209    0.012768
0.13132   -0.054467    0.027385    -0.23733     -1.3332   -0.043423   0.0085458
0.15211   -0.054142    0.028684    -0.35556     -1.2904   -0.086623  -0.0037969
0.14659   -0.059989    0.032582    -0.44131       -1.15    -0.12235   -0.017764
0.1219   -0.069408     0.03583    -0.49718    -0.95386    -0.14476   -0.025234
0.096244   -0.074605    0.037778    -0.52901    -0.72942    -0.15646   -0.023285
0.085525   -0.068758      0.0433    -0.54298    -0.47639    -0.16425   -0.010293
0.093321   -0.051544    0.055968    -0.53161    -0.19478     -0.1727   0.0049729
0.11281   -0.031081     0.07773     -0.4582    0.097543    -0.18342    0.011794
0.13132   -0.018088     0.10566    -0.25747     0.36421    -0.19348   0.0046481
0.14561   -0.019063     0.13067    0.068635     0.58053    -0.19543   -0.015165
0.15146   -0.036927     0.14789     0.37948     0.73871    -0.18309   -0.045047
0.15081    -0.06616     0.15568     0.49348      0.8381    -0.15808    -0.07493
0.15536   -0.096042     0.15179     0.32134     0.87351    -0.12365   -0.091495
0.17095    -0.11586     0.13425   -0.090521      0.8407   -0.084999   -0.093119
0.18557    -0.11943    0.097868    -0.61963     0.74748   -0.044723   -0.086298
0.18264    -0.10741    0.031932     -1.1517     0.59775  -0.0047713   -0.075579
0.14432   -0.084349   -0.067784     -1.6031     0.39734    0.038753   -0.058689
0.064088   -0.056741    -0.18212     -1.8269     0.18622    0.084226   -0.035303
-0.059989   -0.028807    -0.27404     -1.5967    0.042975      0.1284   -0.011267
-0.21362  -0.0018481    -0.30977    -0.82231    0.033231      0.1625   0.0069217
-0.37408    0.023162    -0.27923     0.27067      0.1742     0.17972     0.01764
-0.51342    0.032906    -0.19998      1.2626     0.43145      0.1768    0.020888
-0.60599   0.0091954    -0.11066      1.9109     0.73319     0.15698    0.015042
-0.63652   -0.055766   -0.044073      2.1799     0.99564      0.1284  0.00042559
-0.60567    -0.14704   -0.008669      2.1507      1.1424     0.10047   -0.016789
-0.52349    -0.23863  -0.0015233      1.9366       1.146    0.073182    -0.03303
-0.4254    -0.30457   -0.014516      1.6456       1.031    0.045249   -0.048945
-0.35232    -0.33543   -0.040175      1.3516     0.85012    0.016341   -0.065835
-0.32568    -0.32893   -0.069733      1.0934     0.66758   -0.011917   -0.080127
-0.32763    -0.29677   -0.094093     0.88358     0.53603   -0.034978   -0.086298
-0.32048    -0.25195    -0.10676     0.72052     0.48049   -0.046022   -0.078503
-0.29093    -0.20225   -0.097991     0.59287     0.49413   -0.046347    -0.05804
-0.25033    -0.15386   -0.067459     0.48634     0.54708   -0.039201   -0.032055
-0.21655    -0.10968   -0.022311      0.3876     0.60911   -0.024909   -0.010618
-0.2016   -0.065186    0.022512     0.28366     0.65914   -0.010618  -0.0031473
-0.2055   -0.016789    0.056292     0.16803     0.68707  -0.0037969   -0.013216
-0.21265      0.0433    0.074806    0.044275     0.69519  -0.0057458    -0.03303
-0.19283     0.11736    0.081627   -0.077203     0.70039   -0.010943    -0.04992
-0.11813     0.19758    0.080653    -0.18082     0.71825   -0.015815    -0.04862
0.010819     0.27002    0.078704    -0.25422     0.73546   -0.018738   -0.025234
0.16478     0.31971    0.078055    -0.29547     0.70981   -0.024585   0.0085458
0.29405      0.3366    0.072208    -0.31691     0.60717   -0.034978     0.03583
0.36324     0.31971    0.054993     -0.3377     0.43469   -0.049595    0.049147
0.36876     0.27944    0.026085    -0.37473     0.22812    -0.06616    0.046873
0.33043     0.23039   -0.007045    -0.42475    0.014068   -0.083375    0.035505
0.27749     0.18492   -0.034978    -0.47217    -0.19998   -0.093769    0.021213
0.22974     0.14724   -0.053492    -0.50822    -0.42215   -0.094418   0.0056225
0.19563     0.11833    -0.06616    -0.53551    -0.65016   -0.089871   -0.012892
0.1716     0.10112   -0.073955    -0.55207    -0.84212   -0.088896   -0.029782
0.15406     0.09397    -0.07428    -0.54493    -0.93015   -0.088572   -0.039201
0.14269    0.098193   -0.062262    -0.49685    -0.86454   -0.080127   -0.037252
0.14334     0.11378   -0.027833    -0.40818    -0.64821   -0.055766   -0.020037
0.1729     0.13717    0.023812    -0.29872    -0.33478    -0.01484    0.010819
0.23396     0.15796    0.079029    -0.19836  -0.0044465    0.036804    0.048822
0.30542     0.16283     0.11995    -0.13664      0.2606    0.082277    0.082277
0.36031     0.15081     0.13684     -0.1308     0.41066     0.10729    0.098517
0.38467     0.13132     0.12483    -0.18082     0.44801     0.10306    0.094945
0.38078     0.11995    0.091372    -0.26754     0.40384    0.076431    0.073507
0.37265     0.12807    0.049472    -0.35589     0.30347    0.042001    0.042651
0.37103     0.15763    0.010819    -0.42085     0.16121   0.0052977   0.0095202
0.36389     0.19921   -0.017764    -0.45138  -0.0041217   -0.031406   -0.021661
0.32328     0.23721   -0.036927    -0.44229    -0.15418   -0.062262   -0.046022
0.22519     0.24663   -0.044723    -0.39584    -0.24383   -0.080776   -0.061288
0.070259     0.21382    -0.04115    -0.32081    -0.25487    -0.08305   -0.067459
-0.10286     0.14691   -0.029782    -0.23149    -0.20648   -0.069408   -0.067784
-0.24903    0.073182   -0.014516    -0.15061    -0.15581   -0.048296   -0.062587
-0.33737    0.018615   0.0023744    -0.10319    -0.16588   -0.033679   -0.056741
-0.36726   -0.010618    0.016991    -0.10741    -0.26332   -0.038876   -0.055441
-0.36693   -0.030756    0.030633    -0.15353     -0.4215   -0.064211   -0.062912
-0.36661   -0.055441    0.042001    -0.21622    -0.58033    -0.10579   -0.075579
-0.38057   -0.090521     0.05207    -0.28346    -0.68037    -0.15256   -0.088247
-0.40623    -0.13145    0.056617    -0.35296    -0.68005    -0.19024   -0.094093
-0.42994    -0.16555    0.048497     -0.4137    -0.58098    -0.20583    -0.09182
-0.44456    -0.18277    0.031607    -0.43709    -0.41565    -0.19283   -0.080776
-0.44716    -0.17952    0.014068    -0.40039    -0.22532    -0.14769   -0.057065
-0.44001     -0.1649   0.0026992    -0.31171   -0.041475   -0.075579   -0.021986
-0.42117    -0.15126  -0.0044465    -0.20648     0.11021    0.012119    0.020239
-0.39064    -0.14801   -0.017114    -0.13015     0.20116    0.098842    0.065062
-0.35134    -0.15678   -0.044723     -0.1282     0.20505     0.16738     0.10436
-0.30944    -0.17887   -0.088247    -0.23701     0.11638     0.21025       0.131
-0.25975    -0.20745    -0.13404    -0.45333   -0.037577     0.22259     0.13587
-0.18796    -0.22564    -0.16198    -0.70798    -0.21297     0.20278     0.11638
-0.0824     -0.2146     -0.1597    -0.89929    -0.35134     0.15503    0.071883
0.05272     -0.1662    -0.12755    -0.94834    -0.40461    0.093645    0.010819
0.19628   -0.084349   -0.078503    -0.80997    -0.36109    0.032906    -0.04992
0.31192    0.013093   -0.034329    -0.48711    -0.23538  -0.0080194   -0.096367
0.35641     0.11086   -0.010943   -0.051544   -0.059014   -0.016464    -0.11878
0.2973     0.19336   -0.010293      0.3733     0.13977   0.0026992    -0.11748
0.13684      0.2463   -0.019388     0.66368     0.32978    0.039402   -0.094418
-0.086948     0.26255   -0.028807     0.74553     0.47822    0.084551   -0.060313
-0.30587      0.2502   -0.037577     0.63218     0.53473     0.12548   -0.021986
-0.45593     0.21935    -0.04927     0.40871     0.45158     0.15471    0.012119
-0.49653     0.18199   -0.067134      0.1755     0.22454     0.16445    0.039402
-0.42605     0.14432   -0.085973   0.0020496    -0.09929     0.15536    0.062139
-0.27111     0.10599    -0.10319   -0.084024    -0.42897     0.13977     0.08585
-0.066485    0.059541     -0.1217   -0.094093     -0.6664      0.1349     0.11866
0.14594   0.0078962    -0.14216   -0.055766    -0.76027     0.15179     0.16088
0.31744   -0.043748    -0.16068   0.0026992    -0.72422     0.18589     0.19758
0.41033   -0.086948    -0.16912    0.080003    -0.61573     0.22389     0.20408
0.41878    -0.11391    -0.15548     0.18524    -0.49913     0.24273     0.17225
0.36291    -0.11748     -0.1178     0.32231    -0.41728     0.22877     0.11541
0.26319    -0.10059    -0.06681     0.47497     -0.3757     0.19239    0.058241
0.13717   -0.079152   -0.015165     0.61886    -0.35426     0.15763    0.025111
0.016991   -0.059664    0.026085      0.7228    -0.34387     0.14399    0.021863
-0.058365   -0.041799    0.049147     0.75138    -0.36109     0.14919    0.040052
-0.059989   -0.020362    0.053044     0.67992    -0.41468     0.15179    0.062464
0.0065969    0.015692    0.053369     0.51427    -0.47964     0.13392    0.073182
0.11021    0.074806    0.067986     0.30542    -0.51569     0.09397    0.070909
0.2096     0.15633     0.10566     0.12483    -0.49231    0.044599     0.06084
0.26449      0.2476     0.15341    0.020564     -0.4189  -0.0028225    0.049796
0.25443     0.32361     0.18881  -0.0093186    -0.34712   -0.044073    0.039727
0.18329     0.36453     0.19336  0.00075039    -0.33932   -0.080776    0.030957
0.080003     0.36324     0.15828    0.019914    -0.43384    -0.11293    0.018615
-0.02426     0.32134    0.090722    0.025761     -0.6232    -0.14152   0.0043233
-0.10709     0.25215   0.0095202    0.018615    -0.83173    -0.16393  -0.0073698
-0.15678     0.17387   -0.060313   0.0065969    -0.96393    -0.17237   -0.015165
-0.16977     0.10079    -0.10059  -0.0028225    -0.95353    -0.16847   -0.018413
-0.15581    0.036154    -0.10676  -0.0047713    -0.78204    -0.15483   -0.026209
-0.13599   -0.028157   -0.094418  0.00010078     -0.4962    -0.14379   -0.045697
-0.13242    -0.10124   -0.077528   0.0095202    -0.19803    -0.13892   -0.078827
-0.15223    -0.17692   -0.060313    0.015042   0.0056225    -0.14281    -0.11683
-0.18764    -0.23831   -0.043423    0.012768    0.068635    -0.15321    -0.14866
-0.22337    -0.26884   -0.029457   0.0020496     0.01829    -0.16263    -0.16555
-0.23961    -0.26039   -0.019063   -0.007045   -0.067459     -0.1636    -0.16458
-0.21849    -0.21687  -0.0093186  -0.0063954    -0.11521    -0.15093    -0.14704
-0.15256    -0.15548   0.0039985   0.0062721   -0.081426    -0.12755    -0.11391
-0.058365   -0.094743    0.024786     0.02641    0.034855   -0.095068   -0.072981
0.031607   -0.047971    0.047523    0.044924     0.20051   -0.059664   -0.038551
0.091372   -0.021986    0.066037    0.054344     0.36973   -0.029132   -0.018088
0.11054   -0.014191    0.076431    0.058566      0.5146   -0.010293   -0.013541
0.10306   -0.019712    0.078055    0.061489     0.64322  -0.0050961   -0.020687
0.091696   -0.031406    0.073507    0.066362     0.76989   -0.007045   -0.031081
0.091372   -0.044723    0.063438    0.072208     0.89949  -0.0057458   -0.039526
0.10079    -0.06551    0.048822    0.074157      1.0073  -0.0021729   -0.046022
0.10664   -0.097341    0.033556    0.069934      1.0642   0.0036737   -0.053168
0.09397    -0.13502    0.021213    0.067986      1.0561    0.010495    -0.05804
0.046873     -0.1688    0.014717     0.06961     0.98492    0.019589   -0.058365
-0.044073    -0.19446    0.014717    0.066686     0.87123    0.032257   -0.052843
-0.16588    -0.20745    0.020888    0.041676       0.753    0.044275   -0.042449
-0.28053    -0.20193    0.029009   -0.055766     0.65296    0.046548   -0.033354
-0.34777    -0.18731    0.032257    -0.29417     0.56039    0.033231   -0.033354
-0.3429    -0.17659    0.020888     -0.6768     0.44249   0.0069217   -0.040825
-0.26462    -0.17627  -0.0044465      -1.102     0.28236   -0.022311   -0.048296
-0.12203    -0.17919   -0.038227     -1.4388    0.081627   -0.039851    -0.04862
0.059865    -0.16782   -0.070382     -1.6022    -0.13859   -0.044723   -0.040175
0.24598     -0.1295   -0.092145     -1.5668    -0.33672   -0.042124   -0.025559
0.40676   -0.056416   -0.097341     -1.3076    -0.45755   -0.043423   -0.010618
0.52694    0.047198   -0.077203    -0.74923     -0.4543   -0.051868 -0.00022403
0.5958     0.16445   -0.025234     0.16348    -0.32763   -0.064211   0.0078962
0.61009     0.26677    0.054668      1.3045    -0.13015   -0.070707    0.016016
0.57241     0.32393     0.13652      2.3507    0.060515   -0.069083    0.026735
0.49965     0.32296     0.19499        2.95     0.17907   -0.060313    0.042651
0.41066     0.27099     0.21317      2.9088     0.20733   -0.053817    0.064413
0.32458     0.19011     0.18849      2.3144      0.1664   -0.055116    0.086824
0.24923    0.098193     0.13327      1.4634    0.092671   -0.065186    0.099492
0.18037   0.0065969    0.062789     0.68447    0.017316     -0.0824    0.097868
0.11898   -0.077853  -0.0063954     0.19434   -0.034004    -0.10351    0.083901
0.062464    -0.15353   -0.059339    0.036804   -0.049595    -0.12722    0.065062
0.0088706     -0.2146   -0.089871     0.11248   -0.029132    -0.15191    0.048822
-0.039851     -0.2539   -0.098965     0.27456    0.018615    -0.17465     0.03453
-0.079477     -0.2578    -0.09117     0.40546     0.07773    -0.19024    0.016991
-0.10968    -0.21882    -0.07428     0.44606     0.14042    -0.19803  -0.0050961
-0.13275    -0.13697   -0.053168     0.39019     0.19434    -0.19803   -0.025559
-0.14834   -0.030756   -0.034004     0.26937     0.23299    -0.19446   -0.038876
-0.15353    0.069934   -0.021012      0.1271     0.25215    -0.18764   -0.040825
-0.14574     0.14172   -0.012242  0.00042559     0.25378     -0.1701   -0.034654
-0.12852     0.17257  -0.0073698   -0.087597     0.24046    -0.13859   -0.027508
-0.11066     0.16575  -0.0021729    -0.13112     0.21772   -0.096367   -0.024909
-0.096692     0.13262   0.0095202    -0.13502     0.18751   -0.051868   -0.021337
-0.074605    0.087799    0.029983    -0.11553     0.14691   -0.014516   -0.010293
-0.025559    0.046548     0.05272    -0.10026    0.086824    0.011144     0.01017
0.048172    0.013743    0.065712    -0.10709   0.0056225    0.024786    0.034206
0.13067   -0.018088    0.059541    -0.14606   -0.086623    0.030957    0.054668
0.20213   -0.055766     0.03583    -0.20453     -0.1753    0.029658    0.062139
0.24176   -0.098965   0.0010752    -0.25845    -0.24903    0.021538    0.050446
0.23689    -0.14022   -0.028482    -0.28995    -0.30587   0.0072465    0.021863
0.18751    -0.16458   -0.042774     -0.2932    -0.34549   -0.012242   -0.012892
0.10144    -0.16425   -0.041799    -0.27793    -0.36985   -0.031406   -0.047646
-0.024909    -0.14184   -0.025559    -0.25195    -0.38057    -0.04115   -0.076554
