0.35869     0.21707     0.06961    0.067986     0.55227  -0.0076946     0.11443
0.32393    0.065712    0.070909    0.070259     0.60327  -0.0011985     0.11736
0.27716   -0.081101    0.071883    0.065387     0.61496   0.0052977     0.11508
0.23591    -0.18309    0.074482    0.055318     0.59352    0.011144     0.10956
0.19628    -0.23538    0.080653    0.044599     0.55097    0.015042     0.10242
0.14172    -0.26007    0.082277    0.031932      0.5068    0.016016    0.096569
0.056292    -0.27858    0.071234    0.017316     0.47627    0.017316    0.092671
-0.053168    -0.29385     0.05207   0.0052977      0.4662    0.023162     0.08585
-0.15841    -0.29937    0.033556   0.0033489      0.4714    0.030957    0.071883
-0.22597     -0.2997     0.01829    0.014068     0.48569    0.036479    0.050446
-0.24773    -0.30977   0.0088706    0.034855     0.50388    0.035505    0.026735
-0.23149    -0.33737    0.008221     0.06019     0.51232    0.030633   0.0049729
-0.19121     -0.3718    0.015042    0.085525      0.5003    0.028034   -0.012892
-0.13794    -0.38545    0.031932     0.11183      0.4636    0.027709    -0.02361
-0.073631    -0.34225    0.059216      0.1362     0.40611    0.029658    -0.02361
0.0085458    -0.22564    0.096569     0.15536     0.33985    0.033881   -0.011267
0.10566   -0.056741     0.14172     0.16673     0.27034    0.040702   0.0088706
0.19434    0.091372     0.18914     0.17225     0.19888    0.046873    0.028359
0.2489     0.13652     0.22422     0.17647     0.12028    0.049796    0.039078
0.24793    0.031607     0.22779     0.17615    0.037778    0.046548    0.037778
0.17842    -0.22272     0.19401     0.16543   -0.042774    0.037454    0.024786
0.039727    -0.55564      0.1271     0.13717    -0.11586    0.024461  0.00010078
-0.14769    -0.84375    0.046873    0.092021    -0.17724   0.0072465   -0.035628
-0.34549    -0.97757    -0.02426    0.040377    -0.22337    -0.01614   -0.074605
-0.51245    -0.92008     -0.0824  -0.0031473    -0.25098   -0.042449    -0.10968
-0.61736    -0.69564    -0.13404   -0.026858    -0.26169   -0.065835    -0.13242
-0.64659    -0.36401    -0.18244   -0.034329    -0.27241   -0.080127    -0.13957
-0.60794  -0.0044465    -0.21785   -0.036278    -0.30002   -0.085973    -0.13664
-0.52219     0.32523    -0.22597   -0.038551    -0.33705   -0.086948    -0.13112
-0.39909      0.6299    -0.20063   -0.043423    -0.35264   -0.086948    -0.12722
-0.23863     0.93977    -0.14801   -0.046671    -0.31691   -0.085324    -0.12268
-0.047321      1.2409   -0.079152     -0.0405    -0.22012   -0.077203    -0.11456
0.15373      1.4699  -0.0083442   -0.023285   -0.075579   -0.062262    -0.09994
0.3392      1.5403    0.050771   0.0017248      0.0865   -0.042449   -0.084674
0.48764       1.399    0.091047    0.029009     0.23396   -0.023285   -0.071032
0.57891      1.0778     0.10826    0.049147     0.34082  -0.0076946   -0.062262
0.60522     0.68642     0.10469    0.056942     0.39864 -0.00087364   -0.055116
0.57209     0.33952    0.084876    0.054019     0.40741      0.0014   -0.048296
0.49283     0.11021    0.058241    0.044599     0.37395  0.00075039    -0.04115
0.3863   0.0010752    0.031282    0.031282     0.31386 -0.00022403   -0.037252
0.26384   -0.030106   0.0056225    0.012119     0.23786  -0.0015233   -0.038227
0.13165   -0.037902   -0.017764   -0.015165     0.15536  -0.0063954   -0.042449
-0.007045   -0.063237   -0.038227   -0.051219    0.070259   -0.015165   -0.046022
-0.14574    -0.11748    -0.04862   -0.085324   -0.022961   -0.024585   -0.044398
-0.27501    -0.18699   -0.047971    -0.10968    -0.13145   -0.034654   -0.036278
-0.37473     -0.2565   -0.036602    -0.11845    -0.25845   -0.043748   -0.022636
-0.41825    -0.31399   -0.026209    -0.11586    -0.40006   -0.051544  -0.0093186
-0.3822    -0.35264   -0.019388    -0.10968    -0.53811   -0.056091  -0.0054209
-0.27241    -0.36596   -0.016789    -0.10449    -0.64172   -0.055766  -0.0099683
-0.12203    -0.34712   -0.019063   -0.097991    -0.68719   -0.052518    -0.01549
0.022188     -0.2932   -0.023285   -0.086298     -0.6703   -0.052518   -0.022961
0.12093     -0.2055   -0.025234   -0.069408    -0.60144   -0.058689   -0.029457
0.15666   -0.090845    -0.01614   -0.051868    -0.50368   -0.069733   -0.034004
0.14399    0.037129   0.0085458   -0.034978    -0.39649   -0.077528   -0.036927
0.11118     0.15763     0.04395   -0.018088    -0.29937    -0.07493   -0.037577
0.072858     0.24923    0.072858   0.0020496    -0.22207   -0.061937   -0.035628
0.024461     0.28885    0.084551    0.024786      -0.161     -0.0405   -0.027833
-0.047321     0.27002    0.074482    0.047847    -0.10481   -0.019063   -0.013541
-0.14119     0.20311     0.05142    0.067336   -0.044723  -0.0044465      0.0014
-0.23896     0.11216    0.024461    0.078704    0.023162 -0.00087364    0.012443
-0.31204    0.025111   0.0052977    0.079679    0.097868  -0.0031473     0.01894
-0.3403   -0.036278  -0.0080194    0.071558       0.169  -0.0093186    0.020888
-0.31821   -0.068434   -0.013216    0.057917     0.22227    -0.01484    0.017965
-0.25747   -0.085648   -0.011267    0.042651     0.24241   -0.020037    0.012443
-0.17497    -0.10221  -0.0034721    0.029333     0.21155   -0.023285    0.010495
-0.087922     -0.1243  0.00010078    0.022837      0.1258   -0.025559    0.013743
-0.0063954    -0.14574  -0.0034721    0.021213   0.0065969    -0.02426    0.021863
0.069285    -0.15581   -0.013541    0.023162    -0.11001   -0.018088    0.034855
0.14074    -0.14899   -0.026533    0.026735    -0.19381  -0.0063954    0.047523
0.19791    -0.13112   -0.038551    0.030308    -0.23181   0.0069217    0.054668
0.22909    -0.10319   -0.045697    0.031282    -0.23538    0.018615    0.053694
0.23461   -0.067784   -0.046347    0.025111    -0.22434    0.019589    0.042975
0.21935    -0.03238   -0.040175    0.016016    -0.20972   0.0088706    0.027385
0.19044   -0.026533   -0.027183   0.0088706    -0.19706   -0.007045   0.0072465
0.15179    -0.10838   -0.011917   0.0049729    -0.18666   -0.019712   -0.010618
0.10112    -0.31821   0.0049729   0.0033489    -0.18017   -0.027508   -0.020362
0.031282    -0.61606    0.019589  0.00042559    -0.17659   -0.030431   -0.023285
-0.050894    -0.90676     0.03518  -0.0015233    -0.17075   -0.024585   -0.020362
-0.1204     -1.0864    0.050121 -0.00022403    -0.15353  -0.0076946    -0.01614
-0.15223     -1.0867     0.06084   0.0085458    -0.12625    0.016341   -0.011592
-0.14022    -0.88565    0.062139    0.020239   -0.089871    0.039402   -0.008669
-0.094418     -0.5118    0.045899    0.032257   -0.043099    0.056292  -0.0050961
-0.035628   -0.047646   0.0072465    0.034855     0.01764    0.069285  0.00042559
0.0062721      0.3811   -0.044398    0.028684     0.09397    0.075131   0.0085458
0.012443      0.6744   -0.093119    0.016991     0.17907    0.074157    0.013743
-0.0076946     0.80627    -0.12105   0.0043233     0.24533    0.063763    0.016016
-0.018413     0.80465     -0.1217  -0.0060706     0.24436    0.046223    0.016991
0.021538     0.71987   -0.097341   -0.010293     0.14626    0.029009    0.021213
0.1336     0.60099   -0.057065  -0.0054209    -0.03173    0.019264    0.033231
0.30185     0.47789    -0.01484   0.0059473    -0.23506    0.022512    0.053694
0.47757     0.35836    0.018615    0.017316    -0.40104    0.034855     0.07773
0.60587     0.24566    0.038103     0.02641    -0.49523    0.048497    0.096569
0.65199     0.14302    0.048497    0.029983    -0.50692    0.060515     0.10469
0.61139    0.048172    0.055318    0.029658    -0.44683    0.064413    0.096569
0.50745   -0.042124    0.055968    0.024786    -0.34225    0.057592    0.081627
0.36908     -0.1243     0.04395    0.014068    -0.22434    0.042651    0.065712
0.2174    -0.18147    0.016341  -0.0024977    -0.11943    0.025111    0.054019
0.067986    -0.18666   -0.017764    -0.02426   -0.035628   0.0046481    0.045899
-0.067459    -0.11748    -0.04992   -0.051544    0.032906    -0.01614    0.037129
-0.17724    0.013743   -0.078178    -0.08305    0.097543   -0.036602    0.022188
-0.25098     0.16543   -0.094093    -0.11456      0.1651   -0.052518   0.0036737
-0.28638     0.29015   -0.097991    -0.13437     0.23559   -0.059014   -0.012567
-0.28605     0.35479   -0.089546    -0.13372     0.31354   -0.055766   -0.017114
-0.2578     0.35089   -0.070382    -0.11228     0.40643   -0.045697   -0.011917
-0.20908     0.29665   -0.045372   -0.075255     0.51557   -0.034978  -0.0034721
-0.15061     0.22519   -0.019063   -0.033354      0.6312   -0.030756  -0.0011985
-0.096367     0.15666   0.0036737   0.0033489     0.71533   -0.032705  -0.0054209
-0.063561    0.094295    0.023812     0.02706     0.72929   -0.034978   -0.011592
-0.061613    0.031282    0.037129    0.037129     0.65914    -0.03303    -0.01549
-0.091495   -0.038227    0.044275    0.038103     0.51654   -0.026858   -0.010943
-0.13762    -0.11618    0.045899    0.036154     0.32946   -0.018738  -0.0021729
-0.18049    -0.20258    0.038103    0.030957     0.13392   -0.012892    0.008221
-0.20388    -0.28865    0.019914     0.01894   -0.026858   -0.013216    0.013743
-0.19771    -0.35816  -0.0099683  0.00042559    -0.11618    -0.02361    0.010495
-0.15678    -0.38739   -0.044398   -0.021012    -0.12333   -0.036927    0.003024
-0.087272    -0.34355   -0.076554   -0.037252   -0.072006   -0.045047  -0.0054209
-0.0080194    -0.22986    -0.10189   -0.045047  0.00010078   -0.043423   -0.011917
0.056617   -0.089221    -0.11813   -0.044723    0.060515   -0.037252   -0.013216
0.092021    0.021863    -0.12592   -0.040175    0.094295   -0.033679   -0.010293
0.097218    0.074806    -0.12495   -0.035628     0.10794   -0.032705  -0.0034721
0.082602     0.07773    -0.11845   -0.031406     0.11638   -0.032705   0.0039985
0.061814    0.061165    -0.11001   -0.027508     0.12613   -0.031406    0.012443
0.044599    0.050446   -0.099615   -0.023285      0.1362   -0.029457    0.028684
0.034855    0.050121   -0.084999   -0.017764     0.14496   -0.025559    0.045899
0.02706    0.057267   -0.056091  -0.0080194     0.15081    -0.01614    0.057917
0.015367    0.061165  -0.0096434   0.0049729     0.15081  -0.0050961    0.058891
-0.0024977    0.051096    0.037778    0.016666     0.14009   0.0049729    0.046873
-0.022311    0.024461     0.06896    0.023487     0.11833   0.0095202     0.02641
-0.037577   -0.015815    0.074806     0.02641    0.075131    0.003024    0.003024
-0.036278    -0.05804    0.059216    0.025761  -0.0015233    -0.01614   -0.015165
-0.018738   -0.089546    0.034206    0.022512    -0.11618   -0.040825   -0.021012
0.0091954    -0.10449   0.0072465    0.015042    -0.26332   -0.060638   -0.015815
0.038103    -0.10286   -0.013541   0.0078962    -0.43449   -0.075255   -0.011267
0.057592   -0.089221   -0.023285   0.0059473    -0.60729     -0.0824   -0.011267
0.064413   -0.067784   -0.019388    0.010819    -0.75475   -0.084024    -0.01549
0.055968   -0.044398   -0.010943    0.022188    -0.85025   -0.080776   -0.018413
0.033881   -0.023285  -0.0054209    0.035505    -0.87915   -0.073631   -0.021986
0.01017  -0.0083442  -0.0044465     0.04395    -0.84635   -0.061613   -0.030106
-0.0054209  -0.0015233  -0.0060706    0.044924     -0.7632   -0.046022   -0.038551
-0.008669 -0.00022403  -0.0037969    0.038428    -0.64627   -0.031081   -0.047321
-0.0060706  -0.0050961      0.0014    0.028359    -0.51212   -0.017764   -0.051868
-0.0057458   -0.026209   0.0072465    0.015367     -0.3783  -0.0054209   -0.047971
-0.012567   -0.071032    0.011144  0.00010078     -0.2565   0.0026992   -0.036602
-0.025234    -0.14574     0.01017   -0.016789    -0.15256   0.0075714   -0.026209
-0.035628    -0.24188   0.0033489   -0.035303   -0.063561   0.0065969   -0.021337
-0.040825     -0.3325  -0.0073698   -0.054792    0.021538  0.00042559   -0.023935
-0.041475    -0.38447   -0.018413   -0.076879      0.1219   -0.010293   -0.028807
-0.038551    -0.37765   -0.023285   -0.097017     0.24273   -0.019063    -0.03303
-0.036927    -0.30522   -0.019712    -0.10611     0.37006   -0.020687    -0.03238
-0.043099     -0.1753  -0.0083442   -0.098641     0.48082   -0.017439   -0.029132
-0.054792   -0.013216    0.003024   -0.076229      0.5526   -0.014516   -0.026858
-0.065186     0.14561    0.009845   -0.042774     0.56981   -0.015165   -0.027183
-0.059989     0.28203    0.011794  -0.0021729     0.53506    -0.01614   -0.029132
-0.029782      0.3824    0.011469    0.040052      0.4636   -0.014191   -0.027183
0.029333     0.43632    0.012119    0.074806     0.37818  -0.0080194   -0.013216
0.11151     0.44021    0.015367    0.095919     0.29633  0.00010078   0.0075714
0.20376     0.40254    0.026735     0.10534     0.22487    0.008221    0.029658
0.28366      0.3444    0.044924     0.11021     0.16575    0.013743    0.050121
0.33011     0.28723    0.066362     0.11378     0.11443    0.015692    0.063113
0.33693     0.24078    0.083576     0.11573    0.058891    0.017965     0.06961
0.30737     0.19758    0.089098     0.11183   -0.013866     0.01829     0.06961
0.2489     0.15016    0.078704     0.10306     -0.1191    0.016666    0.065712
0.16608    0.088124     0.05272    0.088448    -0.25682    0.012443     0.06019
0.06084  -0.0037969    0.014717     0.06896    -0.41208   0.0052977    0.048822
-0.061288    -0.13404   -0.025884    0.044924    -0.55922  -0.0054209    0.032582
-0.18309    -0.28898   -0.059014    0.019914    -0.65926   -0.018413    0.014717
-0.28638    -0.42735   -0.077203 -0.00087364    -0.67777   -0.030431   0.0026992
-0.36303    -0.50173   -0.076229   -0.011267    -0.60664   -0.035953  -0.0044465
-0.4202    -0.49231   -0.062587   -0.010943    -0.47217   -0.035628  -0.0093186
-0.46925    -0.42182   -0.038551  -0.0057458    -0.31983   -0.035303   -0.018413
-0.5092    -0.31301  -0.0096434  -0.0011985    -0.18569   -0.035953   -0.029457
-0.52641     -0.1727    0.023487 -0.00022403   -0.087272   -0.036602   -0.039851
-0.50627   -0.017764    0.046873   0.0010752   -0.020037   -0.036278   -0.045372
-0.44424      0.1219     0.05272   0.0078962    0.028359   -0.029782   -0.043423
-0.35296     0.21317    0.049472    0.023487    0.067661   -0.018088   -0.037577
-0.25585     0.24046    0.044599    0.046873     0.10404  -0.0057458   -0.032705
-0.16977     0.21317    0.042326    0.072533     0.14237   0.0043233   -0.031406
-0.10546     0.15893    0.046873    0.093645     0.17842    0.010819    -0.03173
-0.063561     0.10761    0.055643     0.10761      0.2109    0.010819   -0.029457
-0.036927    0.081303    0.062139     0.11703     0.23981   0.0072465   -0.021986
-0.015815    0.083576    0.061489     0.11931      0.2593   0.0062721   -0.008669
0.0039985     0.10274    0.051745     0.11183     0.25962    0.008221   0.0065969
0.020239     0.11606    0.040052    0.098193     0.23981     0.01017    0.015367
0.037129     0.10696    0.029983    0.082927     0.20635    0.011469    0.012443
0.061165     0.06831    0.025111    0.067011     0.16835    0.010495   0.0039985
0.099167    0.016341    0.024137    0.054019      0.1336    0.011469  -0.0028225
0.15893   -0.025559    0.021863    0.045899     0.10469    0.014068  -0.0073698
0.23981    -0.04115     0.01894     0.04395    0.084876     0.01829  -0.0067202
0.33823   -0.020687    0.016341      0.0433    0.072208    0.021213  -0.0024977
0.44704    0.035505    0.015367    0.041027    0.066686    0.019914   0.0059473
0.55292     0.11443    0.014068    0.028034    0.067986    0.014717    0.014392
0.63445     0.19661   0.0095202      0.0014    0.072208    0.010495    0.020888
0.66596     0.27034   0.0017248    -0.03173    0.081952    0.008221    0.025761
0.6377     0.32848  -0.0083442   -0.061613     0.10599   0.0043233    0.026085
0.56397     0.36681   -0.015165   -0.076554     0.14107   0.0043233    0.023162
0.47432      0.3876   -0.016464   -0.072981     0.17582   0.0091954    0.022188
0.3876       0.385   -0.015815   -0.054792     0.19856    0.012768    0.022512
0.29373     0.35414   -0.018088   -0.034654     0.20765   0.0095202    0.021213
0.16933     0.29243   -0.026533   -0.017439     0.20765   0.0017248    0.019264
-0.0015233     0.19953   -0.040825  -0.0041217     0.20148  -0.0063954    0.016991
-0.21005    0.068635   -0.059014   0.0056225     0.19044   -0.008669    0.015367
-0.4202   -0.095068   -0.073955    0.014392      0.1729  -0.0063954    0.010819
-0.58358    -0.25747   -0.080451    0.021213     0.14561  -0.0024977  0.00075039
-0.66868    -0.37148   -0.076554    0.021863     0.11281  -0.0015233    -0.01484
-0.67225    -0.40851    -0.06551    0.015692    0.075131 -0.00087364   -0.028807
-0.62028    -0.37375   -0.050569   0.0056225    0.034855  -0.0015233   -0.037902
-0.55077     -0.2945   -0.039526  -0.0076946    0.011144  -0.0034721   -0.045697
-0.49296     -0.2068   -0.031081   -0.017114    0.025111  -0.0060706   -0.048296
-0.4543    -0.13372   -0.019712   -0.018088    0.092021  -0.0063954   -0.043099
-0.4241   -0.085648  0.00010078   -0.015165     0.19953  -0.0057458    -0.03238
-0.38772    -0.06616      0.0433   -0.012567     0.31906  -0.0057458   -0.026533
-0.33607   -0.068434      0.1219   -0.014516     0.42105  -0.0060706   -0.027833
-0.26949   -0.077203     0.22714   -0.014516     0.49251  -0.0037969   -0.029132
-0.19121   -0.074605     0.33433  -0.0044465     0.53896   0.0020496   -0.026533
-0.10611   -0.047321     0.41358    0.014717     0.56884    0.011469   -0.019063
-0.021012   0.0036737     0.44996    0.039402     0.58605    0.025111   -0.010618
0.053694    0.061814     0.45678    0.061165     0.57826    0.040377  -0.0054209
0.10924    0.094295     0.46393    0.070584     0.52142    0.047523  -0.0093186
0.14107    0.080978     0.51914    0.064088      0.3876    0.044599    -0.02361
0.14951    0.020888     0.66238    0.048172      0.1638    0.037454     -0.0405
0.13684    -0.07428     0.77087    0.029983    -0.15353     0.02706   -0.051868
0.10404    -0.17789     0.56137   0.0088706    -0.55175    0.014717   -0.057065
0.057592    -0.25617    -0.11033   -0.019388    -0.98829  0.00042559   -0.060963
0.0085458    -0.28476     -1.0432   -0.061613     -1.3852    -0.01549    -0.06551
-0.030756     -0.2591      -1.849    -0.11001     -1.6486   -0.031081   -0.071032
-0.049595    -0.19446     -2.2326    -0.15451     -1.7103   -0.043099   -0.075579
-0.042124    -0.11651     -2.1027    -0.18309     -1.5535   -0.050244   -0.079477
-0.0096434   -0.046671     -1.5765    -0.18666     -1.2247   -0.051219   -0.081751
0.036479 -0.00087364    -0.88727    -0.16912    -0.82361   -0.046671   -0.081426
0.078379    0.022837    -0.25812    -0.13827     -0.4556   -0.039526   -0.071682
0.10144    0.032906     0.17355    -0.10514    -0.19186   -0.034654   -0.056741
0.10177    0.036154      0.3824   -0.085648   -0.051219   -0.037902   -0.043099
0.087474    0.035505     0.42138   -0.094743   -0.017114   -0.054467   -0.035303
0.071558    0.030633     0.36259    -0.13437   -0.052518   -0.081426   -0.028157
0.062464    0.020564     0.26709    -0.19316     -0.1191    -0.10806   -0.022961
0.06019   0.0095202      0.1768    -0.25422    -0.17335    -0.12527   -0.019712
0.065387   0.0078962     0.10794    -0.29353    -0.18601    -0.12852   -0.016789
0.080978    0.023812    0.064737     -0.2971    -0.14476     -0.1217   -0.011917
0.10566     0.06019    0.047847    -0.26267    -0.05739    -0.10774  -0.0044465
0.13717     0.11606    0.057917    -0.19901    0.050121    -0.09182   0.0078962
0.1755     0.18362    0.091696     -0.1204     0.15244   -0.077528    0.023487
0.2161     0.24501     0.13782   -0.040175     0.23429   -0.065186    0.036154
0.24403     0.26904     0.18134    0.026085     0.28821   -0.052518    0.044275
0.24598     0.22227     0.20668     0.06896     0.31549   -0.040175    0.046873
0.21155    0.093645     0.20505    0.086824      0.3314   -0.028157    0.041351
0.14302   -0.092469     0.18167      0.0865     0.35512   -0.019388    0.025111
0.057267    -0.28021     0.14821    0.073507     0.40059   -0.018738   0.0033489
-0.01484    -0.41793     0.11313    0.054993     0.46133   -0.024585   -0.015165
-0.04115    -0.47022    0.080978    0.032257     0.51654    -0.03238   -0.025234
-0.0083442    -0.40104    0.057592   0.0059473     0.53928   -0.039526   -0.025884
0.076431    -0.20778    0.047198   -0.019063     0.51752     -0.0405   -0.018088
0.18654    0.053044    0.044275   -0.033679     0.45808   -0.034004  -0.0047713
0.28691     0.29535    0.047523   -0.029132     0.37688   -0.020037   0.0088706
0.34017     0.46425    0.057917  -0.0060706     0.30055  -0.0044465     0.01829
0.32556     0.53798    0.078704    0.027709     0.25637   0.0095202    0.023487
0.25053     0.50777     0.10339    0.063113     0.24923     0.01894    0.027709
0.14172     0.36941     0.11476    0.094295     0.26287    0.022188    0.028359
0.029658      0.1284    0.097868     0.11703     0.28203    0.016016    0.026735
-0.062262    -0.16393    0.055968     0.12743     0.29178   0.0062721    0.028034
-0.12917    -0.40786   0.0043233     0.12678     0.27976  -0.0034721    0.032582
-0.18179    -0.50595   -0.047646     0.11801     0.24013  -0.0096434    0.040052
-0.22726    -0.43059   -0.086948     0.10664      0.1768  -0.0089938    0.046223
-0.26722    -0.23474    -0.10449    0.098517     0.10404  -0.0076946    0.047523
-0.28865   -0.025559   -0.097666    0.097543    0.034206  -0.0089938    0.044275
-0.27988    0.070584   -0.067134     0.10566   -0.024909   -0.012242    0.039402
-0.23441   -0.023935   -0.021661     0.12093   -0.073955   -0.013866    0.037454
-0.16198    -0.30879    0.029333     0.13684     -0.1178   -0.012242    0.040052
-0.079152    -0.72227    0.076755     0.14594    -0.15581   -0.007045    0.048497
-0.012892     -1.1695     0.11671     0.14139    -0.18244 -0.00022403    0.058891
0.022188     -1.5463     0.14302      0.1232    -0.18959   0.0062721    0.063763
0.029983     -1.7652     0.15406    0.097543    -0.17627   0.0065969     0.06019
0.024461      -1.763     0.14594    0.071234    -0.15223  0.00010078    0.050121
0.017316     -1.4921     0.11768     0.05142    -0.13534   -0.010943     0.03583
0.013743    -0.93112     0.06831    0.033231    -0.14119   -0.021986    0.025111
0.017316     -0.1308   0.0072465   0.0065969    -0.18017   -0.030756     0.01829
0.028034     0.75463   -0.052518   -0.033679     -0.2539   -0.039851    0.012119
0.038103       1.542   -0.093444   -0.083375    -0.35232   -0.051219 -0.00022403
0.041351      2.1299    -0.10514    -0.13437    -0.47607   -0.067459   -0.018413
0.034206      2.4735     -0.0824    -0.17952    -0.61314   -0.088572   -0.039526
0.024786      2.5609   -0.036278    -0.20518    -0.73494    -0.10741   -0.051219
0.021538      2.4024    0.016341    -0.19901    -0.79828    -0.11423   -0.045047
0.030308      2.0464    0.061165    -0.16003    -0.76839    -0.10254   -0.025234
0.045249      1.5764    0.090722    -0.09994    -0.64204   -0.073631  -0.0021729
0.056292      1.0895     0.10144   -0.042124    -0.44878   -0.034329    0.016991
0.05207     0.66108    0.093645  -0.0037969    -0.23603      0.0014    0.025436
0.029983     0.32491    0.075781    0.015692   -0.047321     0.02641    0.022188
-0.0037969    0.087149    0.057592    0.023812     0.09462    0.038428     0.01017
-0.036278   -0.061288    0.045574    0.031932     0.19304    0.041351  -0.0018481
-0.053817    -0.13502    0.040377      0.0433     0.26514    0.040377   -0.011917
-0.046022    -0.14541    0.042326    0.061489     0.32946    0.036154   -0.018413
-0.010293    -0.10676    0.047847    0.083576     0.40773    0.028359   -0.018413
0.050446    -0.04115    0.053694    0.099817       0.512    0.022837  -0.0076946
0.11313    0.030633    0.055318     0.10404      0.6364    0.024137    0.012768
0.15438    0.090397    0.051096    0.095594     0.74911    0.031282     0.03453
0.16153     0.11931    0.041676    0.080653     0.79653     0.03583    0.048497
0.1349    0.092996    0.032582    0.064413      0.7254    0.033231     0.05207
0.088773  -0.0044465    0.023487    0.050121     0.52207    0.028684    0.050771
0.042975    -0.15256    0.014717    0.041676     0.22747    0.028684    0.046873
0.013093    -0.29353     0.01017    0.040052   -0.082725    0.033231    0.044924
-0.0024977    -0.37635   0.0091954    0.045899     -0.3377    0.038428    0.048172
-0.015815    -0.38155    0.014717    0.054993    -0.49491    0.039402    0.055643
-0.031406    -0.32536    0.027709    0.064413     -0.5433    0.038753    0.061165
-0.048296     -0.2461    0.046548    0.073182    -0.49848    0.039727    0.062789
-0.056741    -0.18407    0.061814     0.07773    -0.39551    0.042001    0.060515
-0.053168    -0.16653    0.067661    0.078704    -0.27274    0.045249    0.054344
-0.036927    -0.21622     0.06084    0.081627    -0.16328    0.045899    0.045574
-0.014516    -0.33737    0.041676    0.081952   -0.092469    0.041027    0.033556
0.01017    -0.49458    0.014717    0.078704   -0.068434    0.030633    0.020564
0.032257    -0.61898   -0.017764    0.067011    -0.08305    0.018615   0.0091954
0.047523    -0.64886   -0.045047    0.048822    -0.12138   0.0085458  0.00042559
0.048172    -0.56149   -0.060313    0.027385    -0.17205  -0.0018481  -0.0050961
0.029658    -0.38837   -0.062912   0.0039985    -0.22304   -0.010293  -0.0076946
-0.0011985    -0.19316   -0.060638   -0.013866    -0.26364   -0.016789   -0.007045
-0.028482   -0.038227   -0.053492   -0.021661    -0.28248   -0.021337  -0.0057458
-0.039526    0.040702   -0.042774    -0.01614    -0.27014   -0.025234  -0.0054209
-0.034004    0.041351   -0.033679  -0.0060706    -0.23019   -0.024585  -0.0037969
-0.020037   -0.008669   -0.023285   0.0069217    -0.17042   -0.022636  -0.0015233
-0.0076946   -0.073631    -0.01484     0.01894    -0.10644   -0.020362  0.00075039
-0.0037969     -0.1204   -0.010618    0.029983   -0.054792   -0.017114      0.0014
-0.010943    -0.13502   -0.015165    0.036479   -0.022636   -0.013541  0.00075039
-0.029782    -0.12008    -0.02361    0.038428  -0.0099683   -0.010618 -0.00087364
-0.053817   -0.090196    -0.03238    0.039402   -0.010618  -0.0096434 -0.00054884
-0.073631   -0.064211   -0.037902    0.040052   -0.016464   -0.014516 -0.00054884
-0.080451   -0.058365   -0.040175    0.037778   -0.019712   -0.023935  -0.0037969
-0.078827   -0.072006   -0.039851     0.03518   -0.013541   -0.036602   -0.012567
-0.072006   -0.095393   -0.035303     0.03583    0.003024   -0.048296   -0.023935
-0.060313    -0.11163   -0.025234    0.041027    0.024137   -0.053817    -0.03173
-0.039526    -0.11391   -0.010618    0.047198    0.044275   -0.051868   -0.031406
-0.008669    -0.10546   0.0010752    0.047847    0.058566   -0.045697    -0.02426
0.026085   -0.096042   0.0043233    0.044924    0.063113   -0.037902   -0.016789
0.044924   -0.092469  -0.0011985    0.039078    0.060515   -0.034329   -0.013216
0.029658   -0.097341   -0.011592    0.034855    0.054344    -0.03303   -0.011917
-0.017764    -0.10676    -0.02361    0.033556    0.049147   -0.030756   -0.011592
-0.073955    -0.11423   -0.032055    0.032257    0.047523   -0.024909  -0.0096434
-0.10611    -0.11033   -0.035628    0.030633    0.047847   -0.016789  -0.0076946
-0.084024    -0.09117   -0.034004    0.028034    0.050771   -0.008669  -0.0076946
0.00010078   -0.060313   -0.031081    0.026085    0.052395  -0.0041217  -0.0067202
0.12125    -0.02361   -0.026533    0.024137    0.047198  -0.0037969  -0.0083442
0.23461   0.0095202   -0.021337    0.025436    0.033231  -0.0034721  -0.0093186
0.30574    0.031932   -0.018088    0.025111    0.016016  0.00010078   -0.011592
0.31322    0.049796   -0.020037    0.011144      0.0014   0.0036737   -0.013541
0.25215    0.080978   -0.028157   -0.033354  -0.0096434   0.0075714    -0.01549
0.13295     0.13165   -0.039201    -0.11293   -0.017114   0.0095202    -0.01614
-0.024585     0.19174   -0.052193     -0.2107   -0.020037    0.008221   -0.018088
-0.18439     0.24046   -0.064211    -0.29807   -0.014191   0.0069217   -0.018738
-0.30684     0.25183   -0.069733    -0.35004   0.0023744   0.0065969   -0.017114
-0.36238     0.19986   -0.070707    -0.36173    0.023162   0.0046481   -0.015815
-0.35102    0.067336   -0.068758     -0.3442     0.03583 -0.00022403   -0.020037
-0.29093    -0.15288   -0.065186    -0.30522    0.037129  -0.0099683   -0.027833
-0.2094    -0.44554   -0.056741    -0.22142    0.032906   -0.018088   -0.037252
-0.13729    -0.75215   -0.044398   -0.059014    0.036479   -0.021661   -0.046671
-0.095393    -0.96945   -0.029457     0.17192     0.05142   -0.018738   -0.054792
-0.092469    -0.99349   -0.015165     0.41066    0.077405   -0.012567   -0.059339
-0.1295    -0.78918  -0.0024977     0.57761     0.10274  -0.0060706   -0.062262
-0.19576     -0.4124    0.009845     0.62795     0.11931  -0.0015233   -0.064861
-0.26527    0.008221    0.020239     0.56819      0.1271  -0.0057458   -0.062912
-0.30814      0.3392     0.02706     0.43794     0.12483    -0.01549   -0.056741
-0.30879     0.50193    0.025436     0.28821     0.10989   -0.029457   -0.047321
-0.27631     0.48439    0.010819     0.15893    0.084551   -0.041475   -0.036602
-0.24188     0.31906   -0.020362    0.065712    0.049147   -0.050244   -0.025559
-0.22629    0.078379   -0.062912   0.0059473   0.0049729   -0.058689   -0.015815
-0.22986    -0.14834    -0.10156   -0.026533   -0.045372   -0.067134  -0.0076946
-0.23149    -0.28995    -0.12138   -0.041799   -0.092145   -0.074605 -0.00087364
-0.19901    -0.32925    -0.11456   -0.046996    -0.11943   -0.077203   0.0065969
-0.1191    -0.28833   -0.088247   -0.040825    -0.11488   -0.072981    0.014392
-0.0057458    -0.19283   -0.051219   -0.028157   -0.077528   -0.063237     0.02641
0.11411   -0.070382   -0.012892   -0.012567   -0.022636   -0.050894    0.040702
0.21382    0.050771     0.01829  -0.0011985    0.032582     -0.0405    0.053694
0.27261     0.14399    0.038428   0.0017248    0.072858   -0.033354    0.064737
0.28268     0.19726    0.044599  -0.0080194    0.092671   -0.028157    0.073832
0.2541     0.21025    0.038103   -0.031081    0.095269   -0.021012    0.080978
0.207     0.19401    0.027709   -0.065835    0.090072   -0.012892    0.084876
0.16218     0.16153    0.014717    -0.10091    0.083251  -0.0034721      0.0852
0.13197     0.12418 -0.00022403    -0.12463    0.080978   0.0056225    0.081627
0.11736    0.087799   -0.017764     -0.1308    0.082927    0.013418    0.075781
0.10696    0.054019   -0.037577     -0.1243    0.087799    0.017965    0.068635
0.096244    0.024137   -0.059014    -0.11715    0.090072    0.014392    0.057917
0.081952    0.009845    -0.07493     -0.1178    0.087149   0.0017248    0.044924
0.063438    0.026085     -0.0824     -0.1282    0.074157    -0.01484    0.029983
0.046223    0.079354   -0.081101    -0.14996    0.047198   -0.031081    0.015367
0.041351     0.15633   -0.077853    -0.17692   0.0046481   -0.036927   0.0052977
0.048822     0.23104   -0.073631    -0.19836   -0.052193   -0.030431  -0.0011985
0.064737     0.27261   -0.071357    -0.20518    -0.11488   -0.015815  -0.0093186
0.076106     0.26255   -0.070707    -0.19251    -0.16165   0.0026992   -0.021661
0.075131     0.20246   -0.071357     -0.1662     -0.1714     0.01894   -0.034978
0.061489     0.11736   -0.069083    -0.13502    -0.13469    0.032582   -0.044723
0.042001    0.041351   -0.057715    -0.11228   -0.062912     0.04395   -0.049595
0.023162  0.00042559   -0.036927    -0.10351    0.022188     0.05207   -0.052843
0.0075714 -0.00054884  -0.0089938    -0.11098    0.097543     0.05272   -0.057065
-0.00054884    0.027709    0.021863    -0.12852     0.14172    0.046223   -0.060638
0.0020496    0.068635    0.047523    -0.14022     0.13847    0.035505   -0.062587
0.014717     0.10534    0.064088    -0.13307      0.0852    0.022188   -0.060313
0.032906     0.12937    0.067986    -0.10319  -0.0076946    0.011144   -0.052843
0.052395     0.13879    0.059541   -0.055116    -0.12073   0.0056225   -0.041799
0.069934     0.13555      0.0433  -0.0011985    -0.23409   0.0095202   -0.027508
0.078704     0.12548     0.02641     0.04395    -0.32666    0.020888   -0.013541
0.080003     0.11476    0.010819    0.072208    -0.38252    0.034206  -0.0024977
0.078055     0.11054 -0.00087364    0.082277    -0.38902    0.039727   0.0020496
0.078055     0.11606  -0.0021729    0.077405    -0.34322    0.031282  0.00042559
0.080978       0.131    0.008221     0.06084    -0.26072    0.013418  -0.0060706
0.083576     0.15114    0.024137    0.041027     -0.1688  -0.0054209   -0.014191
0.078704     0.16478    0.037454    0.022837    -0.09182    -0.01549   -0.025559
0.061814     0.16998    0.045899    0.008221   -0.041799   -0.012892   -0.035628
0.053694     0.16965    0.054668   0.0017248   -0.017439 -0.00054884   -0.039851
0.079354     0.16478    0.065712    0.003024   -0.011917    0.013093   -0.036927
0.13944     0.15731    0.079679    0.012768   -0.012242    0.019589   -0.025559
0.20993     0.15016    0.091696    0.029333   -0.010618    0.016666   -0.010618
0.25962     0.14626    0.098517    0.048497  -0.0034721   0.0095202   0.0052977
0.27196     0.14334     0.10112    0.066037    0.011144   0.0017248    0.016666
0.25345     0.13295     0.10079    0.077405    0.031932  -0.0073698    0.023487
0.21415     0.11801    0.097218    0.082602    0.058241   -0.014516    0.029333
0.16185     0.10436    0.091372    0.079354    0.090072   -0.013866    0.033231
0.099167    0.097218    0.082277    0.064088     0.13067  -0.0057458    0.033556
0.024137    0.095269    0.067011    0.041027     0.18751  0.00010078    0.028034
-0.063886    0.079354    0.042001    0.015692     0.26027  0.00010078    0.018615
-0.16003    0.024137   0.0091954  -0.0057458     0.33595  -0.0083442   0.0085458
-0.24643   -0.068109   -0.022961   -0.016464     0.39864   -0.023935  0.00010078
-0.29937    -0.15418   -0.046022   -0.017764     0.44184   -0.040175  -0.0060706
-0.30457    -0.16847   -0.055766   -0.013216     0.45743   -0.050894  -0.0099683
-0.25975   -0.071682   -0.055766  -0.0067202     0.44184   -0.057065   -0.012892
-0.18407     0.11151   -0.046996  -0.0011985     0.39442   -0.062587   -0.014516
-0.094418     0.30997   -0.030106   0.0036737     0.32328   -0.068109   -0.010618
-0.012892     0.44834  -0.0099683    0.009845     0.24306   -0.072331  -0.0015233
0.042975     0.48601    0.008221    0.020564     0.17192   -0.072981    0.012443
0.059541      0.4269    0.024786    0.036154     0.11736   -0.068758    0.031282
0.03518     0.29697    0.034206    0.050771    0.072533   -0.059339    0.048497
-0.020037     0.12548    0.031607    0.059541    0.023487   -0.046671    0.058891
-0.080127    -0.06551    0.011794    0.062789   -0.047646   -0.032705    0.059541
-0.11586    -0.24415   -0.019063    0.061165    -0.15061   -0.022961    0.050446
-0.11423    -0.36498   -0.051868    0.059216    -0.28313   -0.021986    0.034855
-0.071357    -0.39487   -0.076229    0.057592    -0.43384   -0.029782    0.013093
-0.010943    -0.33867   -0.090196     0.05272    -0.57871   -0.044073   -0.014516
0.041676    -0.24091    -0.10059    0.041351    -0.68752   -0.060313    -0.04115
0.075781    -0.15938    -0.11293    0.020239     -0.7148   -0.074605    -0.06551
0.099167    -0.13047    -0.12625  -0.0041217    -0.62678   -0.080776     -0.0824
0.12483    -0.15548    -0.13307   -0.019712     -0.4254   -0.076229   -0.089546
0.15341    -0.21167    -0.12495   -0.021012    -0.16003   -0.063237   -0.084999
0.17192    -0.27988    -0.10384  -0.0080194     0.10501   -0.047971   -0.072656
0.16608    -0.33867   -0.080451   0.0088706     0.31354   -0.035953   -0.059014
0.13555    -0.36173   -0.056741    0.021863     0.43372   -0.024585   -0.046996
0.099817     -0.3403    -0.02361    0.030308     0.46263  -0.0093186   -0.036927
0.078379    -0.30587    0.020564    0.035505      0.4204    0.010819   -0.030106
0.065712    -0.30782    0.067661    0.040052     0.33043    0.030308   -0.023285
0.0433    -0.35069     0.10729    0.036804     0.21317    0.041027   -0.017439
-0.0076946    -0.40266     0.13847    0.023487    0.080653    0.041027   -0.016789
-0.090196    -0.44878     0.15601  0.00075039   -0.054467    0.030633   -0.021661
-0.18504    -0.49133     0.14984   -0.029132    -0.19056    0.009845   -0.030431
-0.26202    -0.49945     0.11118   -0.062587    -0.34484   -0.012892   -0.042774
-0.29223    -0.38187    0.044924   -0.094093    -0.53973   -0.030431   -0.053492
-0.26137   -0.054142   -0.028157     -0.1256    -0.77944   -0.036927   -0.059014
-0.17854     0.46717    -0.09117    -0.15061     -1.0289   -0.036927   -0.059664
-0.081751      1.0392    -0.13957    -0.16003     -1.2114   -0.034978   -0.055116
-0.015815      1.4764    -0.18342    -0.14704     -1.2524   -0.035953    -0.04862
-0.010943      1.6423    -0.23506    -0.11326      -1.126   -0.039526   -0.042774
-0.075579      1.4949    -0.29807   -0.069733    -0.87136   -0.040825   -0.038876
-0.18829      1.0889    -0.36856   -0.031081    -0.56506   -0.035953    -0.03303
-0.31431     0.52434    -0.43417  -0.0067202    -0.28281   -0.024909    -0.02361
-0.42085   -0.076554    -0.48191   0.0085458   -0.068758   -0.012892   -0.011917
-0.48419    -0.57416    -0.50465    0.019914    0.065062  -0.0031473  -0.0011985
-0.50075    -0.86226    -0.49068    0.029333     0.13522   0.0010752   0.0072465
-0.48159    -0.91033    -0.39064     0.03518     0.17257 -0.00022403    0.014068
-0.44196    -0.76612    -0.11521    0.035505     0.19856  -0.0063954    0.018615
-0.39746    -0.52219     0.34602    0.030633     0.22194   -0.012242    0.020239
-0.35654    -0.27599     0.85532    0.022512      0.2463   -0.011917    0.021213
-0.31724    -0.09182      1.2188    0.016341     0.27196  -0.0073698    0.020564
-0.26462   0.0052977      1.3013    0.022188     0.30152  -0.0015233     0.01764
-0.19024    0.030308       1.097    0.039727      0.3418   0.0056225    0.016016
-0.098316    0.012119      0.7163    0.062139     0.39344    0.012119    0.023812
-0.0041217   -0.017114     0.31386     0.08585     0.44216    0.016991    0.037778
0.070909   -0.037577    0.012443     0.10306     0.46425    0.018615    0.053369
0.11541   -0.045372    -0.13794     0.10989     0.44249    0.016341    0.066686
0.1336   -0.053817     -0.1597     0.10826       0.385    0.011144    0.073182
0.13944   -0.070382    -0.11066     0.10274     0.30737   0.0043233     0.06831
0.14496   -0.095393   -0.048945    0.094945     0.22779  0.00010078    0.056617
0.15536    -0.11618   -0.012892    0.087474     0.15601  -0.0024977    0.041676
0.16965     -0.1191   -0.014191    0.083251    0.092996  -0.0047713    0.031607
0.18394    -0.11228   -0.042449    0.082927    0.044275  -0.0096434    0.027385
0.19531    -0.11001   -0.078178      0.0852    0.016341   -0.014191    0.029333
0.20473    -0.11326    -0.10741    0.089423    0.011469   -0.017114    0.030957
0.21025    -0.10286    -0.12463    0.089423    0.023162    -0.01614    0.028034
0.2122   -0.053168    -0.13015    0.083901    0.044275   -0.012242    0.024461
0.21188      0.0433     -0.1269     0.07773    0.075131  -0.0060706     0.02706
0.207     0.16998    -0.11813    0.074482     0.12288  -0.0018481    0.035505
0.19499     0.28626    -0.10709    0.072533     0.19076  -0.0015233    0.046223
0.17452     0.34602   -0.097991    0.068635     0.27651  -0.0044465    0.057592
0.15081     0.32556   -0.095068    0.063763     0.37948  -0.0089938    0.067986
0.13327     0.21935    -0.10059    0.057267     0.49771   -0.017764    0.076755
0.12548     0.04395    -0.11196    0.046873     0.62276    -0.03303    0.077405
0.13717     -0.1623    -0.12657    0.033231     0.73676   -0.046996    0.070259
0.16315    -0.36271    -0.13924     0.01894     0.81667   -0.053817    0.053044
0.19044    -0.54395    -0.14671    0.008221      0.8368   -0.055766    0.030308
0.20668    -0.70733    -0.14671   0.0033489     0.78419   -0.052193    0.013743
0.20473    -0.86291    -0.14022  -0.0018481     0.65426   -0.045697   0.0095202
0.19011     -1.0026    -0.13599   -0.012892     0.45451   -0.040175    0.016016
0.17712     -1.0802    -0.13729   -0.035953     0.21447   -0.038876    0.028034
0.17095     -1.0299    -0.14216   -0.069083   -0.019063   -0.039526    0.039078
0.17127    -0.79568    -0.14314    -0.10286    -0.20388   -0.038876    0.044599
0.16998     -0.3848    -0.14249    -0.12463    -0.31724   -0.035628     0.04395
0.16088     0.12515    -0.13502    -0.12722    -0.35361   -0.031406    0.038428
0.14237     0.62795    -0.11748    -0.11001    -0.33478   -0.024909    0.029333
0.12158      1.0564   -0.086948   -0.078827     -0.2919   -0.020037    0.021213
0.10761      1.3633   -0.050894   -0.041475    -0.25195   -0.020037    0.014717
0.10274      1.5036   -0.020362  -0.0089938    -0.23798    -0.02361   0.0088706
0.10404      1.4575  -0.0015233   0.0095202    -0.26981   -0.028807   0.0036737
0.10436      1.2467    0.003024    0.009845    -0.35459   -0.030106  -0.0037969
0.099167      0.9375  -0.0028225  -0.0028225    -0.48159   -0.026858   -0.011267
0.10306     0.61171   -0.011592   -0.022311    -0.61931   -0.021986   -0.017439
0.13425      0.3379   -0.017114   -0.042124    -0.73786   -0.019712   -0.022311
0.19336     0.15666  -0.0089938    -0.05804    -0.80834   -0.020687    -0.02426
0.2619    0.067661    0.034206   -0.063237    -0.81517    -0.02361   -0.020687
0.31809    0.055968     0.12028   -0.057715     -0.7593   -0.025234   -0.010943
0.3457    0.099492     0.24338   -0.043748    -0.66023   -0.019063   0.0020496
0.34245     0.17062     0.38402   -0.027508    -0.54005  -0.0060706    0.014392
0.30932     0.24695     0.51525   -0.013541    -0.41273   0.0065969    0.028359
0.25735     0.31484     0.61983  -0.0037969     -0.2919    0.013418    0.042001
0.20018     0.35576     0.69779   0.0033489    -0.18244    0.012768    0.045574
0.14204     0.34212      0.7647   0.0075714   -0.080776   0.0039985    0.036154
0.080003     0.21155     0.86246     0.01017     0.01894  -0.0083442     0.01764
0.0039985   -0.088247      1.0138    0.016016     0.11833   -0.023935  -0.0047713
-0.10221    -0.52934      1.0671    0.021538      0.2187   -0.042124   -0.024909
-0.25     -1.0266     0.74683    0.020564     0.32393    -0.05804   -0.040825
-0.42442     -1.4885   -0.034329   0.0072465      0.4295    -0.06616   -0.050244
-0.58098     -1.8198     -1.0331   -0.012242     0.53116    -0.06551   -0.055116
-0.67095     -1.9403     -1.8685   -0.025884     0.62048   -0.059014   -0.054792
-0.66835     -1.8178     -2.2781   -0.029132     0.68317    -0.04992   -0.050894
-0.58325      -1.468     -2.2034   -0.022311     0.71403   -0.038227   -0.045697
-0.45236    -0.94346     -1.7714   -0.011267     0.70688   -0.028157   -0.042774
-0.31399    -0.31724     -1.1975  -0.0034721     0.65914   -0.020362   -0.045047
-0.19608     0.31646    -0.67095  -0.0047713     0.57858   -0.017114   -0.052193
-0.10741     0.86409    -0.29028  -0.0099683     0.47854   -0.018738   -0.058689
-0.043748      1.2665   -0.067459   -0.015165      0.3733   -0.021986   -0.062262
-0.0011985      1.4777     0.03518   -0.018088     0.27261   -0.021986   -0.061937
0.026085      1.4764    0.067661    -0.01549     0.17874   -0.019712   -0.062262
0.037129       1.285    0.070909   -0.007045     0.09462   -0.018088   -0.060963
0.036479     0.97257    0.071883   0.0026992     0.02706   -0.014516   -0.056091
0.032257     0.62925    0.080328    0.012768    -0.02426   -0.011267   -0.046996
0.028684      0.3314    0.094295    0.019914   -0.061288   -0.010618   -0.038876
0.027709     0.12353     0.11151    0.027385   -0.085648  -0.0099683   -0.035303
0.029333   0.0088706     0.13165    0.028359   -0.098641  -0.0067202   -0.034329
0.030633   -0.037252     0.15179    0.020888    -0.10676   0.0010752    -0.03173
0.029009    -0.04862      0.1664    0.010495    -0.12203    0.010819   -0.028807
0.023487   -0.051544     0.17095    0.003024      -0.161    0.020564   -0.027508
0.022188   -0.054792     0.16965   0.0017248    -0.23441    0.028359   -0.027833
0.033556   -0.057715     0.16835   0.0049729     -0.3351    0.030308   -0.032705
0.058566   -0.056416     0.17192    0.010819    -0.43352    0.028359   -0.040175
0.091047   -0.053492     0.17874     0.01764    -0.49913    0.022188   -0.045372
0.12385    -0.04927     0.18622    0.029333    -0.51959    0.013743   -0.044723
0.15146   -0.046022     0.18719    0.041027    -0.49718   0.0069217   -0.039201
0.16868   -0.046347     0.18622    0.048172    -0.44651  0.00010078   -0.034329
0.17225   -0.054467     0.18524    0.048822     -0.3861  -0.0089938   -0.034654
0.15309   -0.068758     0.18362    0.044924     -0.3351   -0.018088   -0.040175
0.10112   -0.083375     0.18037    0.043625    -0.30132   -0.021337   -0.046347
0.018615   -0.088572     0.17582    0.046873    -0.28443   -0.017764   -0.046996
-0.080776     -0.0824     0.16965    0.048822    -0.27793   -0.010293   -0.041799
-0.17432   -0.070707      0.1638    0.045249    -0.27534  0.00010078   -0.032055
-0.2448   -0.064211     0.16088    0.036804    -0.27306    0.012443   -0.022636
-0.28378   -0.070382     0.16088    0.023162    -0.26949    0.022837   -0.013866
-0.29125   -0.086298     0.16023    0.013743    -0.26462     0.02706  -0.0047713
-0.27014    -0.10124     0.15796    0.012768    -0.25877    0.025761    0.008221
-0.22597    -0.10319     0.15633    0.016991    -0.24935    0.021538    0.023812
-0.16653   -0.087272     0.15796    0.017316    -0.23181    0.011469    0.037454
-0.10774   -0.059664     0.15893    0.009845    -0.19901  0.00010078    0.046223
-0.072006   -0.036278     0.15503  -0.0054209    -0.14314  -0.0080194    0.046223
-0.078503   -0.031081     0.14594   -0.020037   -0.066485   -0.013866    0.039727
-0.12463   -0.046671     0.13197   -0.028157    0.024786   -0.016789     0.03453
-0.19608   -0.082725     0.11606   -0.028807     0.12385   -0.020362    0.030633
-0.27241    -0.13697    0.097868   -0.027508     0.21772    -0.02426     0.02706
-0.33413     -0.2016    0.074482   -0.026209     0.29373   -0.026858    0.021213
-0.36206    -0.26397    0.051096   -0.026209     0.33952   -0.027508    0.016016
-0.34192    -0.30619    0.037129   -0.024909     0.34115   -0.025884    0.015692
-0.26916    -0.31431    0.036804   -0.021012     0.28593    -0.02361    0.016991
-0.1636    -0.28573    0.050446   -0.017764     0.18102   -0.019063    0.018615
-0.055116    -0.23279    0.071883   -0.012892    0.051745   -0.014191    0.022512
0.028359     -0.1753    0.090397  -0.0054209   -0.068109   -0.010943    0.031282
0.082602     -0.1282    0.098842   0.0020496    -0.14964  -0.0080194    0.040702
0.11411   -0.096367     0.09397     0.01017    -0.18504  -0.0018481    0.047198
0.1362   -0.073306    0.081303     0.01894    -0.18569   0.0056225    0.049147
0.15731   -0.049595    0.067011    0.031282    -0.16555    0.011144    0.046548
0.17322   -0.022636     0.06084    0.045249    -0.12787    0.012443    0.044599
0.18102   0.0062721    0.065712    0.059541   -0.076229   0.0091954    0.040377
0.1768    0.034855    0.076755    0.069934   -0.013216   0.0049729    0.033556
0.16283    0.056617     0.08585    0.070909    0.056292      0.0014    0.028034
0.14724    0.066037    0.089098    0.062139      0.1284  -0.0024977    0.024786
0.1323    0.058566    0.083901    0.048497     0.20538   -0.007045    0.024137
0.11638    0.034206    0.069934    0.036479      0.2895   -0.012242    0.024786
0.099167  0.00042559    0.044275     0.02706     0.36648   -0.018413    0.024461
0.080978   -0.026858    0.014392    0.017965     0.42073   -0.021337    0.020888
0.061489   -0.036278  -0.0093186   0.0059473     0.44379   -0.014191    0.015692
0.044275   -0.022311    -0.01549  -0.0067202     0.43567  -0.0021729    0.008221
0.039727     0.01017 -0.00054884   -0.010618     0.40351   0.0078962  0.00010078
0.054668    0.046548    0.031607  -0.0031473     0.35771    0.014392  -0.0060706
0.088773    0.072208    0.065712    0.015367     0.30445    0.020564  -0.0073698
0.1336    0.076755    0.090722    0.036804     0.24111    0.031607  -0.0028225
0.17517    0.048497     0.10274    0.053694     0.15958    0.047523      0.0014
0.19888   -0.012567    0.094945    0.064088    0.055643    0.063438   0.0043233
0.19823   -0.086298    0.067986    0.073182   -0.071357    0.072533   0.0059473
0.18622    -0.13599    0.029333    0.076755    -0.22044    0.070584   0.0033489
0.18037    -0.12625   -0.013541     0.06831    -0.38252    0.057917  -0.0050961
0.19791   -0.041799   -0.052843    0.042975    -0.53583    0.040702   -0.019388
0.24046     0.11021    -0.08305   0.0023744    -0.65211    0.025761   -0.034004
0.30315     0.30672    -0.10384   -0.037902    -0.71805    0.016016   -0.042449
0.36486     0.50355     -0.1217   -0.065186    -0.73364    0.013743     -0.0405
0.39604     0.65102    -0.14249   -0.073955    -0.69921    0.015367   -0.026533
0.37265     0.70006    -0.17075    -0.06681    -0.62126     0.01829  -0.0057458
0.29243     0.62698    -0.20096   -0.050569    -0.52057    0.014717    0.016016
0.17355     0.44574    -0.22759   -0.034654    -0.42637   0.0049729    0.032582
0.037778     0.19758    -0.24188   -0.032705    -0.37603  -0.0063954    0.038428
-0.10546   -0.076879    -0.24221    -0.04862    -0.39259   -0.017114    0.032906
-0.2578    -0.36044    -0.24091   -0.078503    -0.46275   -0.029132    0.019589
-0.42085    -0.63165    -0.24643    -0.11196    -0.55337   -0.042449    0.003024
-0.58065    -0.83498    -0.25552    -0.14216    -0.62645   -0.057065    -0.01614
-0.70083    -0.90481    -0.25033    -0.16588    -0.65114   -0.071032   -0.034654
-0.75475    -0.82296    -0.21102    -0.17432    -0.60859   -0.079477    -0.04862
-0.72909    -0.62028     -0.1282     -0.1636    -0.50075   -0.076554   -0.050569
-0.63003    -0.34647   -0.012242    -0.13599     -0.3429   -0.063886   -0.042449
-0.47314   -0.052518     0.11086   -0.096692    -0.16295   -0.044398   -0.029782
-0.27014     0.21123      0.2161   -0.055116   0.0056225    -0.02426   -0.019388
-0.046996     0.40903      0.2973   -0.015165     0.14009   -0.010618    -0.01484
0.15958     0.52531     0.35382    0.021538     0.22877  -0.0024977   -0.012567
0.31322     0.56754     0.38337    0.054344     0.27911  -0.0011985   -0.011267
0.39084     0.56007     0.38013    0.077405     0.29892  -0.0015233   -0.008669
0.39279     0.53051      0.3444    0.084876     0.29633 -0.00022403  -0.0054209
0.33628     0.49543     0.28171    0.074482     0.27619    0.003024  -0.0021729
0.25053      0.4649     0.20473    0.052395     0.24793   0.0065969  0.00075039
0.14984     0.45516      0.1349    0.028359     0.21967    0.009845   0.0059473
0.036479     0.47107    0.081303    0.011469     0.20246    0.010495    0.015367
-0.083375     0.49316    0.041027   0.0069217     0.19791    0.010495    0.027385
-0.20225     0.48796   0.0039985    0.009845     0.19791   0.0091954    0.034855
-0.31399     0.43047   -0.036278    0.015692     0.19531   0.0043233    0.032582
-0.40948     0.31257    -0.08305    0.018615     0.18297  -0.0057458    0.019914
-0.47899     0.13035    -0.13145    0.010495     0.16413   -0.020037   0.0010752
-0.50985    -0.12235    -0.17952  -0.0080194     0.14269   -0.032705   -0.020362
-0.49523    -0.43644    -0.22174   -0.028807     0.12872   -0.038227     -0.0405
-0.43644     -0.7541     -0.2526   -0.045372     0.12905   -0.037252   -0.056416
-0.34679    -0.99706    -0.26916   -0.054142     0.14269   -0.034004   -0.065186
-0.24415     -1.0955    -0.27306   -0.056416     0.16965   -0.033679   -0.064861
-0.14184     -1.0188    -0.25877   -0.052193     0.20798   -0.034654   -0.055116
-0.04862    -0.79016    -0.22694   -0.039851     0.25507   -0.029782   -0.039201
0.033881    -0.48126    -0.18634   -0.022311     0.31322   -0.019712   -0.021337
0.10209    -0.18569    -0.14411  -0.0034721     0.38662  -0.0099683   -0.007045
0.15179    0.023812    -0.10936    0.011144      0.4727  -0.0021729   0.0039985
0.17874     0.12418   -0.086623    0.020888     0.55325    0.003024   0.0091954
0.18264     0.13295   -0.073631     0.02641     0.61496   0.0026992   0.0046481
0.16998    0.093321   -0.072331    0.031932     0.64972  -0.0024977  -0.0089938
0.15179    0.054344    -0.07493    0.039078     0.65654   -0.010618    -0.02426
0.14172    0.045249   -0.069408    0.049472     0.62828   -0.015815   -0.035303
0.14464    0.071234   -0.051868    0.060515     0.56202    -0.01614   -0.036602
0.1677     0.11703   -0.030106    0.068635     0.45873   -0.011917   -0.030106
0.21447     0.16348   -0.010618    0.071558     0.32621  -0.0060706   -0.022961
0.27944     0.19758   0.0017248    0.073507     0.18037  -0.0018481   -0.020687
0.35414      0.2044   0.0043233    0.072858    0.049472   0.0017248   -0.022961
0.42203     0.17615   0.0010752    0.071558     -0.0405  0.00010078    -0.02361
0.46717     0.11606  -0.0073698    0.070909   -0.075904   -0.012242   -0.021012
0.47075    0.057267   -0.021012    0.072533   -0.061288   -0.034004   -0.013216
0.42722    0.032582    -0.04115    0.068635   -0.013541   -0.058689  -0.0024977
0.34602    0.057267   -0.063561    0.054993    0.041676   -0.080127   0.0065969
0.24208     0.11476   -0.084024    0.033556    0.086824   -0.092794     0.01017
0.1258      0.1677   -0.096367    0.010819     0.11833   -0.098316    0.003024
-0.0024977     0.18362   -0.096692  -0.0031473       0.131   -0.097341  -0.0093186
-0.14639     0.14854   -0.090521  -0.0060706      0.1258   -0.093444   -0.019388
-0.30294    0.073507   -0.079152 -0.00022403     0.10404   -0.082076    -0.02426
-0.44976   -0.016789   -0.065186   0.0056225    0.073832    -0.06681   -0.026209
-0.54525    -0.09117   -0.052843   0.0056225    0.041027   -0.053492   -0.028482
-0.55597    -0.12625   -0.047646 -0.00022403    0.011794   -0.046022   -0.031081
-0.47899    -0.11163   -0.050569   -0.012242   -0.016464   -0.044073   -0.028157
-0.3416   -0.059014   -0.056091   -0.024585   -0.043423   -0.046022   -0.020687
-0.18601   0.0039985   -0.059014   -0.035953   -0.064861   -0.046671   -0.012892
-0.052843    0.051745   -0.052843   -0.043748    -0.07493   -0.044073  -0.0089938
0.036479    0.078704   -0.034329   -0.046996   -0.072331   -0.035628  -0.0099683
0.080328    0.088448   -0.011267   -0.044398   -0.059014   -0.028807   -0.013216
0.091372    0.080328   0.0075714   -0.034978   -0.044073   -0.029782    -0.01549
0.090072    0.045249    0.013743    -0.02361   -0.037902   -0.034978   -0.015165
0.098193   -0.010618   0.0036737   -0.011917   -0.052193   -0.038551   -0.011917
0.12255   -0.054792   -0.018413 -0.00054884   -0.096692   -0.035628  -0.0060706
0.15796   -0.044073   -0.037902    0.011144    -0.16782   -0.028157   0.0020496
0.18654     0.03583   -0.042774     0.02641    -0.24643   -0.018088    0.012768
0.19726     0.14594    -0.03238    0.048172    -0.29677  -0.0076946    0.025436
0.18946        0.22   -0.010618    0.074482    -0.29288   0.0078962    0.044275
0.17127     0.21252    0.012768    0.097543    -0.23116    0.024137    0.070259
0.14464     0.12125     0.02706     0.11281     -0.1334    0.036804    0.094945
0.10469   -0.020037    0.029333     0.11768   -0.030756    0.041351     0.10956
0.050771    -0.15905    0.023812     0.11573    0.050446    0.040702     0.11281
-0.0093186    -0.26689    0.021538     0.11313    0.095919    0.037129     0.10566
-0.06681    -0.34225    0.026085     0.11183     0.10826    0.034855    0.094945
-0.10936    -0.39649    0.033231     0.10924    0.095919    0.033881    0.083251
-0.12495    -0.42085    0.036479     0.10242    0.070259    0.032582    0.071883
-0.10871    -0.39811    0.030957    0.091696    0.036154    0.029983    0.062464
-0.067784    -0.31918    0.016341    0.078379   0.0043233     0.02706    0.060515
-0.010943    -0.20485   0.0023744    0.062789    -0.01614    0.022512    0.065062
0.044275   -0.085973  -0.0034721    0.045249   -0.008669    0.014068    0.072858
0.089423    0.003024   0.0039985     0.02641    0.045249   0.0020496    0.074806
0.1219    0.038753    0.019264   0.0059473     0.13782    -0.01549    0.071558
0.14009    0.022837     0.03453   -0.018088     0.23396   -0.037577    0.065062
0.14399   -0.011592    0.041351   -0.046022     0.28561    -0.05804    0.054993
0.13035   -0.018738    0.041676   -0.069083     0.27196   -0.073306    0.042326
0.10242    0.025436    0.041027     -0.0837     0.19401   -0.081426    0.029333
0.073832     0.11703    0.039078   -0.083375    0.082927   -0.082076     0.01764
0.058891     0.24338    0.038103   -0.067134    -0.03173   -0.075255    0.008221
0.064413     0.38597    0.038428   -0.037577    -0.13177   -0.059664  0.00042559
0.084551     0.51849    0.033881  -0.0031473     -0.2133   -0.037252  -0.0047713
0.10696     0.62471     0.02641    0.026735    -0.29093   -0.015815  -0.0041217
0.12288     0.70104    0.022512     0.04395     -0.3835  -0.0018481   0.0017248
0.13392     0.73969    0.024461    0.046548      -0.504   0.0072465    0.010819
0.14237     0.72475    0.032582     0.03583    -0.66446    0.013743    0.019589
0.14951     0.64647    0.041027    0.020564    -0.87655    0.020888    0.022512
0.15276     0.51687      0.0433    0.003024     -1.1231     0.02706     0.01894
0.15114     0.36453    0.037778   -0.020687     -1.3498     0.02706    0.010495
0.14074     0.22162    0.030308   -0.056091     -1.4778    0.020564  0.00042559
0.11833     0.11183    0.023162   -0.097341     -1.4333   0.0091954  -0.0083442
0.084876    0.036154    0.015692    -0.13437      -1.189  -0.0024977   -0.013541
0.043625   -0.011917   0.0091954    -0.15548    -0.78269   -0.013216    -0.01549
0.0010752   -0.046022   0.0043233    -0.15321    -0.30262   -0.021012   -0.013866
-0.035953    -0.07493  0.00042559     -0.1334     0.14529   -0.029782  -0.0083442
-0.059664   -0.092145  -0.0011985    -0.10968     0.46717   -0.041799  -0.0024977
-0.071032   -0.086298 -0.00087364   -0.092469     0.62373   -0.054792  -0.0011985
-0.077528   -0.055116   0.0020496   -0.087597     0.62795   -0.063886  -0.0060706
-0.084999  -0.0021729   0.0049729   -0.086298     0.53441   -0.068109   -0.019388
-0.095717     0.06084   0.0065969   -0.081101     0.41585   -0.067784   -0.036278
-0.09929     0.11313   0.0059473   -0.065835     0.33238   -0.067134   -0.050569
-0.084024     0.13684   0.0065969   -0.039201     0.31062   -0.063237   -0.054792
-0.053168     0.11606    0.010495  -0.0054209     0.33758   -0.051868   -0.048945
-0.022311    0.018615    0.016666    0.028034     0.37525   -0.035953   -0.036927
-0.0047713    -0.16912    0.019914    0.054019     0.38337   -0.017439   -0.025559
0.0017248    -0.39941    0.019914     0.06961     0.34375  -0.0034721   -0.017439
0.0056225     -0.5878    0.021863    0.075781     0.26255   0.0036737   -0.012567
0.015692    -0.67225    0.029009    0.076755     0.16543   0.0043233   -0.008669
0.032582    -0.67095    0.042651    0.073182    0.080978   0.0043233  -0.0067202
0.055318    -0.64334    0.057592    0.066362    0.029333    0.011794  -0.0067202
0.081952    -0.65179    0.065387    0.058241   0.0091954    0.023162  -0.0057458
0.11054    -0.72552    0.065062    0.050446    0.012119    0.033556  -0.0021729
0.12905    -0.84115    0.059216    0.045899    0.028684    0.038428   0.0039985
0.11833    -0.95646    0.053044    0.044275    0.057917    0.037778   0.0088706
0.070584     -1.0097    0.040052    0.043625    0.092996    0.030957    0.008221
-0.0031473     -0.9269    0.016666    0.042001     0.13132     0.01829  0.00010078
-0.075904    -0.66283   -0.020687    0.039078     0.16835   0.0023744   -0.012892
-0.11748    -0.25195   -0.063237    0.037129     0.20473  -0.0076946   -0.022636
-0.11456     0.22032   -0.096692    0.036154     0.23851  -0.0096434   -0.024909
-0.07493      0.6692    -0.10611    0.038103     0.27164  -0.0031473   -0.018088
-0.017764      1.0229   -0.089221    0.042975     0.30217   0.0036737  -0.0050961
0.039078      1.2224   -0.058365    0.044924     0.31549   0.0052977   0.0085458
0.088773      1.2386   -0.027833    0.039078      0.2934  -0.0047713    0.013743
0.12125       1.095  -0.0060706     0.02641     0.22065   -0.021986    0.013093
0.12385     0.85337   0.0059473    0.018615    0.097543     -0.0405   0.0059473
0.091047      0.5906   0.0036737    0.017316   -0.060963   -0.051544  -0.0044465
0.032257      0.3733   -0.012567    0.014068    -0.24286   -0.055116   -0.018088
-0.03173     0.24403   -0.033679 -0.00054884     -0.4215   -0.052843   -0.032055
-0.0824     0.21772   -0.050894   -0.030756    -0.56506   -0.048296   -0.043748
-0.11131     0.27456   -0.056091   -0.073955    -0.63457   -0.047321   -0.050244
-0.12138     0.36161    -0.04927    -0.12073    -0.61379   -0.048945   -0.055441
-0.13015     0.41293   -0.035628     -0.1623    -0.51764   -0.052843   -0.060313
-0.1623      0.3824   -0.024909    -0.18861    -0.38577    -0.05804   -0.065186
-0.23246       0.258   -0.019388    -0.19251     -0.2513   -0.062912   -0.069408
-0.34322    0.046873   -0.020362    -0.17465    -0.13697   -0.064861   -0.072981
-0.48029    -0.22467   -0.030756    -0.13827   -0.056741   -0.062587   -0.075579
-0.60437    -0.50043   -0.045372   -0.088572   -0.017114   -0.056416   -0.075579
-0.67258    -0.70928   -0.054142   -0.039526  -0.0021729   -0.045047   -0.071357
-0.66186     -0.7999   -0.051219   0.0010752   0.0065969   -0.024909   -0.060638
-0.57091     -0.7567   -0.033679    0.029333    0.022512   0.0010752   -0.045372
-0.42085    -0.60924  -0.0054209    0.048497    0.046873    0.025111   -0.028482
-0.25033    -0.41435    0.029333    0.064088    0.073507    0.039727   -0.013866
-0.098965    -0.22726    0.056292    0.073832    0.090397    0.042001  -0.0024977
0.0052977   -0.082076    0.068635    0.075781    0.090722    0.034855   0.0078962
0.058891   0.0091954    0.065387    0.071558    0.074157    0.025111     0.01829
0.075131    0.056617    0.049472    0.062789    0.037454    0.017965    0.026085
0.075456    0.070259    0.027385    0.050771   -0.023935    0.017316    0.027385
0.074482    0.064413   0.0056225    0.036154    -0.10676     0.01829    0.024461
0.074806    0.051745    -0.01549    0.019589    -0.19316    0.015042    0.017316
0.075131    0.029983   -0.034978   0.0039985    -0.26332   0.0088706    0.009845
0.067011   -0.014516   -0.050244  -0.0057458    -0.29775   0.0072465   0.0052977
0.041351   -0.097017    -0.05804  -0.0031473    -0.28833    0.013093   0.0072465
-0.00087364    -0.20778   -0.054792    0.011469     -0.2435    0.020239    0.017965
-0.046996    -0.30782   -0.039201    0.030308    -0.18179    0.027709    0.031282
-0.081751    -0.36044   -0.018088    0.044924    -0.12333    0.030957    0.036804
-0.084024    -0.34679  -0.0015233    0.052395   -0.075255    0.032906    0.029333
-0.04115    -0.27209   0.0065969    0.055643   -0.037252     0.03518    0.014392
0.045249    -0.15938    0.013418    0.058241   -0.012892     0.03583  -0.0011985
0.15698   -0.029457    0.024786    0.063438  -0.0073698    0.038103   -0.010293
0.26872     0.10404    0.038428    0.064737   -0.025234    0.041676   -0.011267
0.35154     0.22454    0.049796    0.047198   -0.059339    0.042975  -0.0041217
0.38435     0.31062    0.050446  -0.0028225   -0.096692    0.038428   0.0075714
0.36648     0.34245     0.03518   -0.087922     -0.1191    0.027385    0.016991
0.31451     0.31224   0.0039985    -0.18796    -0.10936    0.013418    0.015042
0.25313     0.23136    -0.03238    -0.27599   -0.061288  -0.0015233  0.00042559
0.19693     0.10891   -0.065186    -0.32925    0.014717   -0.013866   -0.019063
0.13912   -0.046347   -0.087922    -0.34679    0.095594   -0.022636   -0.035303
0.066037    -0.20875   -0.098965    -0.33965     0.16348   -0.028807   -0.044723
-0.029132    -0.33965   -0.094093    -0.30067     0.22097    -0.03303   -0.050894
-0.14411     -0.4176   -0.071357    -0.19576     0.28983   -0.036278   -0.052843
-0.2578    -0.44456   -0.032705  -0.0015233     0.38922    -0.04115   -0.050894
-0.34355    -0.43806    0.012443     0.25118     0.52564   -0.046347   -0.048945
-0.37375    -0.43319    0.056617     0.48666     0.68252   -0.051544   -0.048296
-0.34842    -0.48484    0.088448     0.63542     0.83031   -0.053492   -0.045372
-0.2854    -0.62256    0.096893     0.66758     0.93652   -0.049595   -0.039201
-0.21102    -0.82134    0.084226     0.59645     0.96998   -0.038551   -0.032705
-0.14671     -1.0159    0.058566     0.46393     0.91573   -0.026858   -0.028807
-0.10221     -1.1289    0.030308     0.31939     0.79003   -0.017764   -0.025234
-0.076229      -1.099   0.0085458     0.19401     0.61594   -0.012567   -0.020362
-0.062262    -0.90514  -0.0076946     0.10371     0.40351   -0.013216   -0.012892
-0.046347    -0.55435   -0.021661     0.04395     0.16705   -0.017439  -0.0063954
-0.023935     -0.0824   -0.035628   0.0036737   -0.067459   -0.019063  -0.0037969
0.0017248     0.44086   -0.050894   -0.027508    -0.26884   -0.017114  -0.0018481
0.026085     0.92125   -0.062262   -0.051868    -0.41013   -0.016789   0.0026992
0.042651      1.2909   -0.058689   -0.070707    -0.48776   -0.022311    0.011469
0.05207      1.5192   -0.036927   -0.082725    -0.51927   -0.029782     0.01894
0.056617       1.593  -0.0054209   -0.088247    -0.53291    -0.03238    0.023162
0.059541      1.5049    0.022837   -0.086948    -0.54882   -0.025559    0.023162
0.06019      1.2714    0.042001   -0.080127    -0.57286   -0.014191    0.020888
0.057917     0.94627    0.046223   -0.071357    -0.60014  -0.0057458    0.016666
0.054668     0.60164    0.033231    -0.06681    -0.61833  -0.0054209    0.012443
0.053044     0.30477   0.0043233   -0.068109    -0.60664   -0.012892    0.011469
0.055968     0.10014    -0.03173   -0.068434    -0.55045   -0.018738    0.013418
0.067011   0.0039985   -0.060963   -0.062587    -0.45333   -0.021012    0.015692
0.089098   0.0056225   -0.072656    -0.04927     -0.3364   -0.017114    0.013743
0.12028    0.074482   -0.064211    -0.03303    -0.22304  -0.0047713    0.008221
0.15211      0.1664   -0.039526   -0.019063    -0.12885    0.012443    0.003024
0.1755     0.23851  -0.0057458  -0.0083442   -0.061613    0.028034   0.0049729
0.19141     0.27067    0.031282 -0.00087364   -0.018088    0.036804    0.013418
0.22032     0.26482    0.059541   0.0056225    0.016341    0.041027    0.026085
0.27684     0.23559    0.073507    0.010495     0.06019    0.040702    0.038428
0.35609     0.19856    0.072533    0.016341     0.11963    0.032582    0.047847
0.43404     0.16445    0.066037    0.022512     0.18297    0.018615    0.051745
0.48439     0.13522    0.062139    0.026735     0.23526   0.0052977    0.054668
0.49024     0.10891    0.058891    0.026735     0.27067  -0.0018481    0.055968
0.44996    0.084551    0.054019    0.016991      0.2908  -0.0021729    0.056617
0.37785    0.064088    0.046548   0.0010752     0.29633      0.0014     0.06084
0.2921    0.045899    0.038753    -0.01484     0.28691  0.00075039    0.071883
0.19921    0.030957    0.034855   -0.026533     0.26352   -0.007045    0.084226
0.091696    0.013418    0.032582   -0.029782     0.23006   -0.021986    0.091047
-0.044398   -0.010293    0.031282   -0.023935     0.18687   -0.038551    0.086824
-0.20485   -0.041799    0.028034    -0.01549     0.13197   -0.049595    0.073182
-0.36563   -0.079152    0.021213   -0.010618    0.066037   -0.050569    0.054344
-0.48906     -0.1178    0.011144   -0.017764   -0.008669   -0.045697    0.038753
-0.54038    -0.14834 -0.00054884   -0.037902   -0.092145   -0.039526    0.029983
-0.51115    -0.16393   -0.011592   -0.059989    -0.18407   -0.038876    0.029658
-0.4189    -0.16458   -0.018738   -0.073955    -0.29028   -0.044723    0.033231
-0.2984    -0.15451   -0.018413   -0.075904    -0.41111   -0.050569    0.036479
-0.18342    -0.13372   -0.012892   -0.070382    -0.53258   -0.054467    0.039727
-0.09182    -0.10254  -0.0093186   -0.060313    -0.63392   -0.056091    0.042326
-0.021337   -0.060313  -0.0083442   -0.050569    -0.69564   -0.054792    0.041676
0.037129    -0.01484   -0.011267   -0.047321    -0.70343   -0.052193    0.036479
0.0865    0.020888   -0.019388    -0.04992    -0.64984   -0.048945    0.028034
0.12255    0.040377   -0.029457   -0.055766    -0.54525   -0.041475    0.016341
0.14984    0.051745   -0.034654   -0.059339    -0.40851   -0.029132   0.0065969
0.18232    0.074482   -0.026533   -0.052843    -0.26429   -0.015165  0.00075039
0.22812     0.12028      0.0014   -0.033354    -0.12755  -0.0011985   0.0017248
0.27814     0.17972    0.045899  -0.0041217   -0.012242    0.013093   0.0078962
0.31094     0.22227    0.090397    0.027385    0.077405    0.026085     0.01829
0.30412      0.2083     0.12093     0.05207     0.14821    0.034206    0.026735
0.24111     0.11573     0.12905     0.06896     0.20603    0.035505    0.024137
0.12678    -0.04927     0.11541    0.076106     0.25443    0.029009   0.0088706
-0.014516    -0.26072    0.083576     0.06831     0.28983     0.01764   -0.017439
-0.15223    -0.48906    0.033881     0.04395     0.30445   0.0036737   -0.047971
-0.25747    -0.70408   -0.035303   0.0049729     0.29925  -0.0099683   -0.079802
-0.30814    -0.83888    -0.11391   -0.038551     0.27586   -0.023285    -0.10189
-0.29288     -0.8012    -0.18309   -0.072006     0.24078   -0.036278    -0.11033
-0.21232    -0.55987    -0.21525   -0.085324     0.20895   -0.044398    -0.10709
-0.087597    -0.17984    -0.19446    -0.07428     0.18687   -0.044723   -0.096692
0.042651     0.20148    -0.13145    -0.04115      0.1742   -0.036278     -0.0824
0.14432     0.44541   -0.059989  -0.0015233     0.16413   -0.021337   -0.068434
0.19791     0.48926   -0.013541    0.031932     0.14464  -0.0083442   -0.055766
0.19986     0.36583  -0.0018481    0.051096     0.11248   0.0010752   -0.043099
0.16835     0.16575   -0.016789    0.058566    0.072208   0.0056225   -0.028482
0.12645   -0.021661   -0.038227    0.054019    0.029658   0.0065969  -0.0099683
0.090072    -0.15029   -0.050569    0.042651  -0.0093186   0.0033489     0.01017
0.053694    -0.21979   -0.051219    0.026085   -0.037902  -0.0073698    0.020888
0.0062721     -0.2435   -0.045372   0.0023744    -0.04992   -0.028157     0.01829
-0.059014    -0.22272   -0.036602   -0.029457   -0.048945   -0.053168   0.0075714
-0.13112    -0.14964   -0.028157   -0.064211   -0.045697    -0.07493  -0.0021729
-0.18569   -0.021661   -0.017764   -0.095393   -0.046671     -0.0837  -0.0047713
-0.20453     0.13912  -0.0057458    -0.11683   -0.043423   -0.081101  -0.0024977
-0.19089     0.27944   0.0062721    -0.12722   -0.029132   -0.068758 -0.00022403
-0.16003     0.33693    0.015042    -0.12398  -0.0054209   -0.052193      0.0014
-0.13502     0.28723    0.016341    -0.10838    0.024786   -0.037902 -0.00022403
-0.12625     0.13977    0.010495   -0.082076    0.051745   -0.026533  -0.0041217
-0.14509    -0.09182  -0.0015233   -0.055116    0.059865   -0.018413   -0.010618
-0.19706    -0.38025   -0.017439   -0.034329    0.042975   -0.013866   -0.018088
-0.27501     -0.6677    -0.03238   -0.020687   0.0026992   -0.012892   -0.026209
-0.35199    -0.87071   -0.046347   -0.012242   -0.044398   -0.013866    -0.03173
-0.38967    -0.93242   -0.055441   -0.010943   -0.072656   -0.017764   -0.032055
-0.35589    -0.84505    -0.05739   -0.021986   -0.066485   -0.021012   -0.025234
-0.24383    -0.66023   -0.047971   -0.041799   -0.024585   -0.022311   -0.010943
-0.082725    -0.45918   -0.027833   -0.054142    0.046223   -0.020687   0.0095202
0.078379    -0.31951  -0.0047713   -0.042774     0.13814   -0.013541    0.029333
0.19791    -0.26429    0.013093  -0.0024977     0.24143  0.00075039    0.042326
0.25962    -0.26851    0.021213    0.055318     0.34537    0.019589    0.046223
0.26579    -0.28411    0.014392     0.11346     0.43339    0.036479    0.042001
0.23169    -0.26267   -0.010293     0.15146     0.48536    0.048172    0.030957
0.17095    -0.17042   -0.048945     0.16088     0.48926    0.048497    0.016341
0.090722  -0.0024977    -0.09117     0.13847     0.44639    0.037129  0.00042559
-0.0031473     0.21642    -0.12398    0.092021     0.36291    0.014392   -0.017439
-0.094093     0.43957    -0.13469    0.033231     0.24566   -0.013866   -0.037902
-0.16718     0.61756    -0.11651   -0.019063     0.10436   -0.043099   -0.055766
-0.20908     0.71533   -0.057715   -0.046022    -0.04115   -0.064536    -0.06551
-0.2146     0.73059    0.047847   -0.039851    -0.17465    -0.07493   -0.064861
-0.19056     0.67603     0.19141  -0.0028225    -0.29158   -0.070707   -0.058365
-0.15808     0.56072     0.34764    0.048822    -0.38739   -0.052193   -0.047646
-0.13697     0.38662     0.48374    0.095269    -0.45203   -0.023935   -0.035953
-0.13989     0.15893     0.57566     0.11833    -0.46502   0.0033489   -0.024585
-0.15613   -0.092794     0.62471     0.11021    -0.40916    0.021213    -0.01549
-0.16393    -0.31464     0.65621    0.078704    -0.27631    0.023162  -0.0076946
-0.14087    -0.45106     0.71565    0.038753   -0.075579    0.012119  -0.0024977
-0.080776    -0.47249     0.84915   0.0046481     0.18134  -0.0021729   0.0023744
0.0017248    -0.39162      1.0064   -0.018088     0.48374   -0.012892   0.0010752
0.082602     -0.2487      0.9336   -0.034654     0.80822   -0.016789   -0.010943
0.13879   -0.081101     0.39929   -0.054792        1.11    -0.01614   -0.031406
0.16283     0.09462    -0.52511   -0.081426      1.3308   -0.011592   -0.048296
0.15958      0.2502     -1.4739    -0.10709      1.4208  -0.0063954   -0.060313
0.14139     0.33335      -2.103    -0.12105        1.35   -0.007045   -0.066485
0.11963     0.31192     -2.2469    -0.11845      1.1236   -0.014516   -0.068434
0.10404     0.20733     -1.9552    -0.10059     0.76989   -0.025884   -0.068434
0.096893    0.081952     -1.4164   -0.073955     0.30899   -0.034978    -0.06616
0.099167  -0.0089938    -0.84018   -0.042774    -0.23538   -0.040175   -0.059989
0.11183   -0.024585    -0.37343   -0.012567    -0.80087   -0.042124   -0.051219
0.12937    0.044924   -0.070058    0.015692     -1.3004   -0.042124   -0.042774
0.14269     0.17127    0.084226    0.043625     -1.6486   -0.038876   -0.034654
0.14561     0.29892      0.1362    0.067336     -1.7993   -0.031406   -0.027183
0.14139     0.38045     0.13652    0.081627     -1.7542   -0.022961   -0.021986
0.13262     0.39637      0.1219    0.084876     -1.5622    -0.01614   -0.017114
0.11703     0.35544     0.11443    0.079354     -1.2933   -0.013541   -0.011267
0.099167     0.28333      0.1219     0.06896     -1.0039   -0.013216  -0.0037969
0.083576      0.2122     0.13944    0.058566    -0.72714   -0.010943      0.0014
0.073507     0.16803     0.15861    0.055643    -0.47542  -0.0041217   0.0069217
0.072533     0.16543     0.17485    0.063438    -0.25098     0.01017    0.014392
0.07708     0.19726     0.18427    0.078055   -0.063886    0.027385    0.023487
0.084551     0.24208     0.18589    0.088124     0.07708    0.041027    0.029658
0.091696     0.26872     0.18069    0.080328      0.1664    0.048172    0.028684
0.094945     0.25995     0.16965    0.049472      0.2148    0.044275     0.01894
0.092671      0.2187     0.15373   0.0023744     0.25118    0.031932   0.0065969
0.085525     0.16088     0.13425   -0.040825      0.2973    0.016666  -0.0028225
0.076106     0.10534     0.11931   -0.067784     0.35836   0.0069217  -0.0031473
0.063763    0.064737     0.11313   -0.070058     0.41845   0.0026992   0.0069217
0.050771    0.037129     0.11898   -0.051219     0.45158   0.0056225    0.021213
0.039727    0.021213      0.1362   -0.019712     0.44054   0.0085458    0.036154
0.032906    0.011794     0.15698    0.013093     0.39312    0.012768    0.048172
0.033556   0.0069217     0.17355    0.039402     0.32783    0.014392    0.054668
0.044924   0.0036737     0.17972    0.057267     0.26579    0.016016    0.054993
0.064413   0.0026992     0.18069     0.06961     0.21252    0.017316    0.052395
0.0865   0.0049729     0.18232    0.076106     0.16608    0.019914    0.050771
0.10436   0.0088706     0.18297    0.080978     0.12125    0.021863    0.049796
0.11021    0.012119     0.17485    0.084551    0.076431    0.021538    0.048172
0.10112   0.0088706     0.15601    0.086824    0.032582    0.019264    0.044275
0.071883  -0.0011985     0.12872    0.091047  -0.0096434     0.01764    0.038103
0.019589    -0.01614    0.099817     0.10014   -0.047646    0.016341    0.033231
-0.049595   -0.033679    0.073182     0.10761   -0.080776    0.012443    0.024786
-0.11813   -0.051219    0.054993     0.10599    -0.10936   0.0072465     0.01764
-0.16782   -0.062262    0.048172    0.090397    -0.13307    0.003024    0.016666
-0.18731   -0.069083    0.048822    0.065062    -0.15093      0.0014     0.01764
-0.17724   -0.072981    0.054019    0.040702    -0.16393   0.0026992     0.01894
-0.14379    -0.07493    0.061165    0.022188     -0.1753   0.0065969    0.019264
-0.10416   -0.075579     0.06961    0.016341    -0.19089    0.010819    0.017965
-0.073955    -0.07428     0.07773    0.026085    -0.21785    0.009845    0.015692
-0.05804   -0.073955    0.084876    0.046873    -0.25162   0.0085458    0.011144
-0.051544   -0.067459    0.092346     0.06896    -0.27891   0.0062721    0.010819
-0.047971   -0.046996     0.10079     0.08585    -0.28638   0.0036737    0.013743
-0.044398   -0.014191     0.10436    0.092346    -0.27176   0.0023744    0.017965
-0.045047    0.018615     0.10242    0.088124    -0.24091 -0.00022403    0.023812
-0.049595    0.035505    0.095594    0.078379     -0.2042  -0.0044465    0.031607
-0.05804    0.029658    0.090397    0.065387     -0.1688  -0.0099683    0.038103
-0.070058      0.0014    0.086175    0.054993    -0.13567   -0.013866    0.038428
-0.088572   -0.038227    0.084226    0.048497    -0.10059   -0.017114    0.031932
-0.10514   -0.080451    0.082277    0.044599   -0.058689   -0.025884    0.023162
-0.11326    -0.12463    0.071234    0.041027   -0.011917     -0.0405    0.012119
-0.11228    -0.17497    0.050446    0.036804    0.037129   -0.056416  -0.0028225
-0.10221    -0.22434    0.024137    0.027385    0.088448   -0.069733   -0.019063
-0.089871    -0.25455  -0.0018481    0.015042     0.14756    -0.07428   -0.034654
-0.078503     -0.2474   -0.021661   0.0052977      0.2122   -0.070058   -0.041799
-0.069083    -0.19738   -0.035303   0.0017248     0.27554   -0.063237   -0.039526
-0.061613    -0.12203   -0.040825  -0.0034721     0.32491   -0.057715   -0.031406
-0.049595   -0.046996   -0.040825   -0.021986     0.35024   -0.054467   -0.021661
-0.033354   0.0065969   -0.035953   -0.052843     0.34959   -0.051868   -0.014516
-0.017114    0.029983   -0.026209   -0.086298     0.32523   -0.046022  -0.0096434
-0.0011985    0.029333   -0.013866    -0.11131     0.28203   -0.039201   -0.007045
0.013743    0.014392  -0.0031473    -0.11293     0.22227   -0.028482  -0.0028225
0.024137  -0.0099683   0.0095202   -0.089546     0.15049   -0.015165   0.0085458
0.031607    -0.04927    0.022188   -0.048945    0.067336  -0.0060706     0.02706
0.029983    -0.10384    0.031282   -0.012242    -0.01484  -0.0011985    0.045899
0.01894    -0.16458    0.032906   0.0072465   -0.079152  -0.0015233    0.056617
-0.0047713    -0.21557    0.024786 -0.00022403    -0.11391  -0.0083442    0.055318
-0.04115     -0.2448   0.0020496   -0.032055     -0.1269    -0.02361    0.043625
-0.084999    -0.23831   -0.046996   -0.073631    -0.13502   -0.041475    0.025761
-0.12073    -0.19381    -0.12755    -0.10806    -0.15743   -0.051544    0.010495
-0.13177    -0.10871    -0.23214     -0.1256     -0.2055    -0.04927      0.0014
-0.11261    0.015042    -0.33543     -0.1243    -0.27144     -0.0405  -0.0041217
-0.063561     0.14854    -0.41273    -0.10709    -0.33348   -0.028157  -0.0067202
-0.0015233     0.21317    -0.45398   -0.081101    -0.36953   -0.017114  -0.0067202
0.051096     0.13067     -0.4634   -0.052193    -0.36531   -0.010618 -0.00054884
0.078704    -0.11586    -0.45073   -0.022311    -0.32113   -0.011917   0.0072465
0.081952    -0.46275    -0.42735   0.0062721    -0.24903   -0.015815    0.016341
0.066686    -0.80932    -0.37375    0.031607    -0.16653   -0.017764     0.02706
0.047847     -1.0705    -0.21655    0.047198   -0.087597   -0.017114    0.038428
0.034206     -1.1786     0.11898     0.05142   -0.019388   -0.013866    0.049796
0.025436     -1.0896     0.59158    0.045249    0.030308  -0.0083442    0.059865
0.015042     -0.8038      1.0304    0.033556    0.058891  -0.0021729    0.066362
0.00042559    -0.37733      1.2561    0.020564    0.061814 -0.00022403    0.066037
-0.019388     0.11411      1.1879    0.009845    0.036804  -0.0054209     0.06019
-0.039851     0.61301     0.88065 -0.00054884   -0.018738   -0.016789    0.053694
-0.055116      1.0687     0.46815   -0.010618   -0.092469   -0.031406    0.046873
-0.062912      1.4172    0.089098   -0.023935     -0.1636   -0.046347    0.038428
-0.063237      1.5933     -0.1662   -0.041799    -0.19998   -0.059989    0.028034
-0.054792      1.5692    -0.27436   -0.062912    -0.17952   -0.070382    0.016991
-0.035628      1.3744    -0.26559   -0.078178    -0.09929   -0.072006   0.0095202
0.0033489      1.0775    -0.19576   -0.075579     0.01764   -0.065186   0.0085458
0.070259     0.75885    -0.12235   -0.055116     0.13749   -0.047971    0.014068
0.15926     0.48374   -0.076229   -0.026209     0.22812   -0.026209    0.025436
0.25248     0.28723   -0.064211   0.0010752     0.27359  -0.0063954    0.038428
0.32621     0.16803   -0.075904     0.01894     0.27359    0.008221    0.047523
0.36324     0.10891   -0.096367    0.022188     0.24013    0.015692    0.048497
0.35771    0.080653    -0.11878    0.019914     0.18394    0.019589    0.038103
0.31127     0.06019    -0.13794    0.015042     0.11508    0.018615    0.018615
0.22909    0.029658    -0.15451   0.0049729    0.038428   0.0085458  -0.0037969
0.12288   -0.013541    -0.16555    -0.01549   -0.038876  -0.0083442   -0.023935
0.0059473    -0.06551    -0.17042   -0.045047    -0.11163   -0.029132   -0.039526
-0.10254    -0.11651    -0.16977   -0.072006    -0.17075   -0.051544   -0.047321
-0.19413     -0.1636     -0.1662   -0.088896    -0.20258   -0.072981   -0.050569
-0.26754    -0.20972     -0.1623   -0.094093    -0.19283   -0.084674   -0.052193
-0.32146    -0.25715    -0.16198    -0.09117    -0.13957   -0.081426   -0.049595
-0.35232    -0.30002    -0.16523     -0.0837   -0.054142   -0.068109   -0.042774
-0.35784    -0.32601    -0.17042   -0.073631    0.041351   -0.053817   -0.034978
-0.33705    -0.32438    -0.17302   -0.061613      0.1323   -0.042449   -0.027508
-0.29482    -0.29223     -0.1714   -0.048945      0.2057   -0.036602    -0.02361
-0.24026    -0.23344    -0.16328   -0.034004     0.25637   -0.033679   -0.027183
-0.18601    -0.16133    -0.14769   -0.019063     0.28756   -0.029132   -0.035303
-0.14996    -0.10351    -0.12657  -0.0083442     0.30152   -0.021986   -0.042774
-0.13924   -0.086298    -0.10319  -0.0031473      0.2934   -0.013541   -0.046022
-0.14704    -0.11683   -0.081101  -0.0041217      0.2515  -0.0054209   -0.044398
-0.15029      -0.174   -0.066485  -0.0093186       0.169   0.0033489   -0.038876
-0.13015    -0.22402   -0.058689   -0.018088    0.055643   0.0078962   -0.032705
-0.088896    -0.25098   -0.058689    -0.02361    -0.06681   0.0043233   -0.032705
-0.045697    -0.26202   -0.072331    -0.02426    -0.17432  -0.0044465   -0.041799
-0.015165    -0.27144   -0.097341   -0.021012    -0.24675   -0.013541   -0.057715
-0.00054884    -0.27891    -0.12333   -0.016789    -0.27469   -0.018088   -0.073955
0.0062721    -0.27339    -0.13827   -0.011592    -0.26397    -0.01549   -0.084349
0.015367    -0.24578    -0.13404  -0.0060706    -0.23116  -0.0063954   -0.084024
0.034206    -0.19673    -0.10644 -0.00022403    -0.18894   0.0043233   -0.073306
0.067986    -0.13242   -0.061288    0.008221    -0.14476    0.015367   -0.058689
0.11508    -0.06616   -0.011917    0.020239    -0.10221    0.023162   -0.044723
0.16673   -0.010618     0.02706    0.034206   -0.063886    0.025111   -0.035303
0.21123    0.031607    0.049796    0.046223   -0.028157    0.021863   -0.025884
0.25345    0.061165    0.052395    0.054019   0.0059473    0.017316   -0.012892
0.3038    0.081952    0.038428    0.057592    0.033556    0.013093  -0.0015233
0.36259    0.094945     0.01764    0.059216    0.048822    0.012443   0.0043233
0.41293    0.097868  -0.0015233    0.059865     0.05272    0.017316 -0.00022403
0.43242    0.089098   -0.013866    0.057917     0.05142    0.026735   -0.010293
0.39994    0.064088   -0.024585    0.054668    0.050771     0.03583   -0.018088
0.31127    0.024786   -0.037902    0.050121    0.050121    0.041027   -0.021986
0.18979   -0.024585   -0.053817    0.047198    0.047523    0.038428   -0.021986
0.070259   -0.079802   -0.069733    0.045574    0.044924    0.032257   -0.019063
-0.02361    -0.13567   -0.080127    0.046223    0.042975    0.028684   -0.012242
-0.085324    -0.17919   -0.082076    0.048822    0.042001    0.028684  -0.0044465
-0.1256    -0.19348   -0.076554    0.048822    0.040377    0.030957   0.0046481
-0.1597     -0.1753   -0.065186    0.042975    0.033556     0.03453    0.010495
-0.19446    -0.14574   -0.052843    0.032257    0.019589     0.03583    0.009845
-0.22272    -0.12885   -0.041799     0.01829   0.0046481    0.037129 -0.00054884
-0.22661    -0.11488   -0.030756     0.01017   0.0017248    0.039727    -0.01549
-0.19706   -0.078827   -0.012567    0.011469    0.011794    0.042326   -0.031081
-0.14022  -0.0076946     0.01764    0.021538     0.02706    0.042326   -0.039526
-0.075904    0.083901    0.056292    0.030633    0.039402    0.037778   -0.038551
-0.029132     0.16056    0.080653    0.031607      0.0433    0.029658   -0.032055
-0.020037     0.18427    0.078055    0.024786    0.040702    0.019264   -0.028482
-0.053168     0.14951    0.059541    0.013418    0.038753    0.011794   -0.035303
-0.11066    0.079029    0.037129 -0.00087364    0.042326   0.0091954   -0.051219
-0.16165    0.012443    0.021213   -0.012567    0.049796   0.0065969   -0.068434
-0.18699   -0.025884   0.0091954   -0.020687    0.058566   0.0010752   -0.077853
-0.19608   -0.039851   -0.010293   -0.023935    0.065387  -0.0080194   -0.074605
-0.2068   -0.052518   -0.047646   -0.021661    0.062789    -0.01549   -0.061288
-0.22402   -0.079477    -0.10221   -0.017764    0.047198    -0.01549   -0.042124
-0.23571    -0.11423    -0.15905   -0.012242    0.017965  -0.0099683   -0.021986
-0.22142    -0.13957    -0.20096  -0.0063954   -0.012892  -0.0021729  -0.0031473
-0.17302    -0.13859    -0.21785  0.00042559   -0.036278   0.0052977     0.01017
-0.095068    -0.11845    -0.21037   0.0056225    -0.04862   0.0091954    0.014717
-0.0018481   -0.096692    -0.18407    0.011144   -0.054142   0.0065969    0.012768
0.088124    -0.09182    -0.14346    0.016991   -0.055116  -0.0015233   0.0072465
0.16348    -0.10416    -0.09182    0.017316    -0.05739   -0.011267   0.0056225
0.22227    -0.11358   -0.033679    0.011144   -0.073631   -0.021337   0.0085458
0.26839   -0.099615    0.029658   0.0010752    -0.11683   -0.027508    0.014068
0.30152   -0.062587     0.10209   -0.010618    -0.18861    -0.03303     0.01829
0.30834   -0.021337     0.18037   -0.021661    -0.27566   -0.036602    0.016016
0.27456    0.011469      0.2554   -0.025884    -0.35102   -0.037902   0.0078962
0.20213    0.038753     0.31646   -0.019712    -0.39194   -0.039526 -0.00022403
0.11216    0.066037     0.35966  -0.0018481    -0.38804   -0.041475  -0.0034721
0.024137    0.084551      0.3824    0.020239    -0.34355   -0.044398  -0.0024977
-0.054467    0.065387     0.38078    0.042001    -0.27339   -0.048296 -0.00087364
-0.13145  0.00010078     0.34667    0.056942    -0.19738   -0.055441  -0.0047713
-0.20518   -0.077203     0.27879    0.057917    -0.12917   -0.063237   -0.015815
-0.26202    -0.12982     0.18622    0.046548   -0.075255   -0.070382   -0.028807
-0.2854    -0.16847    0.092346    0.031607   -0.034004   -0.072981   -0.036278
-0.26104    -0.21167     0.01894    0.020564   0.0020496   -0.067784   -0.030106
-0.19056    -0.26689   -0.020362    0.013418    0.037454   -0.058689  -0.0099683
-0.087922    -0.33055   -0.025559    0.010495    0.073182   -0.054467    0.016666
0.021863    -0.38025   -0.012567    0.010819     0.09462   -0.059014    0.040702
0.11281    -0.38804      0.0014    0.013093    0.079679   -0.070707    0.057592
0.1677    -0.32731   0.0056225    0.013093    0.022837     -0.0824     0.06831
0.18037    -0.18244  -0.0083442   0.0085458   -0.065186   -0.084024    0.067011
0.15406    0.039402    -0.04115  -0.0011985    -0.16328   -0.074605    0.054993
0.10761     0.29145    -0.08305   -0.011917     -0.2435   -0.058365    0.036479
0.063438     0.52272    -0.11553   -0.016789     -0.2867   -0.044723     0.01894
0.033556     0.71728    -0.12463   -0.016464    -0.28118   -0.036602    0.009845
0.019264     0.87968    -0.10384  -0.0076946    -0.22889   -0.034654    0.011794
0.016016     0.99661   -0.063561   0.0072465    -0.14866   -0.037577    0.019264
0.020239      1.0349   -0.021337    0.018615    -0.06616   -0.040825    0.025436
0.030308       0.969   0.0052977    0.017316   0.0049729   -0.042124    0.028684
0.048497     0.80757     0.01017   0.0026992    0.058566   -0.042449    0.030308
0.070259     0.59937   0.0026992   -0.014191     0.09462   -0.043423    0.030308
0.088448     0.40871  -0.0015233   -0.022636     0.11508   -0.047321    0.032582
0.10047     0.29145    0.003024   -0.019388     0.12125   -0.051868    0.039078
0.11054     0.25637    0.014392  -0.0096434     0.11054   -0.054467    0.048172
0.11995     0.27099     0.02706  -0.0028225    0.086175   -0.055766    0.053369
0.12548     0.28821     0.03518  -0.0034721    0.061489   -0.055766     0.05142
0.12483     0.27294    0.034206   -0.012242    0.053044   -0.053168    0.041676
0.11671     0.21512    0.026085   -0.021337     0.06961   -0.044723    0.032906
0.10469     0.11378   0.0085458   -0.028157     0.11281   -0.035953    0.027385
0.089748   -0.027183   -0.013216   -0.029457      0.1768   -0.028807    0.025436
0.071558    -0.17497   -0.034329   -0.031081      0.2463    -0.02361    0.028359
0.062789    -0.27144    -0.04992   -0.046347     0.30672    -0.01549    0.033881
0.082602    -0.27761   -0.056091   -0.091495     0.34375  -0.0031473    0.041351
0.13327    -0.20323   -0.052193     -0.1649     0.35447    0.010495    0.048172
0.19953    -0.09117   -0.044073    -0.24773     0.33952    0.019264    0.053044
0.26742    0.018615   -0.044073    -0.31269     0.30997    0.019914    0.050121
0.33335     0.10112   -0.052518    -0.34549     0.27716    0.011144    0.038428
0.39669     0.13067    -0.06551    -0.34355     0.24825  -0.0028225    0.022512
0.44476    0.073182   -0.068109    -0.30554     0.21935    -0.01484   0.0062721
0.45483   -0.083375   -0.051544    -0.20713     0.18784   -0.015815  -0.0028225
0.41553    -0.29093   -0.020687   -0.017439     0.14529  -0.0089938  -0.0024977
0.32978    -0.46892    0.018615     0.24468    0.090397 -0.00087364   0.0065969
0.21772     -0.5459    0.056292      0.5081    0.027385   0.0033489     0.01894
0.10242    -0.49945      0.0852     0.69097   -0.034004   0.0036737    0.030308
-0.0047713    -0.35654     0.10404     0.74716   -0.082076   0.0017248     0.03583
-0.10481      -0.174     0.11183      0.6848    -0.10286   0.0033489    0.033231
-0.19706  -0.0034721     0.10859     0.54968   -0.092145   0.0088706    0.023487
-0.27241     0.13262    0.099167     0.39539   -0.061613    0.017965    0.011794
-0.32633     0.22941    0.083576      0.2619    -0.03173    0.027385  0.00075039
-0.36823     0.27619    0.063438     0.16478   -0.021986    0.037778  -0.0073698
-0.42052     0.25897    0.041676     0.10631   -0.039526    0.044924   -0.015815
-0.49003     0.17647    0.020239    0.073832   -0.081426    0.045249   -0.024909
-0.56441    0.047847      0.0014    0.051096    -0.13957    0.038428   -0.037902
-0.61379   -0.090196    -0.01484    0.026085    -0.20225    0.030308    -0.04992
-0.61866    -0.20193   -0.026858  -0.0037969     -0.2474    0.021538   -0.059664
-0.56604    -0.26819   -0.033354   -0.034654    -0.25227    0.013743   -0.062587
-0.46567    -0.28833   -0.035628   -0.064211     -0.2068   0.0078962   -0.057715
-0.34517    -0.27631   -0.031406   -0.089221    -0.11715    0.003024   -0.046347
-0.23311    -0.25033   -0.021986    -0.11196   0.0049729  -0.0034721   -0.034654
-0.14216    -0.23051   -0.010943     -0.1308     0.14172  -0.0083442   -0.024909
-0.06551    -0.23246  -0.0021729    -0.13957     0.27326   -0.012892   -0.019712
0.0014    -0.25747   0.0036737    -0.13145     0.37493   -0.015815   -0.017764
0.058891    -0.30229   0.0065969    -0.11098     0.42787   -0.016789   -0.010618
0.10047    -0.34972   0.0075714   -0.086298     0.42722   -0.014516   0.0046481
0.11833    -0.38869   0.0033489   -0.062587     0.37136   -0.010293    0.016666
0.10729     -0.4176   -0.007045   -0.046996     0.27456   -0.007045    0.019914
0.070584    -0.42865   -0.022311   -0.046671      0.1625  -0.0050961    0.012768
0.023162    -0.38025     -0.0405   -0.063237    0.055968  -0.0080194  -0.0021729
-0.0093186    -0.22597   -0.058365   -0.088247   -0.030756   -0.013866   -0.021337
-0.0021729    0.042326   -0.072006    -0.11001   -0.088572   -0.018413   -0.035953
0.055968     0.36356    -0.07428    -0.11943    -0.11586   -0.022636   -0.036927
0.15438     0.63737   -0.060963    -0.11261    -0.11488   -0.027508    -0.02426
0.27196     0.77444   -0.036602   -0.092145   -0.089871   -0.028807   -0.008669
0.38662     0.74911  -0.0083442   -0.064861   -0.053168   -0.025234  0.00042559
0.47237     0.59775     0.01829   -0.038876    -0.02361    -0.01549   0.0020496
0.49803     0.39247     0.03518   -0.020687   -0.028157   -0.007045  -0.0024977
0.45321     0.20083    0.036804    -0.01549   -0.080127  -0.0015233   -0.010293
0.34732    0.057592    0.021863   -0.023285    -0.16523   0.0043233   -0.019388
0.207   -0.033679  -0.0037969   -0.037577    -0.24286    0.009845   -0.027508
0.053694    -0.09117   -0.030431   -0.053168    -0.26592   0.0095202   -0.035628
-0.088896     -0.1334   -0.054467    -0.06681    -0.20355   0.0020496   -0.042774
-0.212     -0.1649   -0.070058   -0.075904   -0.055116  -0.0093186   -0.050894
-0.31983    -0.18309   -0.081426    -0.07428     0.15276   -0.015815   -0.057715
-0.41695    -0.18504   -0.088247   -0.058689     0.38045    -0.01549   -0.060313
-0.49263    -0.17562   -0.088896    -0.03173     0.58053  -0.0093186   -0.055116
-0.53486    -0.16035   -0.081426  -0.0011985     0.71273  0.00042559   -0.045697
-0.53616    -0.14606   -0.069408    0.023812     0.74976   0.0065969   -0.034329
-0.49426     -0.1295   -0.057715     0.03583     0.68642   0.0049729    -0.02361
-0.415    -0.10384   -0.047646    0.033231     0.53928  -0.0011985   -0.014516
-0.31334    -0.06551   -0.035953     0.01764      0.3366   -0.007045  -0.0047713
-0.20031   -0.019063   -0.019712  -0.0024977     0.11216   -0.011592   0.0026992
-0.089546    0.025111 -0.00054884   -0.020362   -0.095393    -0.01484   0.0052977
0.0039985    0.054993    0.019914   -0.032705    -0.24286   -0.014191   0.0056225
0.063438     0.05207    0.035505   -0.038227    -0.29612  -0.0089938   0.0062721
0.072858   0.0046481    0.040377   -0.035628    -0.25033  0.00010078    0.008221
0.032582   -0.085648     0.03453   -0.025884    -0.13827   0.0062721   0.0052977
-0.038551    -0.19478    0.024137   -0.012567   -0.012242   0.0065969  -0.0041217
-0.10546    -0.29385    0.016666   0.0017248    0.076431    0.003024   -0.012892
-0.14087    -0.36109    0.010495    0.012443    0.090397  -0.0028225    -0.01614
-0.14346    -0.39097  -0.0044465    0.016016    0.016016  -0.0083442   -0.011917
-0.1282    -0.39032   -0.030431    0.010819    -0.13437   -0.012242  -0.0037969
-0.10676    -0.35654   -0.063886   0.0017248    -0.32438   -0.011592   0.0033489
-0.084674    -0.27988   -0.092469  -0.0099683      -0.504  -0.0083442   0.0052977
-0.059339    -0.16328    -0.10481   -0.022636     -0.6258  -0.0034721   0.0010752
-0.026533   -0.019712   -0.095068   -0.030756      -0.669    0.003024  -0.0047713
0.016016     0.11963   -0.067459   -0.028157    -0.65309    0.011144  -0.0076946
0.057917     0.22129   -0.034654   -0.018413    -0.63392    0.020888  -0.0037969
0.08585     0.26514  -0.0093186  -0.0060706     -0.6781     0.02641   0.0023744
0.091696     0.25183 -0.00022403   0.0010752    -0.82621    0.023487    0.012119
0.083576     0.19823  -0.0057458    0.003024     -1.0588    0.011144    0.023812
0.075131     0.13067   -0.017114      0.0014     -1.2965  -0.0063954    0.033231
0.074157    0.071558   -0.025234  -0.0024977     -1.4385   -0.022961    0.032582
0.087474    0.037129   -0.021012  -0.0050961     -1.4177    -0.03173    0.024786
0.11346    0.032582  0.00075039  -0.0011985     -1.2342   -0.031081    0.016341
0.13879    0.050446     0.03453   0.0085458    -0.93957   -0.022961    0.010819
0.15244    0.074157    0.067986     0.01764    -0.61249    -0.01484    0.009845
0.14821    0.089098    0.091047    0.024461    -0.31626   -0.012567    0.012443
0.13067    0.090072     0.09397    0.021538   -0.087272    -0.01614    0.017316
0.10924    0.078704    0.080653   0.0062721    0.074482   -0.023935    0.022837
0.092021    0.064413    0.059541   -0.012892     0.19369   -0.031081    0.029658
0.083576    0.054019    0.041351   -0.027508     0.28821   -0.037577    0.032906
0.080978    0.049147    0.029658    -0.03173     0.35804   -0.039851     0.03453
0.082277     0.05207    0.027709   -0.027833     0.38695   -0.037577    0.034855
0.0865    0.057267    0.028034   -0.020687     0.36583   -0.031406    0.036154
0.092021    0.066037    0.019589   -0.013541     0.30022   -0.024585    0.039402
0.095269    0.073507   0.0062721   -0.007045     0.20993   -0.018088    0.045574
0.092996     0.07708  -0.0047713 -0.00022403     0.12548   -0.010943    0.048172
0.089098    0.072858  -0.0096434    0.008221    0.075456  -0.0024977    0.042001
0.084551    0.057592   -0.007045    0.017965    0.067986   0.0062721    0.030308
0.081627    0.032906  -0.0024977    0.027385    0.092996    0.012443    0.020239
0.078704   0.0052977  -0.0021729    0.037778      0.1349    0.017316    0.017965
0.078704   -0.016789  -0.0073698    0.049472     0.17485    0.021538    0.023162
0.084551   -0.025559  -0.0096434    0.060515     0.19953    0.022188    0.031932
0.097543   -0.021661  -0.0041217    0.071883     0.19791     0.01764    0.038753
0.10956   -0.011267   0.0065969    0.081627     0.17095    0.009845    0.041027
0.11183  -0.0041217    0.015692    0.091047     0.13327   0.0023744    0.036804
0.10339  -0.0050961    0.016016    0.097868     0.10014  -0.0018481     0.02641
0.092996   -0.015815   0.0095202    0.094945    0.084226  -0.0037969    0.015692
0.09462   -0.021986   0.0010752    0.083901      0.0865  -0.0054209   0.0088706
0.1258  0.00075039  -0.0063954     0.06961     0.10469  -0.0047713    0.008221
0.19531    0.065387  -0.0083442    0.054668      0.1323  0.00010078    0.012768
0.28918      0.1638  -0.0057458    0.042326     0.16283   0.0036737     0.01764
0.37298     0.27229   0.0046481    0.039402     0.19434   0.0069217    0.019914
0.41456     0.36324    0.016666    0.047523     0.22747   0.0095202    0.019589
0.40254      0.4165    0.026735    0.064088     0.26709    0.011469    0.016991
0.33887     0.42625    0.034206    0.087149     0.31127    0.012119    0.011794
0.24695     0.38954    0.036479     0.10631     0.35252   0.0085458   0.0085458
0.14432     0.27944     0.03583     0.11054     0.38337 -0.00087364    0.009845
0.037454    0.050771    0.031932    0.089098     0.40611   -0.012567    0.015367
-0.078503    -0.30749    0.024137    0.047198     0.43339   -0.024909    0.020239
-0.20323     -0.7619   0.0095202   0.0036737     0.47399    -0.03238    0.021538
-0.32568     -1.2309  -0.0096434   -0.023935     0.52402    -0.03303    0.019914
-0.42605     -1.5996    -0.03238   -0.034329     0.57176   -0.031406     0.01894
-0.47509     -1.7662   -0.059989   -0.035628     0.60164   -0.027833     0.01764
-0.45203     -1.6668   -0.092794   -0.035628      0.5971   -0.022636    0.014068
-0.35296     -1.2803    -0.13275   -0.036927      0.5552   -0.020037   0.0075714
-0.2055    -0.65244     -0.1753   -0.037577     0.47919   -0.025559 -0.00054884
-0.046671     0.09397    -0.20355   -0.037252     0.38532   -0.039526  -0.0031473
0.091372     0.80985    -0.19998   -0.036927     0.28301   -0.055441 -0.00054884
0.18979      1.3887    -0.16003   -0.038876     0.17582    -0.06681   0.0059473
0.24078      1.7664   -0.096367   -0.044398    0.055968   -0.070707    0.010819
0.24143       1.907   -0.026533   -0.051868     -0.0837   -0.068109     0.01017
0.19239      1.8148    0.028359   -0.059989    -0.23409   -0.060963  0.00075039
0.10956      1.5407    0.057917    -0.06681    -0.37083   -0.055116   -0.012242
0.016991      1.1675    0.064737   -0.071682    -0.46502   -0.055441   -0.024585
-0.054792     0.78549     0.06019   -0.072331     -0.4975   -0.059989   -0.033679
-0.093769     0.46458    0.054668   -0.061613    -0.46762   -0.065835   -0.038227
-0.10546     0.23526    0.052395   -0.038551    -0.39324   -0.071357   -0.036278
-0.10286     0.09397    0.051096  -0.0080194    -0.30457   -0.076229   -0.033354
-0.098641    0.017316    0.046873    0.022188    -0.22239   -0.075579   -0.031406
-0.09994   -0.022311    0.039402    0.044924    -0.15581   -0.069733    -0.03303
-0.10741   -0.043748     0.02641    0.055643    -0.10644   -0.062587   -0.036927
-0.11813   -0.064211    0.011144    0.055318   -0.072006   -0.054467   -0.042774
-0.12885   -0.094093 -0.00087364    0.046548    -0.04862   -0.045372   -0.050244
-0.13664    -0.13145  -0.0099683    0.036804   -0.034329   -0.037252   -0.056416
-0.13794     -0.1662   -0.015165    0.032906   -0.036602    -0.03173   -0.059339
-0.13112    -0.18601   -0.016464    0.036479   -0.056416   -0.029457   -0.054792
-0.11618    -0.18829  -0.0093186    0.042651   -0.068758   -0.029132   -0.044073
-0.095717    -0.17692   0.0036737    0.045249   -0.037577   -0.029132   -0.029782
-0.075579    -0.15678    0.014392    0.042975    0.054019   -0.026533   -0.016789
-0.057065    -0.13567    0.015367    0.037454     0.18654   -0.023935  -0.0083442
-0.039851     -0.1191    0.012119    0.030957     0.31289   -0.022961  -0.0037969
-0.019712    -0.10903   0.0095202     0.02706     0.38922   -0.021661 -0.00087364
0.0062721    -0.10221   0.0078962     0.02641     0.39539   -0.017114   0.0056225
0.034855   -0.093119   0.0062721    0.030308      0.3405  -0.0037969    0.016341
0.054993   -0.079477   0.0043233    0.034206     0.24371    0.016341    0.029983
0.057267   -0.066485   0.0017248    0.032257     0.13392    0.033881    0.040702
0.03583    -0.06616  -0.0024977    0.024786    0.036479    0.038428    0.043625
-0.0044465   -0.084024   -0.011267   0.0078962   -0.042449    0.032257    0.032257
-0.052843    -0.11586   -0.021012   -0.013541    -0.10676    0.023162    0.012443
-0.095717    -0.14801   -0.029457   -0.035953    -0.15321    0.014068  -0.0034721
-0.11813    -0.17172   -0.031081   -0.058689    -0.17984   0.0039985   -0.013216
-0.11715    -0.18147   -0.026533   -0.078178    -0.19543  -0.0015233   -0.017114
-0.09994    -0.17854   -0.021986   -0.095068    -0.20843  -0.0028225    -0.01549
-0.063886    -0.16653   -0.020037    -0.10676    -0.21979  0.00042559   -0.010618
-0.0028225    -0.14996   -0.017764    -0.11163    -0.21979   0.0072465  -0.0041217
0.088773    -0.12398  -0.0089938    -0.10838    -0.19836    0.017316 -0.00054884
0.19726   -0.087922   0.0075714   -0.092469    -0.15581    0.029009  -0.0018481
0.29275    -0.04115    0.032257   -0.060313   -0.097666    0.041676  -0.0018481
0.35154   0.0052977     0.06084   -0.015165   -0.035953     0.05207   0.0043233
0.36778    0.030957    0.090397    0.028034    0.012119    0.057592    0.015367
0.3457    0.015692     0.12255    0.054668    0.026085    0.055318    0.022188
0.30022   -0.036602     0.17225    0.059541  -0.0018481     0.04395    0.020888
0.24306    -0.10449     0.24436    0.045899   -0.055116    0.027709    0.014717
0.17517      -0.161     0.33563    0.024137   -0.098965    0.011794   0.0065969
0.098193    -0.18536      0.4282   0.0043233    -0.10903  -0.0011985  -0.0031473
0.017965    -0.17205     0.50323  -0.0080194     -0.0837   -0.013541   -0.014191
-0.059989    -0.12527      0.5552  -0.0083442   -0.048945   -0.025884   -0.022636
-0.14606   -0.058365      0.5984   0.0039985   -0.045047   -0.035628   -0.028157
-0.25195  -0.0024977     0.65654    0.026085   -0.098965   -0.041475   -0.032705
-0.3796   0.0069217     0.77184    0.050771    -0.21135    -0.04115   -0.038551
-0.51017   -0.061613      0.9245     0.06831    -0.36141   -0.036602   -0.044398
-0.61443    -0.19641      0.8943    0.067336    -0.51894   -0.034329    -0.04927
-0.67875    -0.34322     0.42105      0.0433    -0.64627   -0.038551   -0.055766
-0.69921    -0.42929    -0.48354   0.0072465    -0.70506   -0.043748   -0.062262
-0.6781    -0.40721     -1.4813   -0.030756    -0.66738   -0.043423   -0.065835
-0.61541    -0.27534     -2.1972   -0.061937    -0.52511   -0.037902    -0.06616
-0.51277   -0.097666     -2.4145   -0.081101    -0.30035    -0.03303    -0.06681
-0.36531    0.024461      -2.142   -0.087597   -0.041799   -0.038876   -0.072006
-0.18504    0.037778      -1.558   -0.085648     0.19466   -0.057065   -0.087272
0.0036737   -0.025234    -0.89734   -0.079802     0.36259   -0.079152    -0.10449
0.17582   -0.086623    -0.34744    -0.06681     0.44379   -0.095393    -0.11423
0.32101   -0.092145   0.0023744   -0.045372     0.43697    -0.10189    -0.11163
0.42365   -0.036278     0.15828   -0.019063     0.36064   -0.095068    -0.10026
0.47367    0.037129     0.18687   0.0059473      0.2515   -0.081101    -0.08305
0.46523    0.084551     0.15926    0.022188     0.14529   -0.062912    -0.06616
0.40611    0.086175      0.1297    0.027385    0.066362   -0.046022   -0.051219
0.31679    0.042651     0.11313    0.023162    0.016991   -0.035953   -0.038551
0.21772   -0.046022     0.10274    0.017316  -0.0060706   -0.029457   -0.030431
0.1245      -0.174     0.08585    0.013093   -0.016464   -0.021012   -0.027183
0.033231    -0.31171    0.058891    0.011144   -0.029457  -0.0096434   -0.025559
-0.064211    -0.40461     0.02641   0.0059473   -0.059014      0.0014   -0.024585
-0.16912    -0.40104  0.00042559  -0.0089938    -0.11618   0.0059473   -0.020687
-0.26332    -0.29125  -0.0073698   -0.038227    -0.20225   0.0049729   -0.014516
-0.32341    -0.14152   0.0056225   -0.074605    -0.31139   0.0010752  -0.0083442
-0.33413    -0.03238    0.033556    -0.10319    -0.42215  -0.0024977   0.0010752
-0.29905   0.0023744    0.064737    -0.11293    -0.49978  -0.0021729    0.015367
-0.22889   -0.013216    0.092346    -0.10254    -0.51764   0.0023744    0.028684
-0.14671   -0.037577     0.11736   -0.072006    -0.46502    0.010819     0.03583
-0.079477     -0.0405     0.13912   -0.031406    -0.36109    0.019914    0.035505
-0.042124   -0.017439     0.15828   0.0065969    -0.24123     0.02641    0.027385
-0.037902    0.016666     0.17322    0.032906    -0.13729    0.028359    0.013418
-0.060313    0.043625     0.18654    0.041351   -0.063886    0.025111 -0.00087364
-0.095393    0.055968     0.19791    0.035505   -0.013541     0.01829  -0.0083442
-0.12398    0.055318     0.20278    0.023487    0.021863   0.0069217  -0.0057458
-0.1256    0.050771     0.19953    0.012119    0.053044  -0.0050961   0.0056225
-0.093769    0.048822     0.19239   0.0052977    0.084226   -0.013541    0.016666
-0.043099    0.055643     0.18329   0.0039985     0.11671   -0.013866    0.026735
0.010819    0.071558     0.17355   0.0078962     0.15081  -0.0080194     0.03518
0.055318    0.087474     0.16218    0.014392     0.18427   0.0033489      0.0433
0.083901    0.098193     0.14919    0.023812     0.21642    0.016991    0.050446
0.096569     0.10112     0.13717    0.036479     0.24208    0.028684    0.057917
0.10242    0.096569     0.12548    0.050771     0.25183    0.036804    0.061489
0.10631    0.085525     0.11378    0.061489     0.23851    0.040052    0.056292
0.10696    0.066686    0.099492    0.062464     0.20668    0.036154    0.038428
0.10112    0.049147    0.083251    0.049796     0.16835    0.024786    0.014068
0.092671    0.046873    0.067336    0.029658     0.13587    0.012768  -0.0063954
0.093645    0.079354    0.054344    0.013743     0.11476   0.0020496   -0.017439
0.11086     0.14984    0.051745    0.008221     0.10859  -0.0034721   -0.016789
0.13977     0.24566    0.061814    0.016341     0.11476  -0.0041217  -0.0076946
0.17225     0.34732    0.081952    0.031282     0.12743  -0.0018481   0.0033489
0.20473     0.43177     0.11216    0.046223     0.13977   0.0023744    0.012768
0.22974     0.47399     0.14529    0.061165     0.14561   0.0091954    0.020239
0.23754     0.43957     0.17517    0.078055     0.14594    0.017965    0.028034
0.22032      0.3051     0.19271    0.090722     0.14561    0.025436    0.030957
0.17939    0.091696     0.19499    0.095594     0.14237    0.027385    0.029009
0.12613     -0.1321     0.18459    0.089748     0.12872     0.02641    0.024786
0.076755    -0.30457     0.16348    0.071234    0.099492    0.020239    0.023487
0.041676    -0.40916      0.1349    0.041351    0.049147   0.0088706    0.025436
0.026085    -0.44359    0.093645   0.0056225   -0.013541  -0.0080194    0.029333
0.029333    -0.38285    0.042975   -0.028482   -0.075255   -0.025884    0.029983
0.047523    -0.21785  -0.0076946   -0.057715    -0.12235     -0.0405     0.02706
0.072533    0.015367    -0.04115   -0.077203    -0.13729   -0.050569    0.022188
0.097218     0.24988   -0.047646   -0.081101    -0.10903   -0.052518    0.021213
0.11671     0.42625   -0.029132   -0.064211   -0.039851   -0.045697    0.023487
0.13002      0.5094   0.0052977   -0.030431     0.05272   -0.031081     0.02641
0.14367     0.49901    0.040702    0.010819     0.14854    -0.01614    0.030633
0.15991     0.42105    0.062789    0.045249     0.23494  0.00075039    0.038428
0.17257     0.31354     0.06831    0.065062     0.31289    0.016016    0.047523
0.17874      0.2122    0.063438    0.069285      0.3824    0.023487    0.054344
0.17647     0.13457    0.053369    0.062789     0.43112    0.017965    0.055643
0.16998    0.083251    0.041027    0.049796     0.43599  0.00075039    0.050121
0.15633    0.048172    0.029009    0.029333     0.37623   -0.019063    0.039078
0.12353    0.021213     0.01829  -0.0021729     0.25378   -0.029457    0.026085
0.068635   0.0072465   0.0078962   -0.034978    0.096244   -0.028157    0.019589
0.0052977    0.015692  -0.0021729   -0.057715   -0.056091   -0.019388    0.024461
-0.040825    0.050446   -0.013541   -0.062912    -0.16718  -0.0080194    0.038103
-0.047646     0.10371   -0.021012   -0.060963    -0.21655    0.003024    0.049147
-0.0076946     0.15861   -0.023935   -0.059014     -0.2016   0.0078962    0.051096
0.06019     0.20213   -0.022961   -0.061613    -0.13534   0.0043233    0.043625
0.12418     0.22357   -0.021986    -0.06551   -0.045372  -0.0047713    0.031932
0.16023     0.21642   -0.021661   -0.057715    0.038753   -0.010618     0.01894
0.15861     0.18459   -0.013866   -0.032055    0.092996   -0.007045    0.010819
0.12483     0.13717  -0.0028225   0.0069217     0.10729  -0.0021729     0.01017
0.06831      0.0852  -0.0021729     0.05207      0.0865   0.0010752    0.013743
0.0091954    0.031932    -0.01549    0.090072      0.0433  0.00010078     0.01829
-0.04992   -0.020037   -0.036278     0.11248  -0.0041217  -0.0037969    0.020239
-0.11228   -0.071682   -0.056741     0.11346   -0.046347   -0.008669    0.016991
-0.17757    -0.13664   -0.072331    0.096893     -0.0837   -0.014191     0.01017
-0.23961    -0.26072   -0.078178     0.06961    -0.11975   -0.021337      0.0014
-0.28313    -0.47737   -0.076229    0.045899    -0.15288   -0.031406  -0.0054209
-0.28703    -0.75703   -0.067784    0.034855    -0.17659   -0.040175  -0.0063954
-0.25     -1.0458   -0.050894    0.037129    -0.18504   -0.043423 -0.00054884
-0.18959     -1.2881   -0.029457    0.047847    -0.17367   -0.035303     0.01017
-0.12722     -1.4284  -0.0099683    0.056617    -0.14704   -0.019388    0.023812
-0.078827     -1.4102  -0.0060706    0.056942    -0.11423   -0.007045    0.037454
-0.047646     -1.1806   -0.023285    0.046873   -0.081426  -0.0028225    0.048822
-0.024585    -0.72552   -0.059339     0.02706   -0.054792   -0.011267    0.053044
0.0010752    -0.10026    -0.10806   0.0020496   -0.041799   -0.024909    0.049796
0.035505     0.56657    -0.15061   -0.021012   -0.042124   -0.036927    0.041351
0.074482      1.1327    -0.16847    -0.03303   -0.048945   -0.045372    0.032257
0.10859      1.5221    -0.15288   -0.029132   -0.056741    -0.04862    0.028359
0.12872      1.7131    -0.11098   -0.010943   -0.063886   -0.044073    0.028034
0.14496      1.7109   -0.059989   0.0091954   -0.067784   -0.034004    0.028684
0.17615      1.5423   -0.011917    0.023812   -0.063237   -0.022961    0.028684
0.23234      1.2665    0.023812    0.032582   -0.047646   -0.013866     0.02641
0.3025     0.95244    0.042326    0.038103   -0.035628  -0.0073698    0.023812
0.36161     0.66336    0.046548    0.041676   -0.042124  -0.0031473    0.023487
0.3824     0.43762    0.039727     0.04395    -0.06616 -0.00087364     0.02706
0.35284     0.28431    0.028359     0.04395    -0.09182  -0.0015233    0.033231
0.27749     0.18719    0.012443    0.040052    -0.10026  -0.0063954    0.036804
0.17745      0.1258  -0.0099683    0.030633   -0.077528   -0.014191    0.029983
0.076106    0.074157   -0.035953    0.020888   -0.015165   -0.024585    0.015042
-0.018413   0.0091954   -0.058365     0.01829    0.080978    -0.03303  -0.0021729
-0.11423   -0.082725   -0.072331    0.017965     0.19141   -0.036602   -0.016464
-0.22954    -0.20713   -0.080776   0.0095202      0.2934   -0.033679   -0.028807
-0.37245    -0.35914   -0.084999   -0.015815     0.37818   -0.029132    -0.04115
-0.52934    -0.51992   -0.085973    -0.04992     0.44769   -0.026858   -0.053492
-0.66543    -0.66186   -0.081426   -0.077203      0.5094   -0.026533   -0.063561
-0.73916    -0.75962   -0.076229   -0.086623     0.56949   -0.023935   -0.066485
-0.72195    -0.79665   -0.072981   -0.079802     0.63153   -0.019063   -0.058365
-0.61736    -0.76352   -0.071032   -0.062912     0.68609   -0.013541   -0.044398
-0.45983    -0.66965   -0.072006    -0.04115     0.70688  -0.0041217   -0.029457
-0.2971    -0.53161   -0.070707   -0.021661     0.65881   0.0043233   -0.020362
-0.16718    -0.35654   -0.058365  -0.0076946     0.50972   0.0046481   -0.019712
-0.081101    -0.13762   -0.033679  -0.0034721     0.23981  -0.0044465   -0.026209
-0.03238     0.10501  -0.0076946  -0.0096434    -0.14704   -0.020037   -0.035953
-0.0073698     0.31841   0.0043233   -0.020037    -0.61411   -0.036278   -0.045047
0.0052977     0.45158  0.00010078   -0.029457     -1.0854    -0.04992   -0.054142
0.013418     0.47919    -0.01549   -0.034329     -1.4502    -0.05739   -0.062912
0.01894     0.41261   -0.034004   -0.030756      -1.609   -0.056741   -0.072331
0.026085     0.28658   -0.046022   -0.018088     -1.5278   -0.046347   -0.079477
0.034206     0.14821    -0.04862      0.0014     -1.2524   -0.030756   -0.085324
0.045249    0.032582   -0.041475    0.024461    -0.88208    -0.01549   -0.087597
0.06831   -0.039851   -0.026858    0.048822    -0.51667  -0.0015233   -0.084674
0.11736   -0.068758   -0.007045    0.070259    -0.21979   0.0091954   -0.076879
0.19401    -0.06681    0.013418    0.088773   -0.014191     0.01829   -0.062912
0.27814   -0.053817    0.028034    0.099492     0.10761    0.020888    -0.04862
0.34017   -0.046022    0.030957     0.10079     0.15991    0.013743    -0.04115
0.36064   -0.050894    0.021213    0.089098     0.15633   0.0046481   -0.040825
0.34342   -0.064861    0.008221    0.064088     0.11183  0.00010078   -0.045372
0.31484   -0.075904  0.00042559    0.033881      0.0433 -0.00087364   -0.050244
0.31094   -0.073631      0.0014   0.0078962   -0.028807      0.0014   -0.052193
0.34212   -0.059014   0.0033489  -0.0041217    -0.10124   0.0043233    -0.04862
0.3837   -0.042449   0.0033489  -0.0021729    -0.17789   0.0072465   -0.043748
0.39344   -0.037577  -0.0034721   0.0043233    -0.26494    0.010819   -0.039526
0.34212   -0.050894   -0.017439   0.0095202    -0.36368   0.0085458   -0.034004
0.22877   -0.084674   -0.033354   0.0059473    -0.46502  -0.0018481   -0.026209
0.080328    -0.12657   -0.046996   -0.010293    -0.54947   -0.018088   -0.020687
-0.067134      -0.161    -0.05739   -0.029782     -0.5943   -0.032055   -0.021986
-0.18634    -0.17562   -0.062912    -0.04115    -0.57806     -0.0405   -0.027183
-0.27014     -0.1727   -0.066485   -0.038876    -0.50335   -0.042124   -0.031406
-0.3351    -0.16718   -0.069733   -0.026858    -0.39129   -0.040175   -0.033354
-0.41305    -0.17562   -0.069733   -0.012892    -0.27079   -0.035628   -0.029782
-0.51927    -0.20745   -0.064861  -0.0063954     -0.1623   -0.029782    -0.02361
-0.64464    -0.25033   -0.051868  -0.0093186   -0.080127   -0.020362   -0.021661
-0.75573    -0.28313   -0.034654   -0.017439   -0.022636  -0.0073698   -0.022636
-0.8064     -0.2893   -0.018413   -0.021661     0.01829   0.0049729   -0.023285
-0.76969    -0.26007  0.00075039   -0.018738    0.051096    0.012119   -0.019388
-0.64951     -0.2068    0.020239   -0.011592    0.082602    0.010495   -0.008669
-0.47737    -0.14801    0.034206  -0.0073698     0.11443    0.003024   0.0065969
-0.29775    -0.10351    0.039727  -0.0073698     0.14204  -0.0050961    0.024137
-0.15418    -0.11131    0.034206  -0.0096434     0.16283   -0.008669    0.042326
-0.070058    -0.21849    0.021538  -0.0089938     0.17972  -0.0067202    0.051745
-0.042774    -0.44164   0.0088706  -0.0057458     0.19531   -0.007045    0.048822
-0.051219    -0.74793  0.00075039  -0.0041217     0.20895   -0.016789    0.039078
-0.064211      -1.063  -0.0015233  -0.0021729     0.22259   -0.033679     0.02641
-0.054142     -1.2923  0.00010078  -0.0011985     0.23559   -0.053168    0.015367
-0.014516     -1.3501 -0.00054884  -0.0041217     0.25053   -0.068109    0.009845
0.044275     -1.1854   -0.007045   -0.010943     0.27229    -0.07493   0.0095202
0.10891    -0.79698   -0.019388   -0.022311     0.30802   -0.073631   0.0062721
0.169     -0.2578   -0.033679   -0.036278     0.35154   -0.063886  -0.0011985
0.21902     0.31711   -0.045697   -0.043423     0.39247   -0.054142   -0.010293
0.25572     0.83843   -0.047321   -0.037577      0.4191   -0.048945   -0.014191
