-0.034654    0.057592     0.16673     0.13652     0.73871     0.39117     0.12775
0.021863    0.074806     0.18394     0.16835     0.63965     0.41845     0.14496
0.083576    0.093645     0.20051     0.20343     0.26872     0.44963      0.1664
0.13749     0.11118     0.21447     0.23331    -0.32731     0.48406     0.19239
0.18134      0.1258     0.22552     0.25897      -1.023     0.52044     0.22097
0.21805     0.13814     0.23689     0.28398     -1.6668     0.55747      0.2489
0.2515     0.15081     0.25313     0.31484     -2.0982      0.5906     0.27781
0.28138     0.16478     0.27391     0.35089     -2.1943     0.61659     0.30477
0.3051     0.18134      0.2947     0.38922     -1.9403     0.63283     0.32621
0.31809     0.19693     0.31094      0.4243     -1.4407     0.63932     0.33952
0.31322     0.20603     0.31939     0.44021     -0.8496     0.63932     0.34472
0.28853      0.2044     0.31354     0.42625    -0.26592     0.63542     0.33887
0.24695     0.18979     0.28723     0.37201     0.31386     0.61464     0.31744
0.18459      0.1625     0.23851     0.28171     0.91736     0.56039     0.27164
0.10501     0.12548     0.17095     0.15991      1.4819     0.46165     0.20018
0.014068    0.083251    0.096244     0.01894      1.8346     0.32101     0.11248
-0.075579    0.041027    0.025111    -0.12105      1.8681     0.15406    0.026085
-0.15386      0.0014   -0.038227    -0.22629      1.6872   -0.013541   -0.046671
-0.2068   -0.029132   -0.091495    -0.27111      1.5813    -0.15191   -0.097666
-0.23311   -0.045697    -0.13372    -0.25715      1.7878    -0.23474    -0.12073
-0.23279    -0.04862    -0.15841    -0.20355      2.3394    -0.24123    -0.11423
-0.2068   -0.039526    -0.16003     -0.1321      3.1176    -0.17042   -0.077203
-0.16133   -0.025234    -0.14509   -0.063886      3.9706   -0.052518   -0.025234
-0.11293   -0.012242    -0.12365   -0.027508      4.7287    0.054668    0.016341
-0.077528  -0.0024977    -0.10254   -0.064861      4.9589    0.097218    0.028034
-0.063886   0.0043233   -0.085648    -0.18504      4.8924    0.051745   0.0043233
-0.067784   0.0085458    -0.07428    -0.32795      3.9368   -0.055116   -0.039851
-0.078827   0.0056225    -0.06681     -0.4189      2.2393    -0.17465   -0.089546
-0.088572  -0.0015233    -0.06551    -0.44489   0.0036737    -0.27274    -0.13567
-0.10644   -0.010943   -0.078178    -0.44911     -2.1566    -0.34257    -0.18374
-0.14314   -0.020687    -0.10286     -0.4699     -3.6488    -0.39357    -0.23668
-0.2029   -0.031081    -0.13047    -0.51277     -4.2286    -0.42994    -0.28963
-0.27111   -0.043748    -0.14769    -0.57189     -3.9421    -0.43904    -0.33283
-0.32893   -0.060963    -0.14736    -0.63847     -3.1044    -0.41208    -0.35459
-0.36433   -0.086298    -0.12755    -0.71253     -2.1612    -0.35849    -0.35167
-0.3718    -0.12657   -0.092794    -0.79438     -1.4417    -0.30262    -0.32925
-0.35134    -0.18504   -0.059014    -0.87168     -1.0088    -0.26884     -0.2945
-0.30879    -0.25227   -0.046671    -0.90936    -0.66868    -0.25877    -0.25487
-0.25325    -0.30717   -0.062587    -0.87558    -0.12755    -0.25747    -0.21622
-0.19154    -0.33153   -0.095068     -0.7645     0.78678     -0.2539    -0.18536
-0.12755    -0.32048    -0.12982    -0.60079      1.9067    -0.24188    -0.16653
-0.067784    -0.28313    -0.15873     -0.4189      2.8379    -0.22402    -0.15386
-0.018738    -0.23051    -0.18212    -0.23766      3.2137    -0.19738    -0.13892
0.016016    -0.17042    -0.19998   -0.067784      2.8756    -0.15808     -0.1178
0.044275    -0.10936     -0.2055    0.095919      1.8606    -0.09994   -0.089546
0.066037   -0.055116    -0.18959     0.26742     0.33043   -0.031081   -0.053492
0.075131   -0.012567    -0.14866     0.44898     -1.3443    0.021538   -0.018738
0.067011    0.017965   -0.087597     0.63315     -2.7062    0.031607   0.0036737
0.042651    0.036804   -0.017764      0.8079      -3.451  -0.0050961    0.014068
0.011469    0.042001    0.046223     0.96283     -3.4156   -0.071682    0.016341
-0.010618    0.040702    0.097218      1.0827     -2.6279    -0.13859     0.01894
-0.017439    0.036479     0.12743      1.1454     -1.2939    -0.17594    0.023812
-0.0060706     0.03583     0.13944      1.1386     0.20603     -0.1623     0.03518
0.019264    0.040702     0.13814      1.0671      1.3133    -0.10319    0.052395
0.047847    0.050121     0.13035     0.94691        1.58   -0.029782    0.074482
0.068635    0.058566     0.11606      0.7949     0.85954    0.012768    0.095594
0.076106    0.061165    0.096244     0.63088    -0.55435    0.008221     0.11054
0.072858    0.057267    0.071883     0.47659     -2.0157   -0.039201     0.11606
0.067661    0.054019    0.050771     0.35089      -2.993    -0.10579     0.11606
0.065712    0.053694    0.039402     0.25832     -3.2528    -0.16035     0.11411
0.06961    0.054993    0.041027     0.19726     -2.8731    -0.18309     0.11118
0.078704    0.056292    0.049472     0.16218     -2.1128    -0.16685     0.11183
0.091696    0.054019    0.061165     0.14042     -1.2592      -0.123     0.11248
0.10989    0.051096    0.069934     0.12775    -0.53518   -0.071032     0.11281
0.13067    0.050771    0.074806     0.11866   -0.057065   -0.024585     0.11313
0.14854    0.053694    0.073832     0.10501     0.16705    0.010819     0.11281
0.15958    0.057267    0.066362    0.080653     0.19563    0.033556     0.11216
0.15861     0.06084    0.054668    0.042326     0.11151    0.047198     0.10761
0.14626    0.061165    0.040052  -0.0076946    -0.01549    0.054344    0.098842
0.12645    0.056617    0.025761   -0.063561    -0.13599    0.057267    0.083901
0.098517    0.044275    0.010495    -0.10774    -0.21297    0.057592    0.063763
0.061814    0.029009 -0.00022403     -0.1217    -0.22434    0.057267    0.041027
0.02706     0.01829  -0.0031473    -0.10026    -0.16912    0.058891    0.020239
0.0059473    0.016666 -0.00022403   -0.054792   -0.070382    0.064737   0.0091954
0.0046481     0.02706   0.0052977   -0.007045    0.028684    0.078704    0.011794
0.017965    0.046223    0.011794    0.026085    0.089098     0.10177    0.025761
0.036479    0.065387    0.016016    0.039727    0.089748      0.1271    0.042001
0.050121    0.076106     0.01829    0.037778    0.030308     0.14854    0.054993
0.057267    0.077405    0.018615     0.02641    -0.04992     0.15568    0.065387
0.062464    0.072858    0.019589    0.011794   -0.086623     0.14561    0.073832
0.067011    0.063763    0.025111  -0.0031473   -0.043748     0.11866    0.082277
0.073832    0.053044    0.034855   -0.010943    0.048497    0.087799    0.087799
0.080328    0.045249    0.045574   -0.010618     0.12645    0.064413    0.090072
0.0865    0.043625    0.055643  -0.0093186     0.14399     0.06084    0.088448
0.093645    0.047198    0.062139   -0.010293     0.06961    0.078055    0.086175
0.10079    0.054344    0.064413   -0.015815    -0.10514     0.09397    0.085525
0.10794    0.064413    0.061814   -0.027508     -0.3338    0.081627      0.0852
0.11216    0.067986    0.057267     -0.0405    -0.57124    0.029983    0.083576
0.11411    0.067011     0.05207   -0.046347    -0.81484   -0.041475     0.08585
0.11443    0.064413    0.048497   -0.035953      -1.036   -0.095068    0.096244
0.11216    0.063438     0.05142   -0.010293     -1.1695    -0.10644     0.11346
0.10696    0.063763    0.062464    0.019589     -1.1617   -0.070382     0.13035
0.099817    0.063113    0.073507    0.041351     -1.0006  0.00042559     0.14139
0.093321    0.058891    0.078055    0.048822    -0.68394    0.090397     0.14691
0.092346    0.053369    0.072858      0.0433    -0.17367     0.18394     0.14334
0.09397    0.047523    0.059541    0.031932     0.52791     0.27326     0.13197
0.093645    0.044275    0.043625     0.01894      1.3221     0.34472     0.11281
0.087799    0.042326    0.029333   0.0049729      2.0305     0.38013      0.0865
0.072858    0.036154     0.01764   -0.011592      2.4794     0.36973    0.051745
0.048822    0.025111   0.0075714   -0.034654      2.5635     0.32069    0.014392
0.022837    0.012443  -0.0015233   -0.064861      2.3088     0.24858   -0.018413
0.0026992   0.0052977   -0.008669   -0.092469       1.869     0.17517     -0.0405
-0.0073698   0.0046481   -0.010618    -0.10709       1.439     0.11086   -0.044723
-0.012242   0.0078962  -0.0080194    -0.10514      1.1038    0.055968   -0.035953
-0.017764    0.012119  -0.0060706   -0.090845     0.74748  -0.0050961   -0.021012
-0.026209    0.016341  -0.0054209   -0.071357     0.21707   -0.087922   -0.013866
-0.032055     0.01764  -0.0073698    -0.04862    -0.52122    -0.19543   -0.016789
-0.034654    0.013418   -0.011267   -0.025884     -1.3716    -0.31821   -0.031081
-0.034654   0.0049729   -0.014516  -0.0057458     -2.1764    -0.43514   -0.049595
-0.03238  -0.0080194   -0.016464    0.011794     -2.7731    -0.52122   -0.067459
-0.032705   -0.022636   -0.020362    0.021863     -3.0599    -0.57059   -0.085324
-0.040175   -0.035628   -0.027833    0.017316     -3.0732    -0.58845    -0.10189
-0.053492   -0.045047   -0.035628  -0.0018481     -3.0063    -0.57838    -0.11358
-0.062587   -0.047971   -0.035628   -0.020362     -3.0229    -0.53713    -0.11586
-0.060313   -0.042449   -0.021012   -0.024585     -3.0563    -0.45983    -0.10286
-0.046022   -0.030431   0.0049729   -0.015165     -2.8865    -0.35589   -0.074605
-0.026209   -0.019063    0.028684   -0.011917     -2.3466     -0.2487   -0.043099
-0.014191   -0.014191    0.032906   -0.037252     -1.3751    -0.16685   -0.024585
-0.018088   -0.019712   0.0095202    -0.10774   -0.022311     -0.1269    -0.03173
-0.040825   -0.036927   -0.038227    -0.22174      1.4994    -0.12885   -0.065835
-0.078178   -0.063561   -0.098641    -0.35849      2.9987    -0.15548     -0.1191
-0.12495   -0.095393    -0.15613    -0.49685      4.4198    -0.17919    -0.17465
-0.17302    -0.12852    -0.19836    -0.61216      4.9589    -0.18601    -0.22337
-0.21492    -0.15776    -0.22272    -0.68979      4.9593    -0.18666    -0.26202
-0.2448    -0.17822    -0.24091    -0.72844      4.9589    -0.20778    -0.29612
-0.26722    -0.19413    -0.26462    -0.73949      4.9589    -0.27176    -0.33413
-0.28378    -0.20745    -0.29742    -0.72909      3.4463    -0.37148    -0.38187
-0.29742    -0.21687    -0.32925    -0.69921      1.8668    -0.48614    -0.43352
-0.30944    -0.22337    -0.34614    -0.64724      0.6286    -0.58228    -0.47607
-0.31399    -0.22239    -0.34192    -0.56506    -0.22239    -0.63457     -0.5001
-0.30522    -0.21005    -0.32178    -0.45106    -0.80022     -0.6271     -0.4975
-0.27696    -0.19024    -0.29742    -0.32048     -1.1306    -0.56052    -0.46827
-0.23733     -0.1675    -0.27566    -0.19219     -1.1383    -0.44424    -0.42085
-0.19706    -0.14606    -0.25162   -0.083375    -0.79178    -0.29775    -0.36531
-0.16523    -0.12235    -0.22012   0.0020496    -0.18504    -0.13599    -0.30165
-0.14541   -0.095068    -0.18407    0.067011     0.46165    0.028684    -0.22597
-0.13372   -0.068109    -0.15126     0.11086     0.92093     0.18557    -0.13892
-0.12398   -0.046996    -0.13892     0.12775      1.0892     0.32491   -0.048296
-0.10871   -0.035953    -0.15483    0.091372     0.99239     0.43307    0.037454
-0.084674   -0.035628    -0.18894   -0.062262      0.6796     0.49641     0.11086
-0.054467   -0.038876    -0.22532    -0.36661      0.1323     0.50648     0.16445
-0.02361   -0.037902    -0.24221    -0.76287    -0.61541      0.4714     0.19271
0.0046481    -0.02361    -0.21817     -1.1364     -1.3504     0.39994     0.19304
0.024786   0.0043233    -0.13177     -1.4037       -1.76     0.30639      0.1768
0.032257    0.037129    0.028359     -1.5509     -1.6265     0.21188     0.15471
0.029009    0.062464     0.24371     -1.5895    -0.98244     0.13782     0.13652
0.023812    0.073507     0.45646     -1.4989    -0.10221     0.10924     0.12937
0.030633    0.072533     0.61301     -1.2147     0.66888     0.13522     0.13847
0.056942    0.075131     0.69356    -0.67777      1.1035     0.19986     0.16153
0.096893     0.09462     0.71143    0.074157       1.123     0.27294     0.18751
0.13847     0.12937     0.68707     0.89202     0.72734     0.32978     0.20116
0.16673     0.16835      0.6312      1.6085   -0.008669     0.35901     0.19369
0.17355     0.19888     0.55682      2.1078    -0.91066     0.36161      0.1716
0.16023     0.20863     0.47107      2.3514     -1.7633     0.34407     0.14724
0.13652     0.19693     0.38467      2.3628     -2.4031     0.31127     0.13132
0.11313     0.17095      0.2999      2.1968     -2.7575     0.27619     0.12418
0.10014     0.13912     0.22129      1.9158     -2.8452     0.25443      0.1258
0.10112     0.11151     0.14886      1.5744     -2.7429     0.25475     0.13782
0.11573     0.09397    0.083251      1.2181     -2.5305     0.27976     0.16056
0.13912    0.089423    0.030957     0.89495     -2.2589     0.32231     0.19499
0.16543     0.09397  -0.0076946     0.65296     -1.9448     0.37071     0.23494
0.18881     0.10209   -0.040175     0.52564     -1.6155     0.40481     0.27002
0.20343     0.10664   -0.069083     0.52759     -1.3066     0.40156     0.28723
0.19856    0.099492   -0.094743     0.62763     -1.0338     0.34764     0.28041
0.17192    0.078055    -0.11456     0.75885    -0.78009     0.24533     0.24825
0.12807    0.045574    -0.12657     0.84525    -0.51634     0.12807     0.19888
0.078379    0.014392    -0.13112     0.84038    -0.18829    0.038103     0.14756
0.038428  -0.0076946     -0.1295     0.74229      0.2921   0.0075714     0.10826
0.017316   -0.016789    -0.12333     0.58216     0.96251    0.039078    0.088124
0.012119    -0.01549    -0.11488     0.39994      1.7706     0.11411    0.082602
0.011469   -0.010943    -0.11228     0.23396      2.6109     0.20246    0.080978
0.0069217   -0.010618    -0.11715     0.10339      3.3625     0.28138     0.07708
-0.0011985   -0.014516    -0.12365    0.011144      3.8705     0.33952    0.068635
-0.008669   -0.020687    -0.12722   -0.052193      3.9689     0.37071    0.057917
-0.012567   -0.026858    -0.12495    -0.10124      3.5441      0.3772    0.048172
-0.012892   -0.028807    -0.11748    -0.14574      2.6268     0.36486    0.039727
-0.010293   -0.026533    -0.10806    -0.18764      1.4358     0.34245    0.032906
-0.0073698   -0.020687    -0.10026    -0.22597     0.28496     0.30477    0.027709
-0.0089938   -0.015165   -0.097666     -0.2565    -0.61184     0.24046    0.023162
-0.011592  -0.0099683    -0.10059    -0.27923     -1.2092     0.14334    0.016991
-0.013541  -0.0054209    -0.10416     -0.2958     -1.5304    0.016991    0.003024
-0.021012  -0.0041217    -0.10676    -0.30359     -1.5898     -0.1243   -0.019063
-0.03303  -0.0063954    -0.10644     -0.2984     -1.4021    -0.26559    -0.04992
-0.044723   -0.011267    -0.10806    -0.28833       -1.05    -0.40201   -0.086948
-0.057715   -0.015815    -0.11261    -0.29028     -0.6781    -0.53648    -0.12463
-0.071032   -0.021986    -0.11683    -0.31334    -0.40234    -0.66056    -0.15678
-0.076229   -0.027508    -0.11521    -0.35751    -0.23214    -0.75248    -0.17432
-0.067459   -0.028157    -0.10644    -0.41111   -0.058689    -0.78431    -0.17107
-0.04927   -0.021661   -0.092145    -0.45983     0.23006    -0.74338    -0.14639
-0.031081  -0.0096434   -0.078503    -0.48516     0.66531     -0.6388    -0.11326
-0.016464  0.00075039   -0.070058    -0.47639      1.1827    -0.49945    -0.08305
-0.0050961   0.0043233   -0.065835    -0.43806      1.6534    -0.35524   -0.061613
0.0052977   0.0017248   -0.059339    -0.39097      1.9363    -0.23344   -0.046022
0.015692  -0.0024977   -0.051868    -0.36109      1.9158    -0.14736   -0.031081
0.027385  -0.0063954   -0.037902    -0.34809      1.5462   -0.093444   -0.011917
0.040377  -0.0076946  -0.0096434    -0.31886     0.88195    -0.05804    0.014392
0.056942  -0.0034721    0.032582    -0.24318   -0.011917   -0.022961    0.042326
0.072208   0.0046481    0.070909     -0.1282     -1.0237    0.019264    0.063438
0.076431    0.010495    0.083576   -0.010293     -1.9348    0.062464     0.06831
0.069934    0.012119    0.056942    0.071883     -2.4873    0.094295    0.056617
0.054019    0.009845  -0.0044465     0.10306     -2.5285     0.11443    0.032257
0.035505   0.0078962   -0.080776    0.088773     -2.0881     0.12678    0.009845
0.023487   0.0078962    -0.14736    0.049472     -1.3651     0.13814    0.003024
0.024137    0.009845    -0.18017   0.0023744    -0.64821     0.15276    0.013093
0.036479    0.014068    -0.17172   -0.043748    -0.14152     0.16738    0.028684
0.052395    0.016341    -0.13177   -0.088896    0.088448      0.1755    0.036479
0.062139    0.016341   -0.079802    -0.13112    0.061165     0.16835    0.032582
0.057592     0.01764    -0.03173     -0.1662    -0.23214     0.13457    0.015367
0.037454    0.017316   0.0046481    -0.19186    -0.85382     0.06961   -0.012242
0.008221     0.01764    0.033231     -0.2172     -1.7139   -0.019712   -0.042774
-0.021986    0.017316    0.056942    -0.26072     -2.5743    -0.11651   -0.068434
-0.04927    0.013418    0.074806    -0.34127     -3.1168    -0.20355   -0.083375
-0.075579   0.0020496    0.090397     -0.4686     -3.0891    -0.27014   -0.089546
-0.098965   -0.017764     0.10956    -0.62093     -2.4925    -0.30132   -0.089546
-0.11488   -0.041799     0.13684    -0.77392     -1.5158    -0.27988   -0.081101
-0.11683   -0.059014     0.17647    -0.91261    -0.36498    -0.19446   -0.059339
-0.097017   -0.062587     0.23818     -1.0071     0.80205   -0.045372   -0.026209
-0.057715   -0.054142     0.31549     -1.0097      1.8892     0.15114    0.016666
-0.0054209   -0.039851      0.3876    -0.90611      2.8064     0.36746    0.063763
0.056942   -0.026858      0.4295    -0.74111      3.3745     0.57241     0.11346
0.12515   -0.015815     0.42787    -0.57253      3.3885     0.73124     0.16283
0.19076  0.00075039       0.385    -0.38512       2.786     0.81829     0.21058
0.24793    0.031282     0.31354   -0.070707       1.732     0.81991     0.24793
0.29113    0.074482     0.22974     0.43957     0.51622     0.74423     0.26222
0.30704     0.11931     0.13912      1.0486    -0.56506     0.60652     0.24598
0.27521     0.14951     0.03583      1.5537     -1.3092     0.42203     0.19888
0.18946     0.14789   -0.082076      1.7839     -1.7545     0.20473       0.131
0.072533     0.11476    -0.19511      1.6859     -2.0796   -0.032705    0.059216
-0.038227    0.067336    -0.26267      1.3468     -2.4353    -0.28021  -0.0011985
-0.10774    0.027385    -0.25455     0.91249     -2.7884    -0.52284   -0.039526
-0.12885   0.0072465     -0.1714     0.50842     -2.9427    -0.75248   -0.063237
-0.1191   0.0059473   -0.043748     0.22129     -2.6796    -0.94444   -0.078827
-0.10254     0.01829    0.083251     0.10079     -1.8217     -1.0646   -0.093444
-0.093444    0.034206     0.17452     0.14237    -0.25682     -1.0874    -0.10903
-0.10156    0.042326       0.207     0.28723      1.8664     -1.0243    -0.13145
-0.12463     0.03453     0.18134     0.44444      3.9439    -0.93177    -0.16295
-0.16165   0.0085458     0.11151     0.52109      4.9593    -0.88403    -0.20485
-0.2042   -0.029782    0.022188     0.47367       4.715    -0.93047     -0.2513
-0.24708   -0.072331   -0.065186     0.31614      2.6236     -1.0597    -0.29937
-0.28248    -0.11196    -0.14087    0.092021    -0.30522     -1.2176    -0.34744
-0.30944    -0.14704    -0.19933    -0.14801     -2.7078     -1.3342    -0.39162
-0.32828    -0.17367    -0.23928    -0.36271     -3.7852     -1.3466    -0.42475
-0.34095    -0.19024    -0.26072    -0.52219     -3.5332     -1.2277    -0.43644
-0.34484    -0.19608    -0.26819    -0.61119     -2.4321    -0.99738    -0.42377
-0.34062    -0.19348    -0.26429     -0.6297     -1.1234    -0.70765    -0.39357
-0.32438    -0.18439    -0.25812    -0.59884   -0.069083     -0.4189    -0.35069
-0.29093    -0.17042    -0.25455    -0.54395     0.57436    -0.17822    -0.30424
-0.24253    -0.15353    -0.26332    -0.48581     0.88065  -0.0076946    -0.26169
-0.18731    -0.13729    -0.28313    -0.42832     0.95503    0.090072    -0.22661
-0.13437    -0.12073    -0.30749     -0.3718     0.84005     0.12613    -0.19933
-0.093119    -0.10416    -0.32373    -0.31983     0.63413     0.11671    -0.18049
-0.06551   -0.090521    -0.32243    -0.27339     0.51557    0.090397    -0.16945
-0.053817   -0.082076      -0.301    -0.23863     0.61399    0.074157    -0.16425
-0.056741   -0.077853    -0.26332    -0.21622     0.91411    0.091696    -0.16133
-0.073631    -0.07493    -0.21882     -0.2055      1.2971     0.14821    -0.15483
-0.10124   -0.072656    -0.17952    -0.20615      1.6209     0.22389    -0.14346
-0.13275   -0.067134    -0.15548    -0.21622      1.8112     0.29275    -0.12625
-0.16068   -0.059339    -0.15029    -0.23311       1.884      0.3366    -0.10741
-0.17465   -0.047646    -0.15321    -0.25195      1.9363     0.35447   -0.085324
-0.16523   -0.029457    -0.14866    -0.26202      2.0932     0.36389   -0.059989
-0.13307  -0.0083442     -0.1308     -0.2578      2.4264       0.385   -0.027508
-0.084024    0.011794    -0.10319    -0.23409      2.9049     0.43599    0.010495
-0.027183    0.030957   -0.072656    -0.18894      3.4047     0.52174    0.050121
0.031607    0.048497   -0.045697    -0.12657      3.7653     0.62763    0.090072
0.083576    0.063763   -0.021012   -0.054142      3.8731     0.72734     0.12937
0.12483    0.076755   0.0023744    0.015692      3.7013     0.80075     0.16673
0.15309    0.092021    0.024461    0.073507      3.2943     0.83453     0.19823
0.17355     0.10794    0.040377     0.11313      2.7109     0.83161     0.22065
0.18881     0.11963    0.047198     0.13197      1.9853     0.79815     0.23396
0.20473     0.12775    0.048172     0.13684      1.0749     0.73741     0.24241
0.21837     0.13262    0.044599     0.13782    -0.10319     0.65556     0.24825
0.22682       0.131    0.041676      0.1349     -1.5025      0.5513      0.2489
0.22454     0.12483    0.042651     0.12385     -2.8303       0.423     0.24046
0.20993     0.11606    0.045574     0.10599     -3.6709     0.27586     0.22357
0.18719     0.10501    0.049147    0.087799     -3.7232     0.13522     0.20213
0.1638    0.093645    0.051096    0.083576     -3.0161    0.040052     0.18297
0.14626      0.0852    0.054993    0.097868     -1.9458    0.017965     0.17127
0.13684    0.080328    0.061489     0.12548      -1.087    0.063763     0.16445
0.13587     0.07773     0.06961     0.15763    -0.84927     0.15601     0.16185
0.13977    0.074806    0.079679     0.18849     -1.1952     0.27034     0.16315
0.14756    0.073507    0.092671     0.21317     -1.7672     0.37818       0.169
0.15893    0.075456     0.11573     0.22552     -2.2187     0.46003     0.17777
0.1742    0.080328     0.15406     0.22519     -2.3908     0.49998     0.18687
0.18914    0.080978      0.2148     0.21382     -2.3122     0.48504     0.19271
0.19596    0.073507       0.296     0.19369     -2.0972     0.41553     0.18199
0.18622    0.056617     0.38565     0.16413     -1.8328     0.30445     0.15406
0.15828    0.032257     0.45743     0.11313     -1.5713      0.1781     0.11411
0.11801   0.0046481     0.48114    0.024137     -1.3563    0.065712    0.072858
0.072208   -0.022636     0.44606   -0.091495     -1.2491   -0.025884    0.038103
0.029009   -0.043423     0.36096    -0.19673     -1.2637   -0.098641    0.016016
-0.0044465   -0.054792     0.24046    -0.26916     -1.3235    -0.14996   0.0088706
-0.020037   -0.057715    0.098842    -0.32503     -1.3342    -0.17562    0.015042
-0.01549   -0.053168   -0.044398    -0.39519     -1.2852    -0.17497    0.030957
0.0069217   -0.039851    -0.16588      -0.466     -1.2283    -0.15191    0.054993
0.040052   -0.019388    -0.24123    -0.47932     -1.2023    -0.11033    0.082602
0.076755   0.0049729    -0.25942    -0.39746      -1.203   -0.054142     0.10761
0.11281    0.023487    -0.22467    -0.23441      -1.191    0.012768     0.12905
0.13977    0.032582    -0.15808   -0.029457     -1.1163    0.080978     0.14399
0.15146    0.034206    -0.08305     0.17939    -0.96653     0.14139     0.15341
0.15146     0.03453   -0.016464     0.36843    -0.75085     0.19141     0.15666
0.14302     0.03583    0.033231     0.52174    -0.48614     0.22389     0.15601
0.12483    0.036479    0.065387     0.62308     -0.2146     0.23624     0.15244
0.10079     0.03453    0.081303     0.66596    0.017965     0.22422     0.14496
0.077405    0.033556    0.089423     0.65361     0.18069     0.19109     0.13295
0.057592    0.035505    0.095269     0.60327     0.35674     0.14659     0.11736
0.039727    0.041027     0.10664      0.5422     0.74034     0.10177     0.10144
0.022837    0.044599     0.11801     0.48309      1.4276    0.072533    0.083576
0.008221    0.042001     0.11573     0.42527      2.3049    0.064413    0.063763
0.00010078    0.033881    0.090722     0.36161      3.1111    0.064737    0.044924
-0.0024977    0.018615    0.042975     0.28788      3.5538    0.045899    0.025761
-0.0015233  -0.0015233   -0.013216     0.21577      3.5019  -0.0054209    0.010819
0.0026992   -0.023285   -0.057715      0.1664       3.076   -0.086948  -0.0015233
0.0075714     -0.0405   -0.074605     0.15114      2.5161    -0.17724   -0.013216
0.0095202   -0.048296   -0.059664      0.1651      1.9356    -0.25682   -0.022636
0.0052977   -0.044723   -0.026533     0.19531      1.2678    -0.32178   -0.028807
-0.0054209   -0.034654    0.003024     0.21967     0.46393    -0.37505   -0.032705
-0.018738   -0.022961    0.015367     0.22032    -0.36076    -0.41305   -0.042124
-0.030756  -0.0096434   0.0065969     0.19109     -1.0113    -0.42377   -0.056416
-0.038227   0.0036737   -0.011917     0.14367     -1.3365    -0.39746   -0.073955
-0.037902    0.016991   -0.033354    0.099492     -1.2884     -0.3338   -0.083375
-0.028157    0.029009   -0.052518    0.072208    -0.95418    -0.23668   -0.075255
-0.013541    0.040377   -0.067784    0.062464    -0.53778    -0.11293    -0.04992
-0.0044465    0.045574    -0.08305     0.05207    -0.28248    0.016991   -0.019063
-0.010293    0.041676    -0.10709    0.023487    -0.28898      0.1206   0.0052977
-0.028807    0.028684    -0.14444    -0.03238     -0.4163     0.17322    0.016016
-0.053817   0.0075714    -0.19024    -0.10936    -0.41078     0.16803   0.0085458
-0.079802    -0.01614    -0.23571    -0.19089    -0.13827     0.11443   -0.013866
-0.10319   -0.037577    -0.27404    -0.26657     0.27067    0.021538   -0.046022
-0.123   -0.057065    -0.30652    -0.33348     0.59352    -0.09929   -0.079152
-0.13697   -0.073306    -0.33737    -0.39227     0.76535    -0.22986    -0.10286
-0.14346   -0.081751    -0.36823    -0.44391     0.87513     -0.3403    -0.11391
-0.13957   -0.080451    -0.39324    -0.48906     0.98199    -0.41143    -0.11391
-0.12885   -0.070707    -0.39746    -0.52836      1.0288    -0.44359    -0.10189
-0.10579   -0.055766    -0.34582    -0.55077     0.87935    -0.44748   -0.080127
-0.070058   -0.037577    -0.19316    -0.54428     0.35544    -0.43677   -0.051868
-0.033679   -0.019063    0.073507    -0.50887    -0.70181     -0.4176   -0.023285
-0.007045  -0.0031473     0.39831    -0.45788      -2.283    -0.38999   0.0043233
0.009845   0.0075714     0.68707    -0.40234     -4.1798    -0.36011    0.032257
0.017316   0.0095202     0.86506     -0.3416     -4.9698    -0.33965    0.053044
0.019589   0.0052977     0.90144    -0.26689     -4.9698    -0.33672    0.061489
0.020888 -0.00054884     0.80985    -0.16133     -4.9701    -0.35102    0.054993
0.019914  -0.0057458     0.62893   -0.013866     -4.9701    -0.37375    0.035505
0.0088706   -0.013216     0.40903     0.16835     -4.9695     -0.3861   0.0059473
-0.015165   -0.022961     0.20083     0.35999     -4.7158    -0.37538   -0.024585
-0.047971   -0.038876    0.040052     0.51719     -2.6299    -0.33413   -0.048296
-0.079802   -0.054142   -0.055766     0.60847    -0.62385    -0.26397   -0.061288
-0.09994   -0.062912   -0.094743       0.626      1.0018    -0.17465    -0.06681
-0.10676   -0.059664   -0.097017     0.58021      2.0834   -0.082076   -0.067134
-0.10286   -0.047321   -0.085324     0.49056      2.7019  -0.0021729   -0.065186
-0.097017   -0.040825   -0.080127     0.37298      3.0172     0.05272   -0.066485
-0.10286   -0.047321    -0.09182     0.23591      3.1878    0.082927    -0.07493
-0.123    -0.06551     -0.1256    0.089748      3.3135    0.095594   -0.092794
-0.15418   -0.087272    -0.17822   -0.048296      3.4541    0.098193    -0.12527
-0.19283    -0.10579    -0.23831    -0.16295      3.6425    0.091372    -0.17075
-0.23603    -0.11683     -0.2919     -0.2435      3.8955    0.074482    -0.22337
-0.27696    -0.11845    -0.32503     -0.2854      4.2096     0.06084    -0.27046
-0.30457    -0.11163    -0.32763     -0.2867      4.5555    0.072533    -0.30067
-0.31171    -0.10124    -0.30327    -0.25455      4.8703     0.11281    -0.30652
-0.30067   -0.084999    -0.25975     -0.2094      4.9589     0.15373     -0.2945
-0.27599   -0.065186    -0.21232     -0.1753      4.9589     0.15633    -0.27599
-0.24513   -0.048296    -0.17919    -0.16523       4.701    0.093645    -0.26332
-0.2146   -0.041799    -0.16945    -0.18634      3.9592   -0.037902    -0.25682
-0.18796   -0.046022    -0.18017    -0.23506      2.7405    -0.21687    -0.25357
-0.16393   -0.051868     -0.2042    -0.29612      1.2828    -0.39649    -0.24643
-0.13859   -0.051868    -0.22467    -0.34874   0.0026992    -0.52284    -0.23506
-0.11066   -0.043423    -0.22597    -0.37538    -0.74663      -0.555    -0.21687
-0.080776   -0.031081    -0.19706    -0.36758    -0.90741    -0.48386    -0.18991
-0.04927   -0.016789    -0.14119    -0.32698    -0.64951    -0.33413    -0.15321
-0.019388  -0.0018481   -0.071032     -0.2591     -0.2016    -0.14671    -0.11001
0.009845   0.0091954  -0.0041217    -0.17789     0.25345    0.048172   -0.063886
0.037129    0.015042    0.042975    -0.10091      0.6312     0.23136   -0.021012
0.061489    0.019264    0.063763   -0.035628     0.96445     0.39117    0.019264
0.082277    0.024461    0.062789    0.025111      1.2912     0.51135    0.055643
0.090397    0.031932     0.05272     0.09397      1.5384     0.56981     0.08585
0.087149     0.04395    0.042975     0.17387      1.5926     0.54968     0.10696
0.07708    0.058241    0.038428     0.25475      1.3429     0.45646     0.11541
0.070584    0.073507    0.036804     0.31776     0.67343     0.32004     0.11736
0.072208      0.0852     0.03453     0.34992    -0.39259     0.18816     0.11963
0.087149     0.09397    0.032906     0.35479      -1.582     0.10859     0.13165
0.11573     0.10079    0.036804     0.34602     -2.5506     0.10501     0.14886
0.15146     0.10664    0.050446     0.33855     -3.0615     0.16835      0.1664
0.18881     0.11086    0.071558       0.334      -3.081     0.26612     0.18199
0.21675     0.10989     0.09397     0.31971     -2.6929     0.36031     0.19239
0.22714     0.10404     0.10826     0.28918      -1.977     0.42657     0.19628
0.22097    0.096569     0.10729     0.24403     -1.0065     0.46198     0.19628
0.20343    0.086175    0.092996     0.19239     0.14919     0.46685     0.19141
0.17615    0.074482    0.067986     0.14269      1.3071     0.43339     0.16998
0.13652    0.061165    0.038103    0.092021      2.1513     0.34375     0.12678
0.084551    0.042001   0.0056225    0.033556        2.34      0.1768    0.061489
0.025111    0.019589    -0.03238   -0.037902      1.6621   -0.065835   -0.018088
-0.032705  -0.0067202   -0.075255    -0.12592     0.22227    -0.35621    -0.10254
-0.081751   -0.034654    -0.11521    -0.22564     -1.4359    -0.64497    -0.17594
-0.11683   -0.056741    -0.14379    -0.33023     -2.6123    -0.87006    -0.22012
-0.13242   -0.069083    -0.15581     -0.4254     -2.9365    -0.97854    -0.22921
-0.1308    -0.07428    -0.15321    -0.51602     -2.3752    -0.94606      -0.212
-0.11683   -0.072006    -0.14249    -0.64334     -1.1325    -0.79113    -0.18244
-0.096692    -0.06551     -0.1308     -0.8392      0.4688    -0.56312    -0.14996
-0.075579   -0.054142    -0.11651     -1.0848      2.0035    -0.32211    -0.11586
-0.055441   -0.038876    -0.10091     -1.3131      3.1345    -0.11521   -0.082725
-0.035628    -0.02361   -0.089546     -1.4781      3.5824    0.031282   -0.050894
-0.016789   -0.008669     -0.0837     -1.5749      3.1939     0.11281   -0.021661
-0.0021729   0.0036737   -0.080451     -1.6129      1.9805     0.13847   0.0072465
0.011144    0.013093   -0.075579     -1.5395     0.17517     0.12937    0.036804
0.025436    0.020239    -0.06616     -1.2491     -1.7506     0.11346    0.068635
0.046548    0.034855   -0.045372    -0.65861       -3.36     0.11054     0.10144
0.080003     0.06084   -0.012892     0.19531     -4.5238      0.1206     0.13555
0.11931    0.092996    0.027385      1.1249     -4.9701     0.13262     0.16543
0.15244     0.12028    0.070909      1.9194     -4.9698     0.13295     0.18427
0.16803     0.13652     0.11118      2.4319     -4.9695     0.12093     0.18946
0.16023     0.13977     0.13977      2.6148     -4.9701     0.10339     0.18622
0.13587     0.13262     0.15309      2.5066     -4.7122    0.092021     0.18004
0.10761     0.11508     0.15438         2.2     -3.5322    0.096893     0.17095
0.084876    0.090072     0.15049      1.7953     -2.1098     0.11508     0.15438
0.067986    0.065062     0.14302       1.374    -0.65374      0.1245     0.12548
0.051096    0.045574     0.13392     0.98817      0.5945     0.10274     0.08585
0.030308    0.033556     0.12483     0.66531      1.4578    0.049147    0.044275
0.0036737    0.022512     0.11281     0.41553      1.9399   -0.017114    0.015367
-0.016464    0.012443    0.096244     0.23331      2.0821   -0.063237   0.0056225
-0.022636      0.0014    0.074806     0.11021      1.9623   -0.067784    0.012119
-0.013216  -0.0031473    0.053044    0.041351      1.7404   -0.024909    0.028684
0.0049729  0.00042559    0.036154    0.016666      1.6219    0.059216    0.048822
0.024137    0.010495    0.028684    0.019589      1.7307     0.16543    0.067661
0.036804    0.021863    0.026735     0.03453      2.0542     0.27651    0.083576
0.04395    0.028684    0.025436    0.046548      2.4774     0.37883    0.096893
0.04395    0.027709    0.022512    0.048822      2.8012     0.46295     0.11248
0.041351    0.019914    0.020564    0.041351      2.8022       0.512     0.13132
0.041351   0.0075714     0.01829    0.022837      2.3377      0.5055     0.14626
0.039402  -0.0054209    0.015692  -0.0076946      1.4062      0.4295     0.14464
0.034855   -0.013541    0.012768   -0.046022     0.11411      0.2908     0.12223
0.028684   -0.012892    0.012119   -0.086948     -1.2956     0.11313      0.0852
0.023487   -0.011267    0.013743    -0.12138     -2.4574    -0.07428    0.047198
0.01764   -0.012892    0.014068    -0.14769      -3.042    -0.23474    0.016666
0.012443   -0.017114    0.013743    -0.16977     -2.9167     -0.3286  0.00010078
0.012768   -0.023935    0.013093    -0.19024     -2.2544    -0.33965  -0.0028225
0.022188   -0.029132    0.014392     -0.2055     -1.4459    -0.28021      0.0014
0.038428   -0.030431    0.021863    -0.20583      -0.885    -0.18991   0.0095202
0.054019   -0.029782    0.030633    -0.18959    -0.79243    -0.10871     0.01829
0.061489   -0.027183     0.03518    -0.15548     -1.1107   -0.061937    0.025761
0.059216   -0.022636    0.037454    -0.10871     -1.5746   -0.054467    0.030308
0.049472   -0.017439    0.044275    -0.05804     -1.9085   -0.073955    0.029009
0.040377   -0.012567    0.055968  -0.0067202     -1.9442    -0.10416    0.025436
0.03518  -0.0093186    0.059865    0.033231      -1.646    -0.12495    0.024137
0.033556  -0.0054209    0.049147    0.040052     -1.1042    -0.11488    0.028684
0.041027   0.0043233    0.033881  -0.0028225    -0.47379   -0.050894    0.045249
0.066362    0.023487    0.038428   -0.068758     0.11606    0.075131    0.081303
0.10826    0.054344    0.081303   -0.098641     0.57306     0.24793     0.14172
0.16315    0.096244     0.15373   -0.050569     0.83063     0.43599     0.21642
0.2161     0.13652     0.22519    0.070584     0.94302     0.61204     0.28723
0.25215     0.16283     0.26644     0.23201      1.1048      0.7556     0.33887
0.26644      0.1716     0.26937     0.37363      1.4585     0.85077     0.36356
0.26612      0.1664      0.2528     0.43534      1.9259     0.88163     0.36129
0.26027     0.15958     0.24013      0.3824      2.1727     0.82641     0.33855
0.24176     0.15406     0.24046     0.22422      1.8561     0.65751     0.29665
0.20051     0.14204     0.23721 -0.00022403     0.85402     0.36129     0.23331
0.13035     0.11313     0.20798    -0.23798     -0.6258   -0.026209     0.14659
0.0433    0.065062     0.14399    -0.44164     -2.0761    -0.42215    0.041676
-0.040175   0.0017248     0.05207    -0.58488     -3.1625    -0.74306   -0.063886
-0.10286    -0.06551   -0.048296      -0.669     -3.8226    -0.94606    -0.15191
-0.14184     -0.1217    -0.13859     -0.7122     -4.1409     -1.0247      -0.212
-0.15808    -0.16068    -0.20648    -0.73169     -4.1915    -0.99511    -0.24513
-0.15581    -0.18309     -0.2461    -0.73364      -3.957     -0.8915     -0.2552
-0.13307    -0.19121    -0.25422     -0.7083      -3.336     -0.7515    -0.24773
-0.097017    -0.18731    -0.23766    -0.65211     -2.2385    -0.60534    -0.23246
-0.057065    -0.17237    -0.21265    -0.57221    -0.65114     -0.4686    -0.21752
-0.022636    -0.15386    -0.18829    -0.47867      1.2792    -0.33543    -0.20745
-0.0057458    -0.13632     -0.1727    -0.38577      3.2381    -0.19381    -0.20128
-0.011917    -0.12625     -0.1701    -0.30879      4.9589     -0.0405    -0.19901
-0.044073      -0.123    -0.18666    -0.26787      4.9589    0.099167    -0.20096
-0.10546    -0.12917    -0.22726    -0.29125      4.9586      0.1677    -0.21817
-0.19933    -0.14964    -0.28995    -0.40071      4.9586     0.10436    -0.26592
-0.31529    -0.18179    -0.37083    -0.58618      4.5796   -0.095393    -0.34744
-0.42897    -0.21882    -0.45366    -0.79438      3.2514    -0.35816    -0.44683
-0.51602    -0.24968    -0.51797    -0.96068      2.6411    -0.57871    -0.53583
-0.56117    -0.26527    -0.54882     -1.0357      2.8782    -0.68264     -0.5891
-0.56312    -0.26104    -0.54038     -1.0075      3.6233    -0.64951    -0.59819
-0.53518    -0.24188    -0.50173    -0.89442      4.4168    -0.51894    -0.56669
-0.49523    -0.21655    -0.44943    -0.73754      4.9128    -0.36076     -0.5105
-0.45073    -0.18861    -0.39779    -0.57708      4.8998    -0.24318    -0.44943
-0.40428    -0.16165    -0.35686    -0.43677      4.2648    -0.20778    -0.39746
-0.35459    -0.13275    -0.32601    -0.32016      2.9864    -0.25195    -0.35914
-0.30002    -0.10254    -0.29742    -0.21492      1.2016    -0.34095     -0.3286
-0.24253   -0.068758    -0.26624    -0.10806    -0.73364    -0.42215     -0.2945
-0.18536   -0.036278    -0.22921   0.0017248     -2.2674    -0.46113    -0.25715
-0.13599   -0.008669    -0.17724     0.10404     -3.1353    -0.45495    -0.21622
-0.10319    0.010819   -0.089221     0.18134     -3.3012    -0.41728    -0.17075
-0.085973    0.021863    0.058241      0.2161     -2.8641    -0.36109    -0.12365
-0.080127    0.025761     0.26547     0.21382       -1.99    -0.28898   -0.082725
-0.075255    0.022512     0.48569     0.18589     -0.8444    -0.19608   -0.048945
-0.067459    0.016991     0.65199     0.15958     0.41748   -0.075255   -0.021661
-0.055441    0.015042     0.72085     0.15958      1.5978    0.070909   0.0036737
-0.038227    0.021213     0.68772     0.19239       2.504     0.22941    0.030633
-0.018738    0.032257     0.57306     0.24566      2.9214     0.37688    0.055968
-0.0028225    0.042975      0.4165     0.30087        2.71     0.48147    0.078379
0.0075714    0.046223     0.25995     0.33595      1.8791     0.51654    0.095269
0.013093    0.042001       0.131      0.3392     0.60132      0.4688     0.10534
0.015692    0.034206    0.045899     0.30997      -0.758     0.35317     0.11118
0.020888     0.02641 -0.00087364      0.2619     -1.7506     0.21058     0.11183
0.033881    0.023162   -0.021986      0.2135     -2.1388    0.091696     0.10989
0.053044    0.028034   -0.031406      0.1781     -1.9231    0.029333     0.11118
0.075781    0.039727   -0.033679     0.16705     -1.3261    0.033231     0.11898
0.10047    0.057592    -0.02361      0.1768    -0.69694      0.0852      0.1336
0.1245    0.076106    0.010495     0.19726    -0.38187     0.15114     0.15276
0.14951    0.092346    0.071558     0.22097     -0.5394     0.20213     0.17615
0.17225     0.10436     0.14367     0.25313     -1.0299     0.23104     0.20018
0.19271     0.11118     0.20505      0.3038     -1.5203     0.24403     0.22324
0.20765     0.11541     0.23266     0.37038     -1.7438      0.2515     0.24338
0.21675     0.11768        0.22     0.43794     -1.6353     0.25605     0.25605
0.21577     0.11476     0.17257     0.49056     -1.3274      0.2541     0.25572
0.2057     0.10631     0.10631     0.51362     -1.1133     0.24403     0.24598
0.18654    0.094945    0.040377     0.49836     -1.2553     0.22584     0.22941
0.1638    0.082602   -0.012567     0.43924     -1.7438     0.20733     0.21772
0.14724    0.071883   -0.046347      0.3327      -2.359     0.19758     0.20928
0.13652    0.062789   -0.061937     0.18232     -2.8654     0.19953     0.19986
0.13132    0.056942   -0.062262    0.011469      -3.132     0.21382     0.18784
0.13295    0.056617   -0.052843     -0.1321     -3.1281     0.23851     0.17257
0.13782    0.060515    -0.04115    -0.21037     -2.8816     0.27164     0.15568
0.14042    0.064737   -0.030756    -0.23311     -2.4675     0.30607     0.14237
0.13684    0.064088   -0.022961    -0.22629     -1.9673     0.33173     0.13132
0.12418    0.059865   -0.013541    -0.18731     -1.4469     0.34017     0.12255
0.11313    0.058241    0.014717   -0.082076    -0.91975     0.33595     0.12158
0.11736    0.061814    0.075456    0.088448    -0.35589      0.3327      0.1336
0.14334     0.07773     0.16478     0.28203       0.296     0.34505     0.16413
0.18329     0.10631      0.2489     0.45158        1.07     0.37623     0.20928
0.22227     0.13749     0.28366     0.58346      1.9541     0.41748     0.25897
0.2463     0.15893     0.24728     0.69227      2.8191     0.44996      0.2973
0.24825     0.15731     0.16056     0.79913      3.4226     0.45808     0.31581
0.22487      0.1323    0.065387     0.91638      3.4642     0.43502     0.31257
0.18751    0.092996 -0.00022403      1.0314      2.7866     0.38662     0.28918
0.14691    0.053044   -0.020687      1.1044      1.5446     0.33108      0.2528
0.11411    0.023487  -0.0031473      1.0889     0.16835     0.28788     0.21252
0.092671     0.01017    0.029658     0.94659     -0.8863     0.27489     0.17874
0.08585    0.010495    0.052395     0.66823     -1.4342     0.29568     0.16185
0.090397    0.016341    0.053694     0.29892     -1.5999     0.34245     0.16153
0.099167    0.021213    0.032906    -0.08305     -1.6684     0.39864     0.16835
0.10371    0.023487  -0.0044465    -0.39616     -1.8802     0.43989     0.17517
0.096244    0.024137   -0.051219    -0.60047     -2.2489     0.44639     0.17517
0.074482    0.021213    -0.10709    -0.70506     -2.6169     0.40026     0.15861
0.044924    0.013743     -0.1753    -0.72714     -2.7815     0.30412     0.12223
0.017316   0.0017248    -0.25098    -0.67647     -2.6419     0.17939    0.075131
0.00042559   -0.008669    -0.31431    -0.55142     -2.2635    0.057917    0.031607
-0.0031473   -0.014516    -0.34972    -0.34257     -1.8438   -0.038876   0.0036737
0.0033489   -0.013541    -0.35069   -0.049595     -1.6369    -0.10579   -0.011267
0.013743   -0.007045    -0.32276     0.27196     -1.8143    -0.16523   -0.021986
0.018615  0.00010078    -0.27793     0.51492     -2.3064    -0.25227   -0.039526
0.012443   0.0049729    -0.22564     0.60392     -2.8325    -0.38382    -0.06681
-0.0060706   0.0036737    -0.16588     0.58573     -3.0619    -0.54298    -0.10546
-0.029782      0.0014   -0.097666     0.61951     -2.8147    -0.68979    -0.14801
-0.046022  0.00010078   -0.030756      0.7975     -2.1043    -0.78171    -0.18212
-0.045697 -0.00022403    0.017316      1.0184     -1.0597    -0.79113    -0.19738
-0.025884   0.0010752    0.037778       1.109     0.17777    -0.71415    -0.18861
0.0046481   0.0036737    0.039078      1.0057      1.4484    -0.57189    -0.16328
0.030308   0.0095202    0.036479     0.78419      2.6596    -0.40331    -0.13372
0.040702     0.01894    0.031607     0.55422      3.7961    -0.25065    -0.11131
0.032582    0.028684     0.01764     0.37688      4.8173    -0.14704   -0.099615
0.009845    0.029658   -0.013216     0.26255      4.9593   -0.098965   -0.097341
-0.017439    0.018615   -0.062262     0.18914      4.9593    -0.10091    -0.10676
-0.046996 -0.00087364    -0.12235     0.11638      4.9589    -0.15386     -0.1295
-0.080451   -0.025884    -0.18212    0.014392      4.9593     -0.2565     -0.1636
-0.1243   -0.050894    -0.22759    -0.10871      4.5474    -0.41111     -0.2055
-0.18147   -0.069408    -0.24903    -0.23149      2.2182    -0.60924     -0.2526
-0.24578   -0.080451    -0.25065    -0.33705    -0.57936    -0.82264    -0.30035
-0.30554   -0.088896     -0.2435    -0.42312     -2.8835     -1.0016    -0.33867
-0.34549    -0.09929    -0.23993    -0.50205     -4.1214     -1.0981    -0.35946
-0.36044    -0.11131     -0.2448    -0.58065     -4.2127     -1.0919    -0.36109
-0.35264      -0.123    -0.25195    -0.65536     -3.4688    -0.99186    -0.34907
-0.32633    -0.13047    -0.24968    -0.70765     -2.4061    -0.82264    -0.32828
-0.28898    -0.13145    -0.23181    -0.72389     -1.4317    -0.61573    -0.29515
-0.24415     -0.1269    -0.19706    -0.69824    -0.72779    -0.40753    -0.25357
-0.19868    -0.11391    -0.14899    -0.63815    -0.29223    -0.22726    -0.20972
-0.15938   -0.094418   -0.096367    -0.55564   -0.021012    -0.09929    -0.17042
-0.13015   -0.072981   -0.046671    -0.47769     0.19141   -0.030756    -0.13957
-0.11131   -0.053817   -0.007045    -0.44618     0.38954  -0.0076946     -0.1217
-0.10189   -0.040825    0.017965    -0.49523     0.57858  -0.0067202    -0.11943
-0.10189   -0.036278    0.025436    -0.61606     0.78224  -0.0093186    -0.12592
-0.10449   -0.035953    0.021538    -0.76515      1.0356   -0.012892    -0.12722
-0.10741   -0.038227    0.017316    -0.87883      1.3607   -0.023935     -0.1178
-0.10741    -0.04115    0.021213    -0.90709      1.7596   -0.046347   -0.097017
-0.10384   -0.042124     0.02706    -0.83271      2.1977    -0.06551   -0.072331
-0.095717   -0.039851    0.031607    -0.68199      2.6018   -0.054792   -0.050569
-0.084999   -0.034654    0.032257    -0.50465      2.8483  -0.0044465   -0.033679
-0.071682   -0.028157    0.032582    -0.34225      2.8227    0.082277   -0.022311
-0.056416   -0.022961    0.036804    -0.21947      2.4258     0.18557   -0.012892
-0.041799   -0.015815    0.044924    -0.14606      1.5891     0.27586  -0.0018481
-0.031406   -0.010618    0.054668     -0.1191     0.36713     0.32751    0.010495
-0.025884   -0.010293     0.06084    -0.12722    -0.97854     0.33563    0.024786
-0.02426   -0.012242    0.061814    -0.15581     -2.0939     0.32004     0.03518
-0.024585   -0.013541    0.064088    -0.18894     -2.7601     0.30152    0.037778
-0.027183   -0.011917    0.069934    -0.21914     -2.8813     0.29178     0.03518
-0.026209  -0.0050961    0.078379    -0.24058     -2.4931      0.2986     0.03518
-0.018413   0.0033489    0.087474    -0.24838     -1.7295     0.32069    0.042001
-0.0041217    0.010495    0.096244    -0.24091    -0.79665     0.34927    0.053044
0.012119    0.013418     0.10242    -0.22044    0.090722     0.36876    0.064737
0.023812    0.014392     0.10306    -0.18504     0.77184     0.36811    0.078055
0.032906    0.013743    0.097543    -0.12722      1.1967     0.35284    0.092996
0.0433    0.014068    0.090722   -0.045047      1.4107     0.33725     0.10696
0.058241    0.017965    0.092996    0.051745      1.5173     0.34472     0.11573
0.080978     0.02706     0.11281     0.14367      1.5696     0.39637      0.1245
0.11021    0.045249     0.15211     0.21935      1.5014     0.49706     0.14074
0.14464    0.070909     0.20603     0.26904      1.2051     0.62178     0.17225
0.18167     0.10047     0.26157     0.28853     0.67343     0.73904     0.21155
0.21642     0.12678     0.30802     0.28203    0.060515     0.82121     0.24988
0.23851     0.14204       0.334      0.2619    -0.43709     0.85305     0.27261
0.23818     0.14464     0.33368     0.24078    -0.73299     0.82933     0.27424
0.2148     0.13782     0.31419     0.22844    -0.87006     0.75398     0.25702
0.18004     0.12678     0.28691     0.22162    -0.94314     0.63185     0.22714
0.15211     0.11248      0.2606     0.20863     -1.0393     0.46393     0.19076
0.14009    0.097868     0.23656     0.17777     -1.2767      0.2515     0.15049
0.14269    0.083576     0.20928     0.12158     -1.7285   0.0043233     0.10989
0.15536    0.068635     0.17874    0.049472     -2.2732    -0.23441    0.073182
0.1729    0.051745     0.14367   -0.025559     -2.5912    -0.40981    0.047523
0.18979    0.033231     0.10664   -0.088896      -2.359    -0.48906    0.032582
0.19953    0.014717    0.067661    -0.13307     -1.5885    -0.47542    0.031282
0.20376   0.0020496    0.029658    -0.15353    -0.64562    -0.40396    0.042001
0.20116  -0.0024977   -0.007045    -0.15321     0.10924    -0.31886    0.058241
0.18427  -0.0021729   -0.037577    -0.14216      0.6364    -0.24935    0.073507
0.14789 -0.00022403   -0.056091    -0.12365      1.2321    -0.19348    0.084876
0.090072 -0.00087364   -0.059339   -0.097991      2.1636    -0.13112    0.093645
0.011144  0.00010078   -0.049595   -0.062262      3.3404   -0.053492    0.096244
-0.086623 -0.00054884    -0.03173   -0.022961      4.3028    0.023487    0.086824
-0.19024  -0.0060706   -0.010618    0.008221      4.5546    0.065712    0.061814
-0.27599   -0.018413   0.0036737    0.024137      3.9004    0.038428    0.022188
-0.32373   -0.032055   0.0088706    0.026085      2.5411   -0.071032   -0.026533
-0.3286   -0.039851 -0.00022403    0.013093     0.79458    -0.24578   -0.076554
-0.30457   -0.046022   -0.022961   -0.016464     -1.0766    -0.45333    -0.12495
-0.27144   -0.055116   -0.053168   -0.062587     -2.8774    -0.65569    -0.17335
-0.24513   -0.072981   -0.085648    -0.11423      -4.529    -0.81452    -0.21655
-0.22986    -0.09117    -0.11651    -0.15938     -4.9695    -0.89929     -0.2474
-0.22272    -0.10936    -0.14476    -0.19219     -4.9698    -0.90221    -0.25715
-0.2172    -0.12722    -0.16912    -0.20745     -4.9698    -0.83563       -0.25
-0.21297    -0.14346    -0.18634    -0.20875     -4.9698    -0.72714    -0.23506
-0.21265    -0.15548    -0.19836     -0.2107     -4.0727    -0.62028    -0.22532
-0.21362     -0.1649    -0.21005    -0.23376     -2.9336     -0.5498    -0.22824
-0.2146     -0.1727    -0.22532     -0.2854     -1.8916    -0.51992    -0.24383
-0.21005    -0.17854    -0.24545    -0.35037    -0.83336      -0.504    -0.26007
-0.19608    -0.17594    -0.26592    -0.39032      0.2999    -0.46275    -0.26299
-0.16912     -0.1636    -0.27209    -0.36758      1.3682    -0.38122    -0.24545
-0.13502    -0.14249    -0.24708    -0.26884       2.149    -0.26429      -0.212
-0.097017    -0.11391    -0.18699    -0.11748      2.4716    -0.13177     -0.1701
-0.061937   -0.081751    -0.10384    0.024461       2.301  -0.0034721    -0.12885
-0.029132   -0.050569   -0.014516    0.067661      1.7755     0.10534   -0.093119
0.0049729   -0.023285     0.06019   -0.045372      1.1473     0.19011   -0.059014
0.041676  -0.0028225     0.10664    -0.29645     0.65329     0.25507   -0.023285
0.07708    0.011469      0.1219    -0.60372     0.41488      0.3012    0.013418
0.10956    0.016666     0.11216     -0.8915     0.43924     0.32361    0.045899
0.13262    0.019914    0.086824     -1.1319     0.66238     0.31906    0.064737
0.13944    0.019914     0.05207     -1.3141     0.98524     0.28203    0.066362
0.13002    0.015042     0.01017      -1.382      1.3149     0.22032    0.054993
0.11476    0.010819   -0.035953     -1.2384      1.6176     0.15503    0.036479
0.10371    0.011469   -0.079802     -0.8051      1.9064     0.10924    0.016666
0.10436    0.020888    -0.11228    -0.10384      2.1835     0.09397   0.0020496
0.11833    0.037778    -0.12463     0.71175      2.4206     0.11541      0.0014
0.13814    0.055968    -0.11488      1.4465      2.5875      0.1729    0.020239
0.15211    0.069285   -0.084999      1.9717      2.6837     0.25313    0.048822
0.15373    0.073507   -0.044723      2.2302      2.7314     0.33758    0.077405
0.14074    0.070584  -0.0031473      2.2364      2.7538     0.39896    0.095594
0.12093    0.063438    0.033556      2.0532      2.7444      0.4191    0.099492
0.10859    0.058566    0.062464      1.7661      2.6931     0.39702    0.088773
0.10209    0.062464    0.082277      1.4598      2.5713     0.35187    0.074806
0.10144    0.074157    0.096244      1.1908      2.3134     0.30477    0.066362
0.10177    0.087474     0.10696     0.98687      1.8278     0.26255    0.067011
0.098517    0.096893     0.11086      0.8472      1.0703     0.22097    0.072858
0.087799    0.096893    0.099492     0.76372     0.10696       0.169     0.07708
0.06961    0.087799     0.06896     0.73059    -0.86584    0.099167    0.076755
0.05207    0.072208    0.023162     0.73806     -1.6447      0.0014    0.076431
0.040377    0.055318   -0.028807     0.76535     -2.1397    -0.12787    0.081303
0.038753    0.042001   -0.076879     0.79166     -2.2869    -0.26754    0.092996
0.049472    0.035505    -0.11066     0.80465     -2.0254    -0.37083     0.11378
0.071234    0.039727     -0.1217     0.80043     -1.3777    -0.38447     0.14139
0.098842     0.05272    -0.11033     0.78224    -0.53616    -0.28346     0.17452
0.1245    0.069285   -0.080776     0.75528     0.20018   -0.084024      0.2096
0.15081    0.086175   -0.031406      0.7215     0.57793     0.16283     0.24501
0.1768     0.10339    0.041351     0.66498     0.52174     0.39247     0.27749
0.20246     0.12028       0.131     0.56299     0.11216     0.55292     0.30152
0.22032     0.14139     0.22259     0.41553    -0.48061     0.62308     0.31386
0.22779     0.16315     0.29438      0.2515     -1.1721     0.60327     0.30964
0.22259     0.17355     0.33011     0.10404     -2.0111     0.51265     0.28853
0.20376     0.16835     0.31874  -0.0057458     -3.0057     0.37103     0.24988
0.16673     0.14626     0.26579   -0.087922     -3.9687     0.18816     0.19596
0.11054     0.10956     0.18427     -0.1675     -4.5466    -0.03173      0.1258
0.034855     0.06084    0.092021    -0.27111     -4.3435    -0.27696    0.041027
-0.05739   0.0059473  -0.0018481    -0.40981     -3.1749    -0.51439   -0.051868
-0.15418   -0.044723   -0.090845    -0.56701      -1.254    -0.70376    -0.14411
-0.23344   -0.085648    -0.16555    -0.71415     0.88358    -0.81484    -0.22077
-0.2854    -0.11326     -0.2172    -0.81809      2.5654    -0.83336    -0.26949
-0.30522    -0.13047    -0.24026    -0.86194      3.5204     -0.7658    -0.28833
-0.29515    -0.13697    -0.23344    -0.84797      3.7805    -0.63132    -0.28411
-0.26494    -0.13177    -0.20745    -0.79763      3.5866    -0.45625    -0.26624
-0.22921    -0.11943    -0.17919    -0.74208      3.1959    -0.27631     -0.2448
-0.20193    -0.10709    -0.16165    -0.70116       2.761     -0.1204    -0.22467
-0.18666   -0.099615    -0.16295     -0.6794      2.3303 -0.00054884    -0.20615
-0.17562    -0.09994    -0.17757     -0.6677      1.9437    0.083576    -0.18439
-0.16328    -0.10676    -0.19673    -0.65634      1.6592     0.14074    -0.15905
-0.14801    -0.11358    -0.20713    -0.64074      1.5105     0.17874    -0.12885
-0.13015    -0.11488    -0.19998    -0.61963      1.4575     0.19628   -0.095717
-0.11163    -0.10806    -0.17724    -0.59365      1.3487     0.17647   -0.068758
-0.097017   -0.097991    -0.15029    -0.56506     0.97063     0.10371   -0.057715
-0.089221   -0.088896    -0.12755    -0.53843     0.18719   -0.021337    -0.06551
-0.085324    -0.08305    -0.11456    -0.51667    -0.98147    -0.17822   -0.086298
-0.0837   -0.078178    -0.10903    -0.49815     -2.3119    -0.32795    -0.10644
-0.078827   -0.076554    -0.10514    -0.47802     -3.4386    -0.42085    -0.12008
-0.067459   -0.076879   -0.098316    -0.44813     -4.0194    -0.42572    -0.12463
-0.050894   -0.076554   -0.089546    -0.40006     -3.9174     -0.3403    -0.12203
-0.034004   -0.072656   -0.075579    -0.33445     -3.2353    -0.19738    -0.11326
-0.02426   -0.068434   -0.058689    -0.25682     -2.2365   -0.039201    -0.10254
-0.028482   -0.064536   -0.038876    -0.18082     -1.2001    0.094945   -0.092469
-0.048296   -0.061288   -0.017764    -0.11715    -0.32633     0.18751     -0.0837
-0.075579   -0.057715   0.0065969   -0.073631      0.2934     0.23948   -0.073631
-0.099615   -0.050894    0.031932   -0.061288     0.66043     0.26222   -0.062262
-0.11456   -0.041475     0.05142   -0.077853     0.79718     0.26547   -0.050569
-0.12463   -0.034329    0.054344    -0.10871     0.69876      0.2489   -0.039526
-0.13599   -0.033679    0.035505    -0.14119     0.38727     0.20798   -0.033679
-0.14476   -0.038551   0.0049729    -0.18017   -0.046671     0.14691    -0.03238
-0.14087   -0.039526   -0.012892    -0.22759    -0.48679    0.082927   -0.025234
-0.11488   -0.026858  -0.0067202    -0.28086    -0.85804    0.040052  -0.0037969
-0.070058   0.0020496    0.016016     -0.3299     -1.1419    0.024786    0.029658
-0.012892    0.041351    0.037778    -0.35621     -1.3394    0.036154    0.071883
0.050446    0.079029    0.044275    -0.34257     -1.4469    0.067011     0.11995
0.11411     0.10599    0.040052    -0.29385     -1.4658     0.11411      0.1703
0.16998      0.1219    0.042975    -0.22532      -1.431     0.17095      0.2187
0.21447     0.12872     0.06019    -0.16555     -1.3654     0.23981     0.25995
0.24306     0.13262    0.084226    -0.14834     -1.2189     0.32458      0.2921
0.25897     0.13457     0.10242    -0.15061     -0.8483     0.43372     0.31581
0.26872     0.13782     0.11768   -0.055116   -0.081101     0.57144     0.34017
0.28463     0.15016     0.14691      0.2528      1.1246     0.73352     0.37233
0.31386     0.17615     0.19823     0.74683      2.5934     0.90989     0.41553
0.35414     0.21772     0.26612      1.2704      4.0027      1.0694     0.46035
0.38857     0.26287     0.32913      1.6621      4.9593      1.1704     0.48861
0.39767      0.2895     0.36031      1.8372      4.9593      1.1746     0.48536
0.37395     0.28236     0.35024      1.7895      4.9593      1.0742     0.44704
0.32328     0.24078     0.30639      1.5488      4.9589     0.87903     0.37915
0.25637     0.18004     0.24663       1.172      4.9297     0.60229     0.28983
0.18719     0.11476     0.18719     0.73839      3.5152     0.25507     0.18914
0.11931    0.054019     0.13684     0.32816     0.85824    -0.13762      0.0852
0.048497  -0.0011985    0.088124  -0.0099683      -2.826    -0.54265   -0.023285
-0.034654   -0.054142    0.028359    -0.26137     -4.9698    -0.91813    -0.13567
-0.12657    -0.10481   -0.046671    -0.43612     -4.9701     -1.2196    -0.24415
-0.21005    -0.14801     -0.1269    -0.54882     -4.9695     -1.4014     -0.3338
-0.26916    -0.17692    -0.19186    -0.60664     -4.9701     -1.4398    -0.38999
-0.28898    -0.18407    -0.22174    -0.61184     -4.9698     -1.3517     -0.4124
-0.27274     -0.1714    -0.21297    -0.56766     -4.9695      -1.189    -0.40656
-0.23766    -0.14671    -0.18017    -0.48906     -4.9701     -1.0195    -0.38382
-0.20518    -0.12073    -0.14379    -0.40461     -4.9698     -0.8876    -0.35361
-0.18017    -0.10059     -0.1178    -0.33835     -4.9701     -0.8012    -0.32341
-0.16263   -0.085973    -0.11196    -0.30262     -4.9698    -0.74046    -0.29385
-0.15093   -0.076229     -0.1217     -0.2906     -4.9698    -0.67777    -0.25845
-0.14119   -0.072331    -0.13599    -0.28021     -4.9698     -0.5865    -0.21849
-0.13404   -0.071682    -0.14639    -0.25617     -3.3425    -0.46178    -0.18309
-0.13242   -0.072331    -0.14639    -0.22434     -0.8025    -0.32406    -0.15905
-0.13502   -0.068434    -0.14022    -0.20583      1.9509     -0.2068    -0.14834
-0.14152   -0.061937    -0.13275    -0.22077      4.0901    -0.13599    -0.15451
-0.15093    -0.05804    -0.12982    -0.27111      4.9589    -0.11975    -0.17172
-0.16685   -0.059339    -0.13177    -0.34647      4.9589    -0.15386    -0.20031
-0.18959   -0.067459    -0.14022     -0.4228      4.6621    -0.22726     -0.2448
-0.21849   -0.084349    -0.15516    -0.47932      3.5161    -0.31496    -0.30489
-0.24838    -0.10514    -0.17789      -0.504      2.5719     -0.3848    -0.36498
-0.27014      -0.123    -0.20615    -0.49653      2.3092    -0.39909    -0.40656
-0.27599    -0.13469    -0.23831    -0.46697      2.8737    -0.33413    -0.41988
-0.26429    -0.13957    -0.27664      -0.428      4.0287    -0.19413    -0.40786
-0.23636    -0.14119    -0.31561    -0.38967      4.9589  -0.0044465    -0.37408
-0.19836    -0.14119     -0.3442    -0.35167      4.9589     0.19758    -0.32146
-0.15516    -0.13892    -0.35459    -0.31074      4.9589      0.3798     -0.2526
-0.11131    -0.13275    -0.33965    -0.26592      4.9589     0.51979     -0.1727
-0.069408    -0.12235    -0.28898    -0.21849      4.9589     0.61204   -0.092794
-0.027833    -0.10806    -0.18666    -0.16945      4.3308     0.65199   -0.020362
0.011144    -0.09117   -0.028807    -0.11715      3.3177     0.64419    0.040052
0.045899   -0.073306     0.15763    -0.05739      2.3218     0.59547    0.086824
0.075456   -0.051868     0.32101    0.011469      1.3627     0.51427     0.11898
0.10242   -0.024909     0.42397     0.08585     0.59742     0.42268     0.14009
0.12905   0.0088706     0.45516     0.16185     0.21577     0.35024     0.15438
0.15373    0.042651     0.42755     0.23721      0.2606     0.31679     0.16608
0.16803    0.069934     0.36616     0.30834     0.60392     0.32263     0.17745
0.17257    0.087474     0.29633     0.36616     0.97322     0.34245     0.18914
0.16705    0.095919     0.23266     0.39799      1.0245     0.34017     0.19563
0.15276    0.096244     0.18362     0.39604     0.52044     0.28171     0.19336
0.13295    0.088773     0.14529     0.36259    -0.48419     0.16056     0.17745
0.10924     0.07708     0.11313     0.29827     -1.5879   0.0075714     0.15146
0.0865    0.062464    0.085525     0.21025     -2.2979    -0.13112     0.12158
0.06961    0.048497    0.062139     0.11054     -2.3109    -0.21557    0.094945
0.059865    0.037129    0.044599    0.028034     -1.6489    -0.22694    0.076431
0.059216     0.03518    0.037129  -0.0067202    -0.61411    -0.17172    0.070909
0.062464    0.041676    0.041676    0.021538     0.39572   -0.074605    0.074806
0.066037    0.055318    0.056617     0.11054      1.0599     0.03583    0.083901
0.070909    0.073832    0.080328     0.23786      1.2847      0.1284    0.095919
0.076755    0.090722     0.10696     0.36356      1.1424     0.19011     0.11118
0.081952    0.099492     0.12872      0.4295     0.79783     0.22065      0.1258
0.0865     0.10112     0.12743     0.39084     0.42235     0.22812     0.13749
0.091372    0.098193    0.090722     0.24501      0.1336     0.22422     0.14334
0.097868    0.096893     0.01894    0.046548   -0.029132     0.22097     0.14951
0.10436    0.096569   -0.064861    -0.11813   -0.083375     0.22324     0.16121
0.10826    0.095269    -0.13404    -0.17497   -0.083375     0.23201      0.1781
0.10761    0.086824      -0.161   -0.085648    -0.09182     0.23786     0.18979
0.097868    0.068635    -0.14736     0.11313    -0.14606     0.22974     0.18784
0.080653    0.042975    -0.11163     0.31614    -0.25065     0.20538     0.17192
0.057917    0.014717   -0.087272      0.3889    -0.38187     0.17095     0.14626
0.031282   -0.010618   -0.093444      0.2489    -0.51342     0.13392     0.11995
0.0043233   -0.029782    -0.12592    -0.09182    -0.62158     0.10339    0.097543
-0.014516   -0.040175    -0.16068    -0.55662    -0.69271    0.083576    0.083901
-0.021012   -0.039526    -0.17465     -1.0636    -0.71772    0.071558    0.076755
-0.014191   -0.026533    -0.16458     -1.5349    -0.69824    0.067011    0.073832
0.0036737  -0.0015233    -0.13859     -1.8682    -0.63555     0.06896    0.074157
0.030633    0.034206    -0.10741     -1.9137    -0.53128    0.077405    0.076755
0.064737    0.076755   -0.075255     -1.5379    -0.40526    0.092346    0.082277
0.099167     0.11508   -0.051219    -0.73786    -0.30197     0.10631    0.092996
0.12613     0.13977    -0.04862     0.31581    -0.26429     0.10501     0.10924
0.14269     0.14724   -0.073306      1.3351    -0.31659    0.083901     0.12775
0.14626     0.13782    -0.12398      2.0987    -0.46827    0.042326     0.14107
0.13522     0.11638    -0.19576      2.4855    -0.70603   -0.011917     0.14464
0.11411    0.090397    -0.28086      2.5005    -0.98959   -0.065835     0.14107
0.093645    0.067011    -0.36076       2.276     -1.2436    -0.10481     0.13457
0.080978    0.053369    -0.41468      1.9996     -1.4037    -0.11715     0.12353
0.079029    0.053694    -0.42735      1.7852      -1.444    -0.10384     0.11346
0.088448    0.063763    -0.38447      1.6342     -1.3576   -0.072981     0.10534
0.10112    0.076755    -0.27306      1.4815     -1.1634   -0.043423     0.10177
0.11248    0.085525    -0.10189       1.274    -0.89442   -0.024909    0.097868
0.11801     0.08585    0.080653      1.0067      -0.593   -0.018413    0.090072
0.11313    0.078055     0.22032      0.7215    -0.31171   -0.024909     0.07708
0.093645    0.065712     0.30282     0.48082   -0.096367   -0.046996    0.055968
0.057592    0.049472     0.36843     0.32458    0.032906   -0.082725    0.029658
0.0085458    0.031607     0.47464     0.24728    0.080978    -0.12105   0.0062721
-0.042124    0.012119     0.62536     0.22259    0.090072    -0.14379  -0.0067202
-0.079477  -0.0080194     0.77184     0.22324     0.10501    -0.13567  -0.0099683
-0.098641   -0.028807     0.86117     0.22097     0.14594   -0.097991  -0.0096434
-0.10384   -0.048296     0.85662     0.18589     0.19239   -0.054467   -0.010618
-0.09994   -0.064536     0.75495    0.091047     0.19726   -0.028157   -0.014191
-0.092145   -0.075904     0.58053   -0.069733     0.13652   -0.037902   -0.021337
-0.077853   -0.079477     0.38565    -0.27111    0.033881   -0.083375   -0.029782
-0.051219   -0.074605     0.23234    -0.46535   -0.072006    -0.14736   -0.035303
-0.012567   -0.061288     0.16023    -0.60631    -0.16815    -0.20648   -0.032705
0.033881   -0.041799     0.16575    -0.66608    -0.27988    -0.24221   -0.026533
0.075456   -0.020037     0.21188    -0.64692    -0.42897    -0.25033   -0.025884
0.10209  -0.0018481     0.25832    -0.57481    -0.58455    -0.23279   -0.031406
0.10664   0.0091954     0.28626    -0.48451    -0.68492    -0.19024   -0.038876
0.087149   0.0069217      0.2947    -0.41176    -0.63847      -0.123   -0.044723
0.047847  -0.0050961     0.28756    -0.37798     -0.3718   -0.034329   -0.045047
-0.0041217   -0.021661     0.27034    -0.39227    0.071234    0.066037   -0.042449
-0.063561   -0.036927     0.24533    -0.45041     0.56721     0.15763   -0.039851
-0.12203   -0.041799      0.2109    -0.53713     0.99726     0.21935   -0.042449
-0.16912   -0.035628     0.16445    -0.62223      1.3169     0.23461   -0.053168
-0.19576   -0.020037     0.10859    -0.68199      1.5504      0.2096   -0.069733
-0.2016   0.0010752    0.049472    -0.70376      1.7619     0.16543   -0.085324
-0.18926    0.024137   -0.012242    -0.69174      1.9658      0.1219   -0.097341
-0.16653    0.044275   -0.076554    -0.65763      2.0107    0.080978    -0.10546
-0.14184    0.049147    -0.14736    -0.61346       1.618    0.030957    -0.11358
-0.12917    0.024137    -0.22109    -0.57026     0.70526   -0.051868    -0.12755
-0.13632   -0.036927    -0.29482    -0.53875    -0.48971    -0.18829    -0.15256
-0.16782    -0.11943    -0.36336    -0.52316     -1.5586    -0.39129    -0.18959
-0.22077    -0.19836    -0.41858    -0.52089     -2.2011    -0.64367    -0.23636
-0.27826    -0.24838    -0.44943    -0.52381     -2.3187    -0.89897    -0.28378
-0.32243    -0.26299    -0.45301    -0.52414     -1.9975        -1.1    -0.32406
-0.33835    -0.24513    -0.44034    -0.51472     -1.4362     -1.1958    -0.34712
-0.32698    -0.20745    -0.42085    -0.49231    -0.85382     -1.1686    -0.34777
-0.2919    -0.16458    -0.39974    -0.45918    -0.41533     -1.0295    -0.32471
-0.24156    -0.13015    -0.38155     -0.4215    -0.20843    -0.82588     -0.2854
-0.18569    -0.10871    -0.36466    -0.38382    -0.22369    -0.61249    -0.23928
-0.13567   -0.096692    -0.34874    -0.35037     -0.3796    -0.42962    -0.19251
-0.10091   -0.088572    -0.33348    -0.32178    -0.63327    -0.29742    -0.15321
-0.080127   -0.081751    -0.31983    -0.29677    -0.96133    -0.20745    -0.12268
-0.065835   -0.071032    -0.30392    -0.27046     -1.2186    -0.13794   -0.099615
-0.055441   -0.055766     -0.2867    -0.23831     -1.2221   -0.076229   -0.080451
-0.044073   -0.035303    -0.26722    -0.20096     -0.9217   -0.021012   -0.064211
-0.027183   -0.015165    -0.25195    -0.16003    -0.42637    0.024786   -0.050244
-0.0021729   0.0043233    -0.24286     -0.1217     0.12255    0.058241   -0.036927
0.028684    0.020564    -0.23863   -0.089871     0.62828    0.081303   -0.026533
0.053694    0.032582    -0.23733   -0.070058       1.058    0.099492   -0.018088
0.066362    0.038428    -0.23668   -0.063237      1.3831     0.11508   -0.014516
0.066362    0.038428    -0.23571   -0.069408      1.4838     0.12645    -0.01549
0.058566    0.033881    -0.23441   -0.092469      1.1434      0.1284    -0.02426
0.042326    0.023162    -0.23766    -0.13534     0.23461     0.11378   -0.043748
0.016991    0.008221     -0.2474    -0.19771     -1.0649    0.082602   -0.072656
-0.01549  -0.0057458    -0.26104    -0.26592     -2.3262    0.054019    -0.10059
-0.050894   -0.016464    -0.27209    -0.31886     -3.1827    0.051745    -0.11813
-0.0837   -0.023935    -0.27079    -0.33932     -3.4123    0.092671    -0.11845
-0.10806   -0.030106    -0.25877    -0.32211     -2.9943     0.17874    -0.09929
-0.12073   -0.034329    -0.24091    -0.27599     -2.1011     0.29438   -0.070382
-0.11618   -0.036278    -0.21525    -0.22044     -1.0058     0.41293   -0.039851
-0.096367   -0.035953    -0.18601    -0.17854    0.020239     0.50777   -0.013216
-0.070058   -0.030756    -0.15451    -0.16977     0.73904     0.56689    0.011794
-0.04115   -0.019063    -0.11845    -0.20193      1.0203     0.58346     0.03453
-0.010293  -0.0057458   -0.080451    -0.27761     0.87643     0.54805    0.053694
0.018615   0.0088706    -0.04927     -0.3796     0.47919      0.4571    0.067011
0.038428    0.022512   -0.028157    -0.47932    0.079029     0.31744     0.06961
0.045249    0.033881   -0.017764     -0.5407    -0.15711     0.15114    0.058566
0.044275    0.039727   -0.013216    -0.53973    -0.18991  -0.0067202    0.039078
0.040377    0.040377  -0.0080194    -0.47055     -0.0837    -0.12268    0.023812
0.040052    0.040377    0.013418    -0.35426    0.079029    -0.17594    0.019914
0.045574    0.047523    0.071558    -0.21979     0.24566    -0.16847    0.029333
0.059541    0.067336     0.18297    -0.09994     0.40806    -0.11488    0.054668
0.081303    0.095919     0.34375   -0.025559     0.57891   -0.049595      0.0852
0.10436      0.1258     0.51817   -0.048296     0.75041  -0.0067202     0.11086
0.1219     0.14237     0.65556    -0.21427     0.89624  -0.0047713     0.11736
0.12548     0.13457     0.71143    -0.50562      1.0184   -0.044073     0.10599
0.11638     0.10144     0.67278    -0.79698      1.1168    -0.10871    0.082927
0.10209    0.055318     0.56851    -0.89117      1.1811     -0.1649    0.061814
0.090397    0.020888     0.45223    -0.61996      1.2279    -0.17919    0.056292
0.087149    0.015042     0.37136    0.021213      1.2912    -0.13437    0.071234
0.091696     0.03518      0.3431      0.8524      1.4016   -0.033679    0.098842
0.099492    0.064413     0.35804      1.6313      1.5615     0.10209     0.12548
0.10761    0.086175     0.39831      2.1753      1.7768      0.2463     0.14302
0.11508    0.095269     0.44444      2.4186      2.0818     0.37818     0.14984
0.12093    0.092671     0.47952      2.4047      2.4914     0.47789     0.14984
0.1232    0.082927     0.49511      2.2351      2.9169     0.52142     0.14204
0.12353    0.071558     0.49413      2.0071      3.1556     0.50323     0.12905
0.11963    0.062464     0.48114      1.7826      2.9445     0.43274     0.11573
0.11151    0.054344     0.45451      1.5806      2.0873     0.32816     0.10859
0.096893    0.044599     0.41196      1.4003     0.60489     0.21123     0.10566
0.07773    0.032582     0.34829      1.2334     -1.1793     0.10014     0.10209
0.054993    0.016991     0.24566      1.0733     -2.6812    0.011469    0.094295
0.030957   0.0010752    0.065062     0.91411     -3.4997   -0.035303    0.084876
0.014068   -0.012242    -0.24026     0.76145     -3.4799   -0.030431    0.080328
0.0091954   -0.023935    -0.67128     0.61821     -2.7302    0.022512    0.083901
0.014392   -0.035628     -1.1604     0.48017     -1.5609     0.10469    0.087474
0.022512   -0.043748     -1.5866     0.32913     -0.3351     0.19271    0.086175
0.029333   -0.044073     -1.8377     0.14724     0.63445     0.26125    0.079354
0.031282   -0.036278     -1.8562   -0.050894      1.1684     0.28593     0.06019
0.026735   -0.024585     -1.6502     -0.2172      1.2685     0.24988     0.02706
0.012443    -0.01484     -1.2952    -0.29677      1.0902     0.15471   -0.016464
-0.010618   -0.011592    -0.89832    -0.28248     0.84785    0.008221   -0.063237
-0.039851   -0.019063    -0.55824    -0.21265     0.66271     -0.1701    -0.10611
-0.070707   -0.036602    -0.33965    -0.14574      0.5893    -0.35069    -0.14022
-0.096042   -0.067134    -0.27241    -0.13372     0.64452     -0.4962    -0.16588
-0.11066    -0.10676    -0.36173    -0.19543     0.77769    -0.57059    -0.17822
-0.11033    -0.14866    -0.58325    -0.31431     0.88195    -0.55564    -0.17205
-0.097991    -0.17919    -0.86324     -0.4543     0.85272    -0.46307    -0.14639
-0.077853    -0.19121     -1.0877    -0.57741     0.67538    -0.32568    -0.10741
-0.054792    -0.18374     -1.1364    -0.65341     0.45028    -0.18407   -0.064861
-0.033354    -0.16198    -0.93632     -0.6755     0.31451   -0.070707   -0.030431
-0.01614     -0.1334    -0.50822    -0.66933      0.3405   0.0023744  -0.0096434
-0.0024977    -0.10384    0.041027    -0.68329      0.5055    0.042651   0.0033489
0.014717   -0.071682     0.56137      -0.758     0.71403    0.063763    0.016991
0.040702   -0.035628      0.9362    -0.86129     0.85889    0.088448    0.037454
0.074482   0.0062721      1.1113    -0.86031       0.893     0.13814    0.067336
0.11443    0.053369      1.1051     -0.6297      0.8394     0.22584     0.10274
0.15731     0.10274     0.98687    -0.19381     0.73546     0.34829     0.14237
0.19953     0.14951     0.84038     0.27846     0.53668     0.47237     0.18004
0.23461     0.19011     0.72994     0.59775    0.085525     0.55877     0.20928
0.26157     0.22097     0.68057      0.6744    -0.70668     0.58865     0.22909
0.28008     0.24046     0.68252     0.53473     -1.6798     0.56299     0.23851
0.28918     0.24695     0.70558     0.28203     -2.5607     0.49836     0.23656
0.28593     0.23981     0.71468    0.031607     -3.1645     0.40871     0.22454
0.26612     0.22162     0.68837    -0.13924     -3.4523     0.30639     0.20668
0.22844     0.19563     0.62308     -0.2042     -3.5234      0.2096     0.18459
0.17452      0.1677     0.52759    -0.17692     -3.4552     0.14074     0.16056
0.11281     0.13944     0.42397   -0.098965     -3.1775     0.11086     0.13587
0.052395     0.10859     0.33205    -0.02426     -2.6104     0.10696     0.10924
0.0052977    0.071234     0.26125  -0.0057458     -1.8529    0.090722    0.073182
-0.032055    0.024461     0.20798   -0.072656     -1.0857    0.022188    0.020239
-0.06616   -0.028157     0.16933    -0.21752    -0.37343    -0.10286   -0.045047
-0.097341   -0.078503     0.14172    -0.39714     0.36096    -0.25325    -0.11196
-0.12333    -0.11651     0.12483    -0.55467      1.2529    -0.37798    -0.16588
-0.14022    -0.13534     0.11606    -0.64951      2.3199    -0.44554    -0.19771
-0.14736    -0.13469     0.11508    -0.67323      3.3982    -0.45301     -0.2042
-0.15191    -0.12073     0.12028     -0.6336      4.2522     -0.4189    -0.19154
-0.15678    -0.10156     0.13035    -0.54493      4.6254    -0.36693    -0.16718
-0.16458    -0.08305     0.14042     -0.4241      4.2544     -0.3299    -0.14249
-0.1727   -0.068434     0.14659    -0.29645      3.0345    -0.32698    -0.12463
-0.17594   -0.060313     0.14919    -0.19056      1.2064    -0.33835    -0.11683
-0.17335   -0.059989     0.14399     -0.1308    -0.79048     -0.3351    -0.11845
-0.17302   -0.067784     0.12548      -0.123     -2.4096    -0.31366     -0.1321
-0.18244   -0.088247    0.081303    -0.16945     -3.3883    -0.30327    -0.16133
-0.2029    -0.11651    0.013418    -0.27111     -3.6527    -0.34452    -0.20713
-0.23051    -0.14444   -0.063886    -0.41825     -3.2912    -0.44943    -0.25877
-0.2552      -0.161    -0.12268     -0.5524     -2.4343    -0.57968     -0.2984
-0.26397    -0.15646     -0.1321    -0.57708     -1.1932    -0.66348    -0.30847
-0.24448    -0.12885   -0.078503    -0.45203      0.2541    -0.64042    -0.27761
-0.19219   -0.081101    0.028684    -0.23149      1.5283    -0.49328     -0.2094
-0.12138   -0.024909     0.15731  -0.0076946      2.2491    -0.26039    -0.12138
-0.053492    0.024137     0.26904     0.14302      2.2293   -0.013216   -0.033679
-0.0054209    0.058891     0.33433     0.19011      1.6443     0.17452    0.034206
0.016016    0.075456      0.3457     0.14821     0.97972     0.27132    0.075131
0.015042    0.075781     0.31646    0.060515     0.64549     0.28236    0.092996
0.003024    0.067986     0.26742   -0.030756     0.60879     0.23299    0.096893
-0.012242    0.053369     0.21252    -0.10481     0.42105     0.14854    0.092346
-0.029457     0.03583     0.15893     -0.1597    -0.36856    0.033231     0.07773
-0.052843    0.015042     0.10599    -0.20096     -1.8169    -0.11423    0.046548
-0.08305  -0.0063954    0.050446    -0.23896     -3.4701    -0.28313  -0.0031473
-0.11326   -0.025559  -0.0083442    -0.27306      -4.642    -0.43969   -0.061288
-0.1295   -0.038876   -0.067134     -0.2932     -4.8561    -0.54752    -0.10968
-0.13047   -0.043748    -0.11878    -0.29158     -4.1272     -0.5943    -0.13404
-0.12073   -0.041799    -0.15711    -0.27534     -2.8738    -0.59917     -0.1334
-0.10676   -0.036602    -0.18407    -0.25975     -1.5811    -0.59722    -0.12008
-0.095717   -0.030106    -0.19219     -0.2461     -0.5485    -0.60729    -0.10968
-0.084349    -0.02426    -0.18017    -0.22726     0.11638    -0.61736    -0.10774
-0.073631   -0.020037    -0.14996    -0.19706     0.42527    -0.59884    -0.11391
-0.061613   -0.016464    -0.11391    -0.17627     0.47692    -0.53291    -0.12333
-0.050569   -0.014516   -0.081426    -0.18309     0.40189    -0.42475    -0.12917
-0.0405   -0.011917    -0.04862    -0.19511     0.32621    -0.29677    -0.12885
-0.034004  -0.0031473  -0.0073698    -0.15711     0.33303    -0.16458    -0.11845
-0.02361    0.017965    0.046548   -0.034978     0.45646   -0.037577   -0.096367
-0.0050961    0.045574     0.10631     0.15828     0.68739    0.084226   -0.063886
0.01894    0.070584     0.15731      0.3785      0.9794     0.19953   -0.026209
0.043625     0.08585     0.18492     0.57014      1.3071     0.30282   0.0095202
0.057917    0.091047     0.17452     0.68187      1.6803     0.38825    0.042326
0.058241    0.091047     0.11833     0.69162      2.0886     0.45321    0.070259
0.048172    0.090722    0.022188     0.62178      2.4813     0.49608    0.095269
0.040702     0.09397    -0.10286     0.53019      2.7736     0.51979     0.11736
0.041676    0.097868    -0.22824     0.48471      2.8902     0.52889      0.1349
0.053694    0.098842    -0.32308     0.53116      2.7818     0.52596     0.15276
0.071558    0.094945    -0.36985     0.67148       2.428     0.51265     0.16608
0.096893    0.088124    -0.36985     0.85564      1.8586     0.49998     0.17257
0.12418    0.081627    -0.34062      1.0187      1.1057     0.49836     0.17615
0.14432    0.077405    -0.30814      1.0947      0.2044     0.50745      0.1781
0.14756    0.070909    -0.29255      1.0359    -0.74111     0.51784     0.17615
0.13684    0.058891    -0.31009     0.81439     -1.5502     0.51492      0.1703
0.11801    0.038753    -0.36238     0.45873     -2.0774     0.48991     0.16445
0.096244    0.013418    -0.43514    0.053369      -2.232     0.44931     0.15568
0.075781   -0.014191    -0.50465    -0.31691     -1.9949     0.41456     0.14789
0.055968   -0.037902    -0.55402    -0.61443     -1.4177     0.40254     0.14464
0.039078   -0.055116    -0.56506    -0.83498    -0.61346     0.40903     0.14561
0.031282   -0.062262    -0.52479    -0.93112     0.26125     0.42722     0.15276
0.040377   -0.058365    -0.41663     -0.7999     0.99076     0.44314     0.16185
0.059216   -0.045697    -0.22012    -0.39941       1.324     0.44314     0.16608
0.072208   -0.030106    0.070584     0.16185      1.0941     0.40773     0.15893
0.065387    -0.02361     0.43112     0.67635     0.39247     0.32848     0.13717
0.033231   -0.032705     0.78191     0.96738     -0.4582     0.21772    0.098842
-0.019063   -0.055441      1.0301     0.94302     -1.1218    0.096244    0.047847
-0.080127   -0.084349      1.1187     0.61756      -1.457   -0.026209  -0.0089938
-0.12852    -0.10449      1.0616     0.11411     -1.5421    -0.14671   -0.060638
-0.14769   -0.099615     0.91801    -0.37603     -1.5905    -0.26202    -0.09182
-0.12885   -0.070058     0.74456    -0.69986     -1.7383    -0.35784   -0.094743
-0.076554   -0.030756     0.57891    -0.79503     -1.9182    -0.40688   -0.073306
-0.0089938  -0.0031473     0.42982    -0.70083     -1.9767    -0.38837   -0.039201
0.047198  -0.0011985     0.28885    -0.53875     -1.7997    -0.31042  -0.0083442
0.079029   -0.022636     0.15016    -0.44131     -1.3605    -0.19803    0.013418
0.087474   -0.056091     0.01764    -0.47477    -0.74403   -0.078178    0.022512
0.084226   -0.087597   -0.098965    -0.59202    -0.11196    0.020888    0.020564
0.080003    -0.10579    -0.19381     -0.6336     0.35284    0.077405    0.015367
0.082277    -0.10384    -0.26884    -0.41403     0.52207    0.076106    0.010819
0.095269   -0.079802    -0.32568     0.14821     0.37948    0.011794   0.0056225
0.11866   -0.043748    -0.36498     0.94821     0.01017    -0.11001  -0.0037969
0.14204   -0.008669    -0.39162      1.7651    -0.40591    -0.26397   -0.017439
0.15828    0.012768    -0.41046      2.3783    -0.67875    -0.41078    -0.03238
0.16023    0.015042    -0.43027      2.6379    -0.70798    -0.51439   -0.045372
0.15016  0.00042559    -0.45755      2.5086    -0.50075    -0.55175   -0.052518
0.13067   -0.021012    -0.48549      2.0597    -0.11326    -0.50627    -0.04992
0.10436   -0.037902    -0.48776      1.4276     0.39864    -0.38447   -0.036602
0.073832   -0.045697     -0.4202      0.7569       0.931    -0.21525   -0.016789
0.040052   -0.045372    -0.26039     0.15114      1.3451   -0.045047   0.0039985
-0.0015233     -0.0405    -0.04927    -0.32828      1.5397    0.078055    0.021213
-0.048296   -0.036602     0.13912    -0.65081      1.4689     0.13684     0.03518
-0.095068   -0.034004      0.2593    -0.81517      1.1814     0.14951    0.054993
-0.12625   -0.025559     0.30087     -0.8431     0.90599     0.15991    0.089098
-0.12398  -0.0041217     0.28333    -0.77392     0.86831     0.20181     0.13782
-0.080776    0.032906     0.24046     -0.6336      1.0794     0.28333     0.19044
-0.0037969    0.080003     0.19758     -0.4556        1.35     0.39279     0.23656
0.087474     0.12937     0.16121    -0.27761      1.4367     0.50648     0.26579
0.17225     0.17257      0.1271    -0.11845      1.2327     0.60359     0.27716
0.22974     0.20278    0.082602    0.025436     0.88325     0.66661     0.27099
0.24338     0.21123     0.01764     0.16348     0.68285      0.6835     0.24663
0.2083     0.19466    -0.06681     0.28756     0.79393      0.6416     0.20018
0.1349     0.15633     -0.1597      0.3798      1.0996     0.54026     0.13425
0.045249     0.10729     -0.2448     0.42625      1.3344     0.38987    0.060515
-0.039526    0.054993    -0.31074     0.42755      1.2623     0.20278   -0.014516
-0.11098   0.0072465    -0.36466     0.39474     0.82024  -0.0089938   -0.088572
-0.1714   -0.034978    -0.42117     0.33173     0.15471    -0.23019    -0.15613
-0.21882    -0.07428    -0.49198     0.23851    -0.54915    -0.44261    -0.21395
-0.24903    -0.11196    -0.57383     0.11476     -1.1802    -0.63652    -0.26007
-0.25747    -0.14346    -0.65861   -0.031406     -1.6067    -0.80055     -0.2945
-0.24448    -0.16035    -0.73039    -0.18601     -1.6528    -0.91261    -0.31756
-0.21622    -0.16003    -0.77456    -0.32568     -1.1981    -0.94476    -0.32698
-0.18017    -0.14314    -0.78269    -0.43319    -0.23961    -0.88273    -0.31886
-0.14671    -0.11488     -0.7502    -0.49491      1.0427    -0.73169     -0.2919
-0.1191   -0.079802    -0.68654    -0.52219      2.3241    -0.52284    -0.25195
-0.097017   -0.044723    -0.60469    -0.53388      3.3118    -0.29677    -0.20615
-0.078178   -0.013216    -0.51439     -0.5485      3.7347   -0.094418    -0.16328
-0.060313     0.01017    -0.41013    -0.57481      3.3817    0.054019     -0.1256
-0.045697    0.024137    -0.28021    -0.60047      2.2754     0.13587   -0.093444
-0.034004    0.026735    -0.12268    -0.59982     0.73546     0.15731   -0.064536
-0.029457    0.020888    0.050446    -0.55272    -0.84472      0.1323   -0.036927
-0.031406     0.01017     0.20343    -0.46632     -2.2787    0.073832   -0.017439
-0.038876  -0.0037969      0.3025    -0.37505     -3.6351  -0.0021729   -0.013541
-0.050244   -0.017764     0.33952    -0.32113     -4.8632   -0.079152   -0.027508
-0.062587   -0.032055     0.32523    -0.31951     -4.9698    -0.13794   -0.053817
-0.067459   -0.044723     0.29178    -0.35361     -4.9704    -0.16523   -0.084349
-0.064211   -0.052843     0.27489    -0.39941     -4.7258    -0.15158    -0.10871
-0.052843   -0.053168     0.29275    -0.44781     -2.9556    -0.10351    -0.11488
-0.041475   -0.048945     0.33368     -0.5105    -0.83985   -0.039526    -0.10221
-0.036927   -0.042449     0.37038    -0.60567       1.032    0.014392   -0.079152
-0.040175   -0.034329     0.38045    -0.74501      2.2319     0.03583   -0.059339
-0.051544   -0.023935     0.35544    -0.90384      2.8363    0.009845   -0.056416
-0.068109   -0.010293     0.30087     -1.0442      3.2206   -0.056091   -0.071357
-0.087922   0.0026992     0.22682     -1.1351      3.8507     -0.1321   -0.095717
-0.10481    0.010819     0.15211     -1.1578      4.9586    -0.17692    -0.11813
-0.11196    0.012768    0.084876     -1.1137      4.9593    -0.16295     -0.1321
-0.10579    0.016016     0.03518     -1.0123      4.9589    -0.10026    -0.13437
-0.090845    0.022512   0.0085458    -0.85479      4.9589   -0.039851    -0.12592
-0.073306    0.031607   0.0023744    -0.64334      4.9589   -0.047321    -0.11521
-0.061613    0.037778   0.0046481    -0.39909      4.8989    -0.16425    -0.11261
-0.054792    0.037454   0.0020496    -0.16165     0.41066    -0.36758    -0.11683
-0.044723    0.032257   -0.011267    0.034855     -4.3423    -0.58001    -0.12138
-0.02426    0.024786   -0.035953     0.17452     -4.9695    -0.71935    -0.11456
0.0069217    0.018615    -0.06551     0.25475     -4.9698    -0.74306   -0.090196
0.040052    0.013093   -0.093119     0.27781     -4.9698    -0.66348   -0.049595
0.067336    0.008221     -0.1217     0.25053     -4.9698    -0.53258   -0.010293
0.082277   0.0033489    -0.15061     0.19011     -4.9698    -0.40428    0.014068
0.080978  -0.0021729    -0.17594     0.11898     -4.5212    -0.30619    0.018615
0.063113   -0.010618    -0.19381    0.058566     -2.2927    -0.23149    0.008221
0.037778   -0.016464    -0.19836    0.021538    -0.62028    -0.15223  -0.0063954
0.01764   -0.012567    -0.18634    0.010819     0.42982   -0.046347   -0.018413
0.0052977   0.0017248    -0.15873    0.021538      1.0008      0.0865   -0.021986
-0.0057458    0.018615    -0.10449    0.047523      1.2685     0.22454   -0.017764
-0.01614    0.032582  -0.0011985    0.080653      1.3321     0.33238   -0.008669
-0.020687    0.039402     0.16218     0.11963      1.2584     0.38727   0.0020496
-0.019712    0.036479     0.35154     0.16185      1.1363     0.38987   0.0095202
-0.015165    0.023812     0.50777     0.20181      1.0528     0.35576    0.012443
-0.0096434   0.0039985     0.58021     0.23526      1.0694     0.31094    0.010495
-0.0037969   -0.017114     0.55097     0.24793      1.2032     0.26612   0.0065969
0.0033489   -0.029132     0.43762     0.23136      1.3662     0.22097  0.00075039
0.0017248   -0.031406     0.27684     0.19271      1.4003     0.17322   -0.007045
-0.012892   -0.032055     0.10794     0.13977      1.2402     0.12385   -0.021661
-0.043099   -0.035953   -0.027183    0.070584     0.99726    0.080003   -0.039201
-0.0837   -0.040175   -0.094093   -0.018738      0.8878    0.059216   -0.049595
-0.12333   -0.035953   -0.078827    -0.12073      1.0161    0.072533   -0.044723
-0.14411   -0.018413   0.0046481    -0.21492      1.3088     0.11313    -0.02361
-0.13502    0.013093     0.11183    -0.28833      1.6027     0.16608   0.0072465
-0.097341    0.050446     0.19921    -0.33088      1.7034     0.21902    0.042326
-0.042449     0.08585     0.24436     -0.3325      1.4747     0.26352     0.07773
0.021863     0.11054     0.25118    -0.28053     0.99141     0.29892     0.10924
0.088124     0.11671     0.23331    -0.17075     0.49641     0.32978     0.13295
0.14756    0.097868     0.21382   -0.010293     0.22519     0.35934     0.15016
0.19304    0.058566     0.20733     0.17972     0.26644     0.39149     0.16478
0.22292    0.015042     0.21902     0.36681     0.54448     0.42852     0.18134
0.23591    -0.01549     0.24598     0.52369     0.89592     0.47172     0.20246
0.23559   -0.025559     0.28431     0.63445      1.1697     0.51427     0.22422
0.22422   -0.016464     0.32686     0.69129      1.2704     0.54415     0.23656
0.20635   0.0088706     0.36941     0.70071      1.1571     0.54935     0.23331
0.18589    0.042651     0.39896     0.67505     0.78451     0.52207     0.21675
0.16543    0.071558     0.40059     0.62893    0.098193      0.4597     0.19271
0.14951    0.087799     0.37265     0.57826    -0.79145     0.36973     0.17225
0.14269    0.089423     0.32393     0.53246     -1.6252     0.26742     0.15861
0.14269     0.07773       0.258     0.49251     -2.1709     0.16413     0.14594
0.13652    0.057592     0.16218     0.45093     -2.3564    0.066362     0.12807
0.11671    0.031607  -0.0076946     0.40091     -2.3525   -0.022636     0.10339
0.082277   0.0020496    -0.30457     0.34017     -2.4473   -0.097341    0.078704
0.038103   -0.024909    -0.73916     0.27651     -2.8205    -0.15061    0.061165
0.00010078   -0.045697       -1.24      0.2148      -3.385    -0.18244    0.054668
-0.017114   -0.056741     -1.6769     0.15796     -3.8843    -0.19608    0.055643
-0.012242   -0.060963     -1.9263     0.10859     -4.1496    -0.19738    0.057592
0.0078962   -0.059014     -1.9211    0.070909     -4.1633    -0.19348    0.058891
0.02706   -0.052518     -1.6779    0.046223     -3.9327    -0.19121    0.059865
0.028684   -0.044073     -1.2813    0.031282     -3.4617    -0.20031    0.061814
0.0049729   -0.037902    -0.84375    0.020239     -2.7601    -0.21817    0.059541
-0.034004   -0.033679    -0.46275    0.011794     -1.8597    -0.23246    0.053369
-0.074605   -0.028482    -0.18861     0.01017    -0.84083    -0.22726    0.045899
-0.10384   -0.018088   -0.025234    0.023487     0.21382    -0.19641    0.039078
-0.11553  -0.0018481    0.058891    0.057917      1.2415    -0.14216    0.030308
-0.11131    0.014068     0.10436     0.11541      2.1942   -0.065835    0.020564
-0.096367    0.019914     0.13847     0.18589      3.0107    0.025436    0.014392
-0.073631   0.0095202     0.16868     0.25118      3.5876     0.11573    0.013743
-0.048945    -0.01484     0.19693     0.30022       3.752     0.17582    0.014717
-0.02426     -0.0405     0.21675     0.32881      3.2833     0.17387    0.013418
-0.0021729   -0.054792     0.22389     0.32848      2.0707    0.092346   0.0065969
0.011144   -0.059989     0.22324      0.2895     0.29438    -0.06681  -0.0080194
0.009845   -0.058689     0.22292     0.20408     -1.4612    -0.26949   -0.028807
0.00075039    -0.04862     0.23818    0.074157     -2.5594    -0.45236   -0.051219
-0.0047713   -0.027833     0.28398   -0.086948     -2.8306    -0.56312   -0.070058
-0.0034721  0.00010078     0.35804    -0.24675     -2.5097    -0.58618   -0.082076
0.0036737    0.028034     0.43762    -0.36563     -1.9582    -0.53551   -0.085648
0.012768    0.053044     0.48991    -0.41988     -1.3582    -0.43384   -0.077853
0.01894    0.073507     0.49218    -0.40396    -0.66316     -0.2971   -0.059664
0.017316    0.087149     0.44184    -0.33185      0.2463    -0.13697   -0.037577
0.0033489    0.090072     0.36161    -0.22499      1.3542    0.030633   -0.020037
-0.02361    0.079679     0.28171    -0.10936      2.5148     0.18004   -0.013216
-0.055441    0.057267     0.22714 -0.00022403      3.5119     0.29373   -0.017439
-0.079477     0.02706     0.20505    0.092996      4.1076     0.36453   -0.028807
-0.087597   -0.008669     0.20863     0.14594      4.1278     0.39117   -0.045047
-0.085324   -0.046347     0.22065      0.1271      3.5613     0.36941   -0.063886
-0.0837   -0.081426     0.22487     0.01894      2.6119     0.29503   -0.084024
-0.094418    -0.10644     0.21317    -0.16718      1.5325     0.16933    -0.10611
-0.11943    -0.11651     0.18232    -0.40169     0.46165    0.003024    -0.12852
-0.15061    -0.11358     0.14139    -0.63327    -0.56117    -0.18569    -0.15418
-0.17594    -0.10351     0.10436    -0.73721     -1.5135    -0.39616    -0.18634
-0.18731   -0.084674    0.092671    -0.58065     -2.2667    -0.62126    -0.22304
-0.18374   -0.054467     0.12255     -0.1623      -2.575     -0.8379    -0.25812
-0.16458   -0.011917     0.18914     0.36356     -2.2641    -0.99284    -0.27988
-0.1334    0.038103     0.27164      0.8079     -1.3355     -1.0357    -0.27956
-0.094743    0.081952     0.34635      1.0629    -0.01614    -0.94574    -0.25682
-0.055441     0.10729     0.39831      1.1035      1.2314    -0.74078    -0.21492
-0.022636     0.10794     0.41845     0.97063      1.9437    -0.47542     -0.1597
-0.0011985    0.083251     0.40546     0.73676      1.8882    -0.22272    -0.10156
0.0065969    0.042326     0.36746     0.47367       1.159    -0.03303   -0.051219
0.0049729   0.0020496     0.31744     0.23883      0.1336    0.078379   -0.013541
0.0078962   -0.023285     0.27326    0.062789    -0.73039     0.12872    0.015692
0.024137   -0.028807     0.24143   -0.044073     -1.1328     0.14951    0.041351
0.054019   -0.019388     0.22649   -0.091495     -1.0143      0.1716    0.071234
0.087149  -0.0057458     0.22357    -0.09117    -0.50335     0.21188     0.10242
0.11313   0.0085458     0.22747   -0.063237     0.18004     0.27034     0.12872
0.12937    0.024461     0.23396   -0.019712     0.81667     0.33887     0.14464
0.13587    0.042001     0.24143    0.026085      1.2707     0.40741     0.14919
0.13847    0.059216     0.24695     0.06831      1.5118       0.461     0.14432
0.14302    0.072208     0.24566    0.097218      1.5689     0.48926      0.1349
0.15179    0.077405     0.23559     0.10761      1.4738     0.48536     0.12645
0.15828    0.072858     0.21252    0.094945      1.2142     0.44834     0.12353
0.15503    0.063438     0.17517    0.064737     0.76795     0.38467     0.12125
0.14042    0.053369     0.11995    0.018615     0.18004     0.30412     0.11281
0.11346    0.042651    0.047523   -0.040825     -0.4267     0.21707    0.093645
0.072208    0.028684   -0.032705    -0.10806    -0.87915     0.13522    0.067986
0.01764   0.0088706    -0.11131    -0.17042     -1.0347    0.073832    0.041027
-0.044398   -0.021661    -0.20388    -0.22889    -0.85512     0.04395    0.016016
-0.10579   -0.063886    -0.35004    -0.31821    -0.42377    0.048497  -0.0018481
-0.15678    -0.10774    -0.57253    -0.46405    0.098517    0.084226   -0.012242
-0.18959    -0.13762    -0.83433    -0.63262     0.51395     0.13295   -0.012242
-0.19933    -0.13989      -1.051    -0.76644     0.70428     0.17615  -0.0060706
-0.18017    -0.11423     -1.1315    -0.84245     0.67213      0.2096   0.0026992
-0.14119   -0.069733     -1.0325    -0.89377      0.5055     0.23364    0.014392
-0.090845   -0.018413    -0.77067     -0.9282     0.30672     0.25507    0.029333
-0.037902     0.03453    -0.41663    -0.85609     0.16413     0.28106    0.045899
0.0085458    0.081627   -0.062912    -0.55629     0.12872     0.31062    0.061814
0.0433     0.11801     0.20116   -0.035953     0.22032       0.347    0.079029
0.062464     0.13197     0.32588     0.53831     0.43827     0.38987    0.095594
0.069285      0.1219     0.31322     0.98297      0.7189      0.4295     0.10566
0.064413    0.091372     0.20505      1.1993     0.87351     0.43827     0.10177
0.047523    0.050771    0.063438      1.1983     0.66076     0.38532    0.080328
0.023162    0.011469   -0.058365       1.072    0.090072     0.26027    0.046873
-0.0024977   -0.017439     -0.1282      0.9375    -0.51374    0.079679   0.0075714
-0.020687   -0.034004    -0.14022     0.87806    -0.74078    -0.10871   -0.028482
-0.024585   -0.039201    -0.10709     0.91411    -0.41955    -0.25455   -0.053168
-0.017114   -0.036278   -0.047971      1.0028     0.28301     -0.3312   -0.058689
-0.0018481   -0.026209    0.015367      1.0642     0.96803     -0.3416   -0.045697
0.013743   -0.013216    0.065062      1.0174      1.2461    -0.30814   -0.020687
0.024461  -0.0018481    0.088773     0.80692     0.95276    -0.26722   0.0043233
0.022837    0.003024    0.087149     0.42885     0.22812    -0.25877    0.016016
0.010495  -0.0018481    0.069934    -0.06616     -0.5826    -0.30067    0.010495
-0.0060706   -0.011917    0.049796    -0.58293     -1.1695    -0.38252  -0.0063954
-0.019388   -0.019712    0.038753     -1.0351     -1.4521    -0.46827   -0.021986
-0.021337   -0.017764    0.046548     -1.3651     -1.5177    -0.52024   -0.027183
-0.011592  -0.0054209    0.067011     -1.5353     -1.4723    -0.51277   -0.016464
0.0043233   0.0095202    0.084551     -1.5414     -1.3362    -0.43677   0.0017248
0.019914    0.021863    0.082602      -1.417     -1.0412    -0.30717     0.01894
0.030633    0.031932    0.059216     -1.1968    -0.49718    -0.14899    0.029333
0.037129    0.041676    0.030308    -0.88305     0.29957   0.0069217    0.029009
0.041351    0.049147    0.013093     -0.5014      1.1363     0.12613    0.020888
0.038103    0.050121    0.019264    -0.12463      1.6885     0.18297   0.0043233
0.025761    0.038103    0.038753     0.17322      1.7567     0.17127   -0.020687
0.0075714    0.015042    0.057592     0.36356      1.4286    0.097543   -0.054142
-0.012567   -0.013216    0.064737     0.45613     0.99661   -0.019712   -0.093119
-0.034004   -0.039526    0.061814     0.47692     0.74618    -0.15905    -0.13275
-0.054142   -0.060638    0.053369     0.45028     0.77834    -0.29905    -0.16815
-0.073631   -0.076879    0.033556      0.3824     0.95276    -0.41858    -0.19738
-0.090196   -0.087922  -0.0011985     0.26904     0.99596    -0.50433    -0.22174
-0.10741   -0.093769   -0.052843    0.097543     0.74099    -0.55142    -0.24675
-0.12982    -0.09994    -0.11683     -0.1334     0.29697     -0.5537    -0.27144
-0.15873    -0.11098    -0.18309    -0.39129   -0.077528     -0.5066     -0.2906
-0.18634     -0.1243    -0.22889    -0.60989    -0.18894    -0.41176     -0.2945
-0.20225    -0.13275    -0.23766    -0.71415  -0.0063954    -0.27696    -0.27696
-0.20063    -0.12982    -0.19803    -0.66088     0.34959    -0.12073    -0.23571
-0.18244    -0.11391    -0.11001    -0.46502     0.65394    0.030308    -0.17659
-0.14964   -0.086298   0.0078962    -0.20258     0.70623     0.15114    -0.10968
-0.10644   -0.055441      0.1219    0.022188     0.45743     0.23559   -0.046347
-0.05739   -0.027833     0.20311     0.16185   0.0075714     0.29373    0.010819
-0.0080194  -0.0021729     0.24273     0.23818    -0.51764      0.3444    0.060515
0.039078    0.022512     0.24566     0.29665     -1.1192     0.39864     0.10599
0.082927    0.047523     0.22519     0.36551      -1.861     0.45775     0.14789
0.12255    0.070584     0.19726     0.43859     -2.7458     0.51492     0.18849
0.15796    0.089423      0.1742     0.49641     -3.6631     0.56332     0.22649
0.18687     0.10112     0.15633      0.5094     -4.3335     0.59515     0.25735
0.20083     0.10274     0.13295     0.45191     -4.3442     0.58768     0.26547
0.18849    0.090072    0.091047     0.32556     -3.4104     0.51265     0.24143
0.14594    0.063438    0.028034     0.16445     -1.6545     0.35869     0.18069
0.080328    0.023487   -0.050894   0.0056225     0.43827     0.13977     0.09462
0.0046481   -0.024909    -0.13502    -0.13404      2.1857    -0.11358  -0.0015233
-0.070058   -0.071682     -0.2107    -0.24773      3.2459    -0.36271   -0.092469
-0.13307    -0.11358    -0.25877    -0.33023      3.5506    -0.57741    -0.16815
-0.17302    -0.13957    -0.26592     -0.3848      3.1387    -0.74143    -0.22239
-0.18926    -0.14639    -0.23409    -0.43157      2.1581     -0.8418     -0.2513
-0.19024    -0.13047    -0.17789    -0.48224     0.90664    -0.87168    -0.25455
-0.18536   -0.097666    -0.11683    -0.52641    -0.19511    -0.82361    -0.23571
-0.17757    -0.05804   -0.063886    -0.54493    -0.81322    -0.69726    -0.20063
-0.16782   -0.024585   -0.027183     -0.5485     -0.9191    -0.51894    -0.15418
-0.15581  -0.0076946   -0.011917    -0.59235    -0.75605    -0.32438    -0.10514
-0.14249   -0.010618   -0.019063    -0.72942     -0.6742    -0.14574   -0.060313
-0.12463   -0.027833   -0.048945    -0.95938    -0.86746   0.0059473   -0.024585
-0.10254   -0.052843   -0.095393     -1.2351     -1.2436     0.13295  0.00010078
-0.079802   -0.078827    -0.14996     -1.5083     -1.5726     0.24338    0.013418
-0.059664    -0.09929     -0.2029     -1.7448     -1.7311     0.33433    0.015692
-0.043748    -0.11423    -0.24968     -1.9228      -1.811     0.38078    0.009845
-0.033679    -0.12138     -0.2893     -1.9936     -1.9526     0.35576  -0.0028225
-0.026209    -0.11683    -0.31918     -1.8581     -2.1943      0.2567   -0.017114
-0.014516   -0.097666     -0.3364     -1.4109     -2.4353     0.10534   -0.028157
0.00010078    -0.06681    -0.33737    -0.63945     -2.5064   -0.056741   -0.035953
0.013093   -0.027183    -0.31918     0.31451     -2.3268    -0.19998   -0.039201
0.024137    0.012119    -0.27664      1.1762     -1.9695    -0.31399   -0.039526
0.031607    0.042975    -0.21005      1.7219     -1.5934    -0.40234   -0.038551
0.038103    0.059216    -0.12982      1.8496      -1.278     -0.4634   -0.034004
0.047847    0.063763   -0.052193       1.605    -0.95581    -0.48061   -0.022961
0.062464    0.062464   0.0033489       1.134    -0.51082    -0.43741  -0.0021729
0.080003    0.056617    0.025761     0.60035    0.081952    -0.32828     0.02641
0.099492    0.050446    0.014068     0.15373     0.71793    -0.17172    0.057592
0.11443    0.045899   -0.022636    -0.10806      1.2522   0.0020496    0.092996
0.12775    0.047847   -0.064211    -0.14639       1.591     0.16121     0.13392
0.14399    0.058891   -0.089221    0.014068       1.707     0.28756     0.17485
0.1664    0.078704   -0.083375     0.31614      1.6537     0.36648     0.20733
0.18946     0.10079    -0.04862     0.69097      1.5186      0.3889     0.22292
0.20083     0.11898      0.0014      1.0599      1.3555     0.35771     0.22129
0.19304     0.12645    0.048822      1.3588      1.1415     0.28593     0.20246
0.16608     0.12093    0.082602      1.5598     0.86149     0.20311     0.17062
0.12548     0.10469    0.095919      1.6521      0.5526     0.13652     0.13165
0.081952    0.080328    0.089423      1.6271     0.25702    0.096244    0.088773
0.045574    0.055318    0.065062        1.49   -0.026858    0.080328    0.047847
0.024461     0.03583     0.02706      1.2698    -0.30717    0.077405    0.015692
0.021213    0.026735   -0.016789      1.0077    -0.56961    0.074157   0.0010752
0.031932    0.030308   -0.058365     0.73774    -0.77132    0.064737 -0.00087364
0.048172    0.039727   -0.089221     0.48601    -0.85512    0.050771   0.0033489
0.064737    0.047198    -0.10741     0.26287    -0.78139    0.042651    0.013743
0.077405    0.046873    -0.12235    0.075781     -0.5459     0.05207     0.02641
0.08585    0.038428    -0.14184   -0.069083    -0.19219    0.084551     0.04395
0.096893    0.029333    -0.17497    -0.17627     0.18881     0.14172    0.067986
0.11054    0.020564    -0.22532    -0.27111     0.48699     0.21772    0.098842
0.11833    0.012443    -0.29482    -0.37375     0.61918     0.30185     0.13165
0.11118   0.0049729    -0.36888    -0.47477     0.57761     0.38435     0.16056
0.090072   0.0010752    -0.40234    -0.52251     0.42462       0.461     0.18524
0.076431   0.0049729    -0.33835    -0.45495     0.27196     0.52466     0.20376
0.076431    0.018615    -0.13892    -0.25065     0.26872     0.57339     0.21512
0.090397    0.044924     0.19011      0.0433     0.52272     0.61626     0.22032
0.11086    0.082602     0.57631     0.34375      1.0031     0.67018     0.22617
0.13262     0.12515     0.91638     0.57274      1.5322     0.73806     0.23526
0.14919      0.1625      1.1311     0.69454      1.8599     0.79848     0.24695
0.15016     0.18394      1.1895      0.7137       1.796     0.81764     0.25118
0.13262     0.18524      1.1161     0.66303      1.3753     0.76762     0.24273
0.10112     0.16933     0.96056     0.58151     0.85077     0.64582     0.21447
0.067336     0.14237     0.77054     0.49153     0.38402     0.45808       0.169
0.039078     0.11021     0.58281     0.39247    -0.12787     0.21512     0.11118
0.013418    0.075131     0.41098     0.27424    -0.87493   -0.072006    0.051096
-0.0099683    0.042651     0.26027      0.1349     -1.8039    -0.36076  -0.0015233
-0.030106    0.015367      0.1349   -0.014516     -2.5519    -0.59105   -0.039201
-0.044723  -0.0024977     0.03583    -0.14834     -2.7393    -0.71058   -0.060313
-0.051219   -0.013866   -0.039851    -0.23441      -2.218    -0.69791    -0.06551
-0.046996   -0.020362   -0.090196    -0.25422     -1.1312    -0.56766   -0.059664
-0.036602    -0.02426    -0.11813    -0.21135     0.16185    -0.37213   -0.044723
-0.024585   -0.025884     -0.1308    -0.13957      1.1899    -0.19154   -0.027833
-0.01484   -0.026209    -0.13112   -0.075579       1.643    -0.10449   -0.019388
-0.0096434   -0.025234    -0.11845   -0.051868      1.4341    -0.14249   -0.025234
-0.0034721   -0.019712   -0.094093   -0.093444     0.65134    -0.27566   -0.044073
0.0091954   -0.012567   -0.068758     -0.2029    -0.42312    -0.44651   -0.068109
0.027385  -0.0037969   -0.053168    -0.35621     -1.3722    -0.59625   -0.090196
0.045899  0.00075039   -0.056091     -0.5092     -1.8675    -0.68005    -0.10644
0.06019      0.0014   -0.074605    -0.61314     -1.7409     -0.6703    -0.11521
0.058891 -0.00022403   -0.099615    -0.64432    -0.99803    -0.56247    -0.11845
0.042651  -0.0047713    -0.12333    -0.60502     0.24111    -0.37213    -0.11618
0.012119   -0.012567    -0.14346    -0.52479      1.7606    -0.12982    -0.11196
-0.033354   -0.022636      -0.161    -0.44066      3.3027     0.12093    -0.10741
-0.09182   -0.036602    -0.17692    -0.38382      4.5893     0.32523    -0.10936
-0.16198   -0.053492    -0.19998    -0.37408      4.9589     0.42397    -0.12495
-0.23181   -0.073631    -0.23506     -0.4189      4.9589     0.37883    -0.15873
-0.2893   -0.098641    -0.28346    -0.51342      4.4776     0.18946      -0.212
-0.33153    -0.12755    -0.33607    -0.62938       2.825    -0.10774    -0.28118
-0.35946    -0.15321    -0.37668    -0.73039     0.66855     -0.4582    -0.35524
-0.37473      -0.174    -0.39681    -0.78853     -1.4307    -0.79438    -0.41858
-0.37603    -0.18439    -0.39616    -0.79178     -2.8595     -1.0484     -0.4608
-0.36433    -0.18244    -0.38122    -0.74403     -3.4344     -1.1679    -0.47282
-0.34225    -0.17107    -0.35849    -0.66153     -3.2467     -1.1354    -0.45268
-0.31171    -0.15288    -0.33153    -0.56474     -2.5691    -0.98017    -0.40786
-0.27371    -0.13437    -0.30262    -0.47119     -1.7035     -0.7567    -0.34907
-0.23181    -0.11878    -0.27144     -0.3861    -0.87655    -0.51797    -0.28768
-0.18926    -0.10546    -0.23961    -0.30782    -0.22207    -0.30132    -0.23149
-0.14931   -0.090196    -0.21005    -0.23701     0.19076    -0.13015    -0.18342
-0.11878   -0.073306    -0.18342    -0.17432     0.37525  -0.0083442    -0.14476
-0.10026   -0.056091     -0.1597    -0.12625     0.39312    0.071558    -0.11943
-0.094743   -0.045372    -0.13989   -0.094743     0.32101      0.1206    -0.10579
-0.096692   -0.044073    -0.12235   -0.077528     0.23494     0.14789    -0.09929
-0.096042    -0.04927    -0.10546   -0.067134     0.19531     0.16445   -0.092469
-0.084999   -0.054142   -0.085648   -0.051544       0.258     0.18459   -0.078503
-0.064861   -0.053817   -0.063237   -0.024585     0.43469     0.21935   -0.055441
-0.04115   -0.044073   -0.038227    0.016016     0.68674     0.26807   -0.029782
-0.017764   -0.026209   -0.012892    0.065387     0.94464     0.32069  -0.0047713
0.0065969  -0.0024977     0.01017     0.10989      1.1204     0.36908    0.017316
0.028034    0.023487    0.028684     0.14529      1.1509     0.40708    0.040377
0.04395    0.047847    0.039402      0.1703      1.0843     0.43372    0.063438
0.053694    0.063438    0.041676     0.18849      1.0814     0.45158    0.081303
0.058241    0.067986     0.03583     0.20148       1.249      0.4623    0.091696
0.064737    0.065062     0.03583     0.21447      1.5023     0.46945     0.10112
0.081303    0.066037    0.049147     0.23591      1.6134     0.48147     0.11963
0.10891    0.072533    0.074482     0.26612      1.4393     0.50063     0.15146
0.14204    0.080978     0.10242      0.2921     0.93847     0.50615     0.18979
0.16478      0.0865     0.12158      0.2908       0.131      0.4714     0.22227
0.16543      0.0852     0.12515     0.25183    -0.84797     0.37688     0.23526
0.14367    0.072858      0.1206     0.18524     -1.8435     0.22617      0.2187
0.10859    0.049796     0.11313     0.10826     -2.7536    0.038428     0.18069
0.072858    0.024137     0.10371    0.039078     -3.3977    -0.15126     0.13555
0.043625   0.0036737     0.09397  -0.0060706     -3.5552     -0.2971    0.098842
0.029009  -0.0080194    0.086175    -0.01549     -3.1164    -0.36985    0.073832
0.029333   -0.012892    0.078055    0.011794     -2.1784    -0.36661    0.058566
0.042001   -0.010943    0.067336     0.06831    -0.99641    -0.30197    0.054344
0.062789 -0.00087364    0.057917     0.14529     0.13847    -0.18959    0.063438
0.089098    0.016341    0.057267     0.23559     0.97745   -0.046022    0.087474
0.11638    0.038428    0.070584     0.32686      1.4383     0.10469      0.1219
0.13782    0.062789    0.096893     0.40286      1.6238     0.23721     0.15926
0.14594    0.082927     0.12775     0.44996       1.757     0.33173     0.18946
0.1362    0.092346     0.15049     0.46035      1.9986      0.3863     0.20505
0.10794    0.091696     0.15568     0.43794       2.352     0.40351     0.20635
0.065712    0.084226     0.14204     0.38922      2.6876     0.38727     0.19693
0.014717    0.072858     0.11411     0.31744      2.8324     0.32946     0.17615
-0.038876    0.055968    0.082277     0.22844      2.6863     0.22422     0.14204
-0.086298    0.034855    0.055318     0.14302      2.2643    0.080328    0.097868
-0.11651    0.016991    0.038428    0.080328      1.6332   -0.067784    0.048822
-0.12657   0.0049729    0.029658    0.040702     0.76535    -0.18504   0.0059473
-0.12527  -0.0037969    0.022188    0.010819    -0.44748    -0.26754   -0.028807
-0.12333    -0.01549   0.0091954   -0.034329     -1.9936    -0.34484   -0.060638
-0.12982   -0.034004   -0.013541    -0.10449     -3.6358    -0.44554    -0.09117
-0.14119   -0.057065   -0.040175    -0.18634     -4.9103    -0.56149    -0.12073
-0.14866    -0.07493   -0.059989    -0.24935     -4.9701    -0.64074    -0.14119
-0.14216   -0.080451   -0.066485    -0.27339     -4.9704    -0.63068    -0.14346
-0.11845    -0.07493   -0.063237     -0.2578     -3.9307    -0.51862     -0.1243
-0.087922   -0.070058    -0.05804    -0.23116     -2.8991    -0.34744   -0.094418
-0.062262   -0.073631   -0.069083    -0.23993     -2.2628    -0.18114    -0.06681
-0.044398     -0.0837    -0.10481    -0.30879     -2.0644   -0.068758   -0.052518
-0.034004   -0.096042    -0.16035    -0.41468     -2.0754   -0.027183   -0.052843
-0.02361    -0.10221     -0.2172    -0.49815     -2.0108   -0.036927   -0.061937
-0.0067202    -0.09994    -0.25325    -0.50303      -1.698    -0.06551   -0.067134
0.020564   -0.086948    -0.25227    -0.41111     -1.1335     -0.0824   -0.059014
0.06019   -0.066485     -0.2107     -0.2565    -0.42962   -0.071682    -0.03303
0.10696   -0.039851    -0.14574    -0.10774     0.26287   -0.029457   0.0075714
0.15438   -0.012892   -0.075579   -0.034004     0.77769    0.033881    0.056292
0.19466    0.012443   -0.018738   -0.073955     0.99109     0.11443     0.10501
0.22422    0.033881    0.015042    -0.18082     0.78256      0.2044     0.14951
0.24111    0.057267    0.032257    -0.20128    0.020564      0.2947     0.17939
0.24436    0.083576    0.048497   0.0026992     -1.1936     0.37298     0.19044
0.23071     0.11443    0.082277     0.41715     -2.4619     0.42885     0.18069
0.19823     0.14107     0.13944      0.8891     -3.3425     0.45516     0.15763
0.15016     0.15763      0.2044      1.2568     -3.5163     0.45223     0.13295
0.091696     0.15309     0.24468       1.428     -2.8959      0.4204     0.11313
0.035505      0.1258     0.22779      1.3887     -1.6899     0.35934    0.096244
-0.0063954    0.082927     0.14756      1.1856    -0.24708     0.26547     0.07773
-0.029132    0.036479    0.021213     0.88358      1.0726     0.14107    0.053694
-0.038876  -0.0037969    -0.11131     0.53279      1.9645  -0.0076946    0.025761
-0.037577   -0.032705    -0.21135     0.18232      2.3338    -0.15451  -0.0021729
-0.022961   -0.047646    -0.24968   -0.072656      2.3212    -0.26169   -0.025884
0.0043233   -0.044723    -0.21882    -0.14671      2.2195    -0.30392   -0.037902
0.037129   -0.026209    -0.13924   -0.050569      2.3079    -0.28963   -0.037577
0.063113  -0.0024977   -0.046671     0.11346      2.6934     -0.2461    -0.03238
0.072858    0.015692    0.026085     0.24436      3.2803    -0.19576    -0.03238
0.064737    0.019589    0.061165     0.28593      3.8962    -0.15321   -0.036927
0.041676     0.01017    0.053369     0.23006      4.4055    -0.13275   -0.045372
0.011144  -0.0050961    0.013418     0.11995      4.7339    -0.13534    -0.05739
-0.016464    -0.02361   -0.044723    0.015042      4.8475    -0.15029   -0.071357
-0.037577   -0.040825    -0.10611    -0.03303      4.7238    -0.15905   -0.081426
-0.053492   -0.055116    -0.15483   -0.007045      4.3668    -0.14119   -0.078503
-0.066485   -0.060963    -0.18342    0.075131      3.7708   -0.093119   -0.062587
-0.075255    -0.05804    -0.19576       0.169      2.9308   -0.022636   -0.036927
-0.075255   -0.045047    -0.18374     0.21837      1.8658    0.056292  -0.0089938
-0.061288    -0.02426    -0.10676     0.17225     0.58963     0.12158    0.016991
-0.036602   0.0033489    0.082927    0.019914    -0.88727     0.14626    0.039078
-0.0076946    0.036154     0.37006    -0.18764     -2.4886     0.11995    0.058891
0.019914     0.06961     0.67473    -0.37473     -4.0896    0.055968    0.074482
0.039078    0.095594     0.90469    -0.48321     -4.9701   -0.015165    0.084226
0.051096     0.10859      1.0051    -0.48906     -4.9698   -0.057715    0.095269
0.062139     0.10696     0.96868    -0.39941     -4.9701   -0.035953     0.11443
0.078379    0.095919     0.82414    -0.25195     -4.9701    0.055643     0.14042
0.10534    0.081627     0.62146   -0.096042     -4.2516     0.18589     0.16705
0.13847    0.068635     0.40643     0.02641     -2.6195     0.30834     0.18102
0.1638    0.058566     0.21837    0.096569      -0.974     0.38467      0.1755
0.16835    0.048497    0.078055     0.12028     0.54708     0.39929     0.15016
0.14951    0.039078   -0.011917      0.1206      1.8574     0.35284     0.11281
0.11248    0.030633   -0.057065     0.12028      2.9088     0.26449    0.075456
0.064737    0.021538   -0.071032     0.12678      3.6529     0.15828    0.042001
0.01829    0.010819   -0.068758      0.1362      4.0547    0.051096   0.0078962
-0.019063  -0.0028225    -0.06616     0.12255      4.0261   -0.050894   -0.026858
-0.047646   -0.017114   -0.075904    0.042975       3.444    -0.15451   -0.065186
-0.072331   -0.032055    -0.10611    -0.13177      2.2926    -0.26787    -0.10579
-0.094093   -0.046347    -0.15353    -0.38285     0.73611    -0.39811    -0.14769
-0.11521   -0.059664    -0.21037    -0.66186    -0.83206    -0.54298    -0.18601
-0.1282   -0.072981    -0.26657    -0.92982     -1.9507    -0.67355    -0.21525
-0.13047   -0.086948    -0.30879     -1.1708     -2.4213    -0.75053    -0.23311
-0.12268   -0.096042    -0.31983     -1.3472     -2.2583    -0.75573    -0.24221
