-0.019063   -0.027183    0.028034     0.18979    -0.24805  0.00075039    0.013418
-0.0031473   -0.018738    0.029009     0.17745    -0.19283    0.039727    0.019589
0.0039985  -0.0057458    0.022512      0.1625    -0.14281    0.075131    0.023812
0.0039985   0.0056225    0.014717     0.14854    -0.10481     0.10404    0.023162
0.00075039    0.010495   0.0075714     0.14009   -0.071357     0.12353    0.020564
-0.0018481    0.008221   0.0065969     0.13652   -0.039201     0.13262    0.016991
-0.0041217   0.0033489   0.0095202     0.13717  -0.0099683     0.13002    0.012119
-0.0076946  0.00075039    0.016341     0.13814    0.013743     0.12385   0.0049729
-0.011917   0.0023744    0.023487      0.1349    0.033881     0.11995 -0.00054884
-0.018413   0.0091954    0.031282     0.12645    0.054668     0.12028  -0.0076946
-0.02426     0.01894    0.034855     0.11281    0.073507     0.12028   -0.018738
-0.026533    0.024137    0.033881     0.10014    0.086175     0.11346   -0.033679
-0.025559    0.022188     0.02641    0.092671    0.086824     0.10177   -0.047321
-0.025234    0.013093    0.014717    0.092996    0.080328    0.091047   -0.052843
-0.025559   0.0033489   0.0020496     0.10079    0.068635    0.080003   -0.048945
-0.023285  -0.0018481  -0.0093186     0.11248    0.055318    0.074157   -0.038227
-0.015165  -0.0028225   -0.015815     0.12028    0.047523    0.076106   -0.022961
-0.0080194  0.00075039   -0.020687     0.11086    0.052395    0.088448  -0.0096434
-0.0044465   0.0046481   -0.027508     0.06961    0.068635     0.10696  -0.0015233
-0.0089938   0.0056225   -0.037902  -0.0067202    0.090397     0.12515  0.00042559
-0.018088 -0.00087364    -0.04992    -0.10449     0.10924      0.1336  -0.0031473
-0.030756   -0.010618   -0.060963    -0.20225     0.12223       0.131   -0.010618
-0.045047   -0.017764    -0.06551    -0.26884     0.13197     0.11963   -0.020037
-0.056416   -0.019712   -0.059989    -0.28378     0.14529     0.10469    -0.02361
-0.061288   -0.016464   -0.049595    -0.24513       0.169    0.088124   -0.019388
-0.058365  -0.0093186   -0.035628    -0.15646     0.20408    0.072208   -0.012567
-0.048945  -0.0011985   -0.021661   -0.028807     0.22941    0.055643  -0.0054209
-0.03173   0.0078962   -0.011592     0.12028     0.22877    0.037778   0.0020496
-0.010293     0.01764  -0.0054209     0.26092     0.19921    0.015692   0.0091954
0.009845     0.02706  -0.0034721     0.36518     0.15503  -0.0057458    0.013418
0.023487    0.032906  -0.0073698     0.40708     0.11248    -0.02361    0.017316
0.027709    0.032257   -0.018413     0.38435    0.078379   -0.037252     0.01829
0.022188    0.028359   -0.033679     0.32556    0.046548   -0.050569    0.016341
0.012443    0.021213   -0.051868     0.26255    0.010819   -0.064211    0.011144
0.0046481    0.012119   -0.072981     0.21545   -0.027508   -0.078178   0.0088706
-0.00022403   0.0033489   -0.093769     0.19628   -0.063237   -0.089221    0.010819
-0.0037969  -0.0028225    -0.10546     0.20278   -0.087597   -0.094743    0.015367
-0.0057458  -0.0018481    -0.10091     0.22552   -0.094093   -0.094418     0.01764
-0.0050961   0.0052977   -0.078503      0.2515   -0.079802   -0.089871    0.016991
-0.00087364    0.017316   -0.044398     0.27067    -0.05804     -0.0824    0.016991
0.0049729    0.029658   -0.008669     0.27684   -0.037902   -0.075255    0.016016
0.010819    0.036479     0.01764     0.26742   -0.030106   -0.072656    0.011469
0.017316     0.03583    0.029983     0.24176   -0.038227   -0.072006   0.0020496
0.023162    0.030957    0.028684     0.20213   -0.058365   -0.072981   -0.007045
0.025111    0.027385     0.01894     0.15081   -0.084674   -0.073955   -0.010293
0.021863     0.02641   0.0059473    0.092021    -0.11326   -0.078178  -0.0073698
0.019914    0.028359   -0.007045    0.031932    -0.14087     -0.0837 -0.00054884
0.023162     0.03453   -0.017114   -0.020362     -0.1662   -0.087272   0.0078962
0.029333    0.040377   -0.026533    -0.05739    -0.18536   -0.087922    0.015367
0.030308    0.040377   -0.034004   -0.070058    -0.19348   -0.089221    0.019589
0.02706    0.030633   -0.042449   -0.059989    -0.18829   -0.089871    0.019589
0.021863    0.013093   -0.053492   -0.035953    -0.16815   -0.088572    0.018615
0.01894  -0.0041217    -0.06616  -0.0076946    -0.13404   -0.084024    0.014717
0.01829   -0.016464   -0.078178    0.015692   -0.095393   -0.074605    0.011794
0.01764   -0.025234   -0.088896    0.025111   -0.063237   -0.065835   0.0091954
0.015042   -0.035953    -0.09994    0.012443    -0.04115   -0.063886   0.0049729
0.010819   -0.047971    -0.10838   -0.015165   -0.029782   -0.067459   0.0023744
0.0085458   -0.049595    -0.10124   -0.039201   -0.018738   -0.071032  0.00042559
0.010495   -0.035303    -0.06616   -0.054467 -0.00087364    -0.06681   0.0010752
0.019914  -0.0083442  -0.0073698   -0.082725    0.021213   -0.051868   0.0046481
0.032582    0.020888    0.054993    -0.14087    0.038753   -0.029457   0.0069217
0.048172    0.046548     0.10144    -0.20096     0.05207  -0.0067202   0.0072465
0.059216    0.063763     0.12872    -0.21362    0.072208    0.012768  0.00010078
0.059216    0.070259     0.14204    -0.16782     0.10209    0.024137  -0.0099683
0.05142    0.065712     0.13944   -0.096692     0.13327     0.02706   -0.018088
0.039727    0.053369     0.12093   -0.041475     0.15081    0.022512   -0.022961
0.026085    0.039402    0.091047   -0.020037     0.14951    0.013743   -0.026533
0.011794     0.02641    0.055643   -0.034004     0.12807   0.0039985   -0.032055
-0.00087364    0.013743    0.024786   -0.072006    0.097868  -0.0031473   -0.039201
-0.012567  0.00010078  0.00010078    -0.11033    0.070909  -0.0067202   -0.046671
-0.019712   -0.016464   -0.017439    -0.12722    0.049472  -0.0096434   -0.052843
-0.022636   -0.036927   -0.032055     -0.1191    0.026085   -0.012892   -0.058365
-0.024909   -0.054792    -0.04862    -0.10416  -0.0028225   -0.018413   -0.063237
-0.032705    -0.06681   -0.070058    -0.11098    -0.03238   -0.023935   -0.064211
-0.046347   -0.071682   -0.087597    -0.15191   -0.051219   -0.026533   -0.060963
-0.057715   -0.068109   -0.086948    -0.21005   -0.052518   -0.023285   -0.051868
-0.061613   -0.058689   -0.059664    -0.25357   -0.039526   -0.014516   -0.035953
-0.055116   -0.045697   -0.016464    -0.26202   -0.018088  -0.0063954   -0.014191
-0.041475   -0.027833    0.025436    -0.23246   0.0020496  -0.0037969   0.0062721
-0.028157  -0.0076946    0.047523    -0.18017    0.013093  -0.0057458    0.020239
-0.019063    0.008221      0.0433    -0.13404    0.012119  -0.0096434     0.02706
-0.013541    0.014068    0.017965    -0.11488   0.0020496   -0.011917    0.024461
-0.01549    0.009845   -0.014516    -0.12073   -0.013216   -0.014191    0.014068
-0.023935 -0.00022403   -0.040825    -0.13112   -0.029132   -0.019712   0.0017248
-0.03303   -0.010293   -0.048945     -0.1243   -0.044073   -0.027183  -0.0076946
-0.034004   -0.015815   -0.038227   -0.093444    -0.05739   -0.036927   -0.013216
-0.022311   -0.013541   -0.010618    -0.04862   -0.071357   -0.047971   -0.013216
-0.0021729  -0.0044465    0.026735  -0.0076946   -0.085648   -0.059989   -0.012567
0.015042   0.0069217    0.062789     0.01764   -0.098641   -0.070707    -0.01484
0.020564    0.015367    0.090722    0.022188    -0.10481   -0.077203   -0.020037
0.011469    0.017965     0.10534   0.0069217    -0.10221   -0.076879   -0.023285
-0.0054209    0.015367     0.10794   -0.026209   -0.093444   -0.066485   -0.019712
-0.020362   0.0091954    0.099492   -0.071032   -0.085973   -0.047321  -0.0093186
-0.023935   0.0017248    0.082277    -0.11878     -0.0837   -0.021661      0.0014
-0.010943  -0.0060706     0.06019    -0.16003   -0.087597   0.0046481   0.0091954
0.012443   -0.010618    0.030957    -0.18959   -0.097666    0.024461    0.015367
0.038103   -0.010943   -0.011592    -0.20908    -0.11066    0.037778    0.025436
0.061165  -0.0096434   -0.064861    -0.22109    -0.11715    0.046223    0.042975
0.078704  -0.0080194    -0.12203    -0.23311    -0.10871    0.053044    0.065062
0.091047  -0.0041217     -0.1727    -0.24026   -0.084999    0.054344    0.080328
0.093321 -0.00022403    -0.20908    -0.22597   -0.056741    0.046223    0.082277
0.0852   0.0023744    -0.22044    -0.17627   -0.035953    0.031607    0.071558
0.067336   0.0036737     -0.2029   -0.092145   -0.028157    0.014068    0.054993
0.047198   0.0023744    -0.16328   0.0052977   -0.036278   0.0065969    0.037129
0.031282  -0.0024977    -0.11813    0.092671   -0.054467    0.011794    0.024461
0.021538   -0.011917   -0.081101     0.15309   -0.072981    0.023812    0.021863
0.017965   -0.022636   -0.059989     0.18004   -0.081101    0.037778    0.024461
0.021863   -0.033679   -0.054792     0.17745   -0.069408    0.049147    0.028034
0.027385   -0.043099   -0.060638     0.15146   -0.043423    0.053694    0.029983
0.029333   -0.047971   -0.071357     0.11216   -0.013866    0.051745    0.028359
0.023487   -0.051219   -0.082076    0.075131    0.009845     0.04395    0.023487
0.0095202   -0.059014   -0.088896    0.059865    0.021538    0.032257    0.015042
-0.007045   -0.069083   -0.089221    0.073832     0.01829     0.01829   0.0075714
-0.017764   -0.073306   -0.076229     0.11248   0.0056225   0.0069217   0.0046481
-0.017764    -0.06616   -0.051219     0.15633  -0.0054209  -0.0021729   0.0078962
-0.008669   -0.044723   -0.017439     0.18329  -0.0050961  -0.0093186    0.012443
0.0062721   -0.014191    0.016991     0.18199   0.0049729   -0.012892     0.01829
0.023487    0.016341    0.046873     0.15698     0.01829   -0.015165    0.025111
0.03518    0.039402    0.067986     0.11995    0.031607   -0.015815    0.031932
0.03518    0.048822    0.077405    0.080978    0.047523   -0.014191    0.037778
0.024786    0.044599    0.074482      0.0433    0.071234   -0.013866    0.036804
0.010819    0.032257    0.063763     0.01017     0.10339   -0.012242    0.027385
-0.0024977    0.021863    0.049796   -0.017114     0.13782   -0.012892    0.013093
-0.012892    0.016666    0.037454   -0.037902      0.1664   -0.018413  -0.0031473
-0.020037     0.01764    0.032257   -0.053168     0.18134   -0.027508   -0.019388
-0.023935     0.01829    0.031282   -0.061613     0.18427   -0.034329   -0.034004
-0.024585    0.015692    0.031607   -0.060638     0.17907   -0.037577   -0.044398
-0.023935    0.011144    0.030308   -0.055766     0.17127   -0.036278    -0.04927
-0.023285   0.0065969    0.031607   -0.053817     0.16413   -0.034978    -0.04927
-0.022311   0.0020496    0.037129   -0.062587     0.15796   -0.036602    -0.04992
-0.025884  -0.0015233    0.044275   -0.080451     0.14626   -0.038551   -0.052843
-0.032055  -0.0015233     0.05207   -0.095068     0.12255   -0.041475   -0.053817
-0.041799 -0.00054884    0.054019   -0.081101    0.080003   -0.042774   -0.054467
-0.053168 -0.00054884    0.048172   -0.030756     0.01764   -0.042774   -0.052193
-0.064211  -0.0083442    0.033881    0.041676   -0.050569   -0.044073   -0.047646
-0.073631    -0.02426    0.016991     0.11443    -0.10676   -0.049595   -0.043423
-0.077528   -0.042774   0.0078962     0.16218    -0.14022    -0.05739   -0.043748
-0.078178   -0.056416    0.010495     0.17517    -0.14769   -0.060638   -0.047646
-0.079152   -0.062587    0.021213     0.15373    -0.13664   -0.059664   -0.050569
-0.079152   -0.059014    0.034206     0.11086    -0.11748   -0.052193   -0.046671
-0.079802   -0.050244    0.041027    0.059216   -0.096367   -0.040825   -0.035303
-0.077528   -0.042774    0.042651    0.014392   -0.077203    -0.03303   -0.021337
-0.071032   -0.038227    0.041351   -0.014191   -0.063886   -0.031081  -0.0089938
-0.062262   -0.038227    0.036479   -0.021337    -0.05804   -0.029782  -0.0044465
-0.052843   -0.040175    0.030633   -0.012892    -0.05739   -0.025234   -0.011267
-0.042449   -0.044398    0.026735   0.0046481   -0.057065    -0.01484   -0.020687
-0.03173   -0.048945     0.02641    0.023812    -0.05739  -0.0024977   -0.027508
-0.020037   -0.049595    0.025436    0.033231   -0.059339   0.0039985   -0.025234
-0.012242   -0.043423    0.022188    0.021213   -0.063237    0.003024   -0.015815
-0.0083442    -0.03303    0.014068   -0.016789   -0.070707  0.00075039  -0.0073698
-0.0054209   -0.021986   0.0056225   -0.068109   -0.081751  0.00075039  -0.0057458
-0.0047713   -0.013541 -0.00054884    -0.11163   -0.091495  -0.0018481  -0.0067202
-0.0067202   -0.010293  -0.0083442    -0.13372   -0.096367  -0.0099683  -0.0099683
-0.014191   -0.011917    -0.01614     -0.1321   -0.095717   -0.020362   -0.016789
-0.026533   -0.017114   -0.022961    -0.10968   -0.092469   -0.028157   -0.027833
-0.039526    -0.02361   -0.024585   -0.078178   -0.087597   -0.033679   -0.037902
-0.054142    -0.03173   -0.017764   -0.052193   -0.078178   -0.039526   -0.046022
-0.067784   -0.040825    -0.01484   -0.047321   -0.063561    -0.04927   -0.051544
-0.075904   -0.049595   -0.026533   -0.071682   -0.044723   -0.059339   -0.059339
-0.077528   -0.056416   -0.054142    -0.13275   -0.036927    -0.06551   -0.069408
-0.072981   -0.054142   -0.076554    -0.22304   -0.048945   -0.065835   -0.075255
-0.061613   -0.036278   -0.076879    -0.31691   -0.075579    -0.05739   -0.071032
-0.037252  -0.0044465   -0.046671    -0.37408   -0.098641   -0.042774   -0.054467
-0.00054884    0.033881    0.003024    -0.36726    -0.10546   -0.028482   -0.031406
0.039727     0.06831     0.05207    -0.30944   -0.093769   -0.020687  -0.0096434
0.070259    0.091047    0.079679    -0.23636   -0.072331   -0.020362   0.0069217
0.083576     0.10274    0.078055    -0.18536   -0.044398   -0.024909    0.016991
0.079679     0.10404     0.05272     -0.1714   -0.017114   -0.029782    0.019589
0.065712    0.093321    0.016991    -0.18991   0.0023744   -0.032705     0.01829
0.046873    0.071558   -0.017114    -0.21362   0.0020496   -0.029782    0.016341
0.027385    0.044924   -0.046671    -0.19966   -0.021337   -0.018413    0.021538
0.015042    0.022188    -0.06681    -0.10481   -0.055766  -0.0015233     0.03518
0.014068   0.0069217   -0.076554    0.070584   -0.086623    0.015042    0.054668
0.021863   0.0052977   -0.073306     0.26514    -0.10286    0.030308    0.072533
0.03453    0.016341   -0.055441     0.37623    -0.10124    0.040377    0.085525
0.050446    0.038753   -0.028807     0.34212   -0.087597      0.0433    0.091696
0.063438    0.066686   0.0010752     0.17582   -0.077203    0.033556    0.090722
0.068635    0.088773    0.031282   -0.053817   -0.080776   0.0085458    0.075131
0.06084    0.095269    0.060515     -0.2552   -0.096692    -0.03238    0.043625
0.037778    0.084226    0.088773    -0.36661    -0.10644     -0.0837  -0.0028225
0.0046481     0.06019     0.11671    -0.37798   -0.087922    -0.13177   -0.054142
-0.026858    0.031607     0.13262    -0.31236   -0.035953    -0.16328    -0.09994
-0.047971   0.0065969     0.12515    -0.19641    0.032582     -0.1701    -0.12787
-0.057065  -0.0093186    0.098193   -0.019712    0.091696    -0.14509    -0.13047
-0.055441   -0.014191    0.062464     0.24566     0.12775   -0.090521    -0.10741
-0.043748   -0.008669    0.028684     0.57469     0.13749   -0.016789   -0.065835
-0.022311  0.00010078   0.0010752     0.90112      0.1297    0.061165   -0.019063
0.0043233   0.0072465   -0.032055      1.1217     0.11573     0.12548    0.021213
0.031282   0.0085458   -0.075255      1.1421     0.10436      0.1625    0.050446
0.047523   0.0046481    -0.12755     0.94009     0.09397     0.17387    0.067661
0.049472  -0.0028225    -0.17627     0.58183     0.07773     0.16283    0.073832
0.039727   -0.012892    -0.20355     0.18751    0.040702      0.1362    0.072533
0.028684   -0.022311    -0.20031    -0.13502   -0.013866     0.10404    0.065062
0.019914   -0.024909    -0.16782     -0.3338    -0.07493    0.072208    0.051096
0.014068   -0.021012    -0.11878    -0.39941    -0.13664    0.044275    0.029983
0.0059473   -0.011592   -0.069408    -0.34517    -0.19089    0.023812    0.010819
-0.0028225 -0.00054884   -0.028482    -0.19511    -0.22661    0.010495   0.0010752
-0.0057458     0.01017   0.0020496    0.023487    -0.22954   0.0036737   0.0046481
0.00042559    0.021213    0.025111     0.26287    -0.19024 -0.00087364    0.012768
0.010495    0.034855    0.036479     0.46328    -0.12105  -0.0047713    0.021538
0.020888    0.044924    0.030633     0.56007   -0.044398  -0.0093186     0.02706
0.02641    0.048497   0.0078962     0.50907    0.014717   -0.011592    0.028034
0.028359      0.0433   -0.028482     0.30055    0.042651   -0.014191    0.028684
0.026085    0.028359   -0.066485   -0.011917    0.033881   -0.021012    0.029333
0.019264    0.010495   -0.093769    -0.32601  -0.0047713   -0.035303    0.028359
0.0052977  -0.0047713    -0.11066    -0.55532   -0.060963   -0.056091    0.023162
-0.01484    -0.01549    -0.11228    -0.67387    -0.12203   -0.073955    0.012768
-0.03303   -0.023285   -0.095717    -0.69791     -0.1701   -0.079802   0.0023744
-0.040175   -0.022961    -0.04862    -0.60372    -0.18277   -0.074605  -0.0018481
-0.030431  -0.0083442    0.029333    -0.31334    -0.14249   -0.060963  0.00075039
-0.0067202    0.020239     0.11736     0.19986   -0.056091   -0.044073   0.0088706
0.019589    0.053044     0.18394     0.81959    0.044924    -0.03303    0.016666
0.038103    0.079354       0.207      1.3438      0.1219   -0.032055    0.019914
0.041676    0.088448     0.18037      1.6053     0.14821   -0.041799    0.013418
0.027709    0.078704     0.12028      1.5543     0.11736   -0.059989 -0.00022403
0.0033489    0.052395    0.045249      1.2578    0.051096   -0.082076   -0.015165
-0.021337    0.019264   -0.021012     0.85889    -0.01484   -0.098316   -0.028807
-0.040175   -0.010943   -0.064536     0.49511   -0.053168    -0.11001   -0.037902
-0.052843   -0.030431   -0.081751      0.2463   -0.058365    -0.11553   -0.041475
-0.062587   -0.035628   -0.077203     0.12353   -0.042449    -0.11521   -0.039201
-0.068434   -0.029132   -0.061288    0.084551   -0.018413    -0.10838   -0.028157
-0.064861   -0.015165    -0.04115     0.06961   0.0020496   -0.096367   -0.015815
-0.051544   0.0017248   -0.025884    0.034855    0.011469   -0.079477  -0.0099683
-0.036927     0.01764   -0.019063    -0.03173    0.011794   -0.062262   -0.016464
-0.028807    0.028034   -0.019388    -0.12235   0.0043233   -0.045372   -0.029782
-0.026533    0.028684   -0.021012    -0.21492  -0.0018481   -0.030756   -0.039851
-0.028157    0.023487   -0.019712    -0.28833  -0.0031473   -0.022636   -0.037577
-0.03173    0.013743    -0.01484    -0.33185   0.0052977   -0.022961   -0.023285
-0.034654   0.0017248   -0.007045    -0.34452    0.024137   -0.025234  -0.0057458
-0.040175  -0.0099683   0.0065969     -0.3351    0.048172   -0.028482   0.0052977
-0.047646   -0.018088    0.020239    -0.31756    0.069934   -0.030106   0.0039985
-0.055441   -0.022311     0.02706    -0.30132    0.082602   -0.033354  -0.0080194
-0.059664   -0.026533    0.024786    -0.29125    0.079679   -0.039201   -0.026533
-0.059989    -0.03238    0.014392    -0.29937    0.058891    -0.04927   -0.045047
-0.058365   -0.041799 -0.00087364    -0.33835    0.031282   -0.059339   -0.058689
-0.058365   -0.050569   -0.018088    -0.40331    0.015692   -0.062912   -0.065835
-0.058365   -0.054792    -0.03238    -0.47347    0.023487   -0.056416   -0.062912
-0.053817   -0.050894   -0.039851    -0.51797     0.05142   -0.041799   -0.050894
-0.039526   -0.037577   -0.036927    -0.51504    0.087799    -0.02361   -0.033354
-0.021012   -0.019063   -0.027833    -0.47509     0.11054  -0.0089938   -0.013866
-0.0044465  -0.0041217   -0.022636    -0.43157     0.10371  -0.0011985   0.0023744
0.0052977 -0.00022403   -0.028482    -0.41305     0.06961    0.003024    0.008221
0.011794  -0.0018481   -0.046996    -0.42247    0.025111   0.0075714   0.0069217
0.016991  -0.0047713   -0.067784    -0.43904   -0.013866    0.011794   0.0043233
0.021213  -0.0050961   -0.081751    -0.43904   -0.037902    0.016666      0.0014
0.021863  -0.0015233    -0.08305     -0.4124   -0.045047    0.022512  -0.0041217
0.018615    0.003024   -0.069083    -0.36206   -0.036278    0.023487   -0.012892
0.012443   0.0043233   -0.045372    -0.30132    -0.01614    0.016666   -0.025234
0.0065969   0.0010752   -0.021012    -0.24643   0.0078962   0.0065969   -0.035628
0.0069217  -0.0037969  -0.0021729    -0.20713    0.028359   0.0020496   -0.040175
0.012443   -0.008669   0.0069217    -0.19024    0.036804   0.0052977   -0.039201
0.019264   -0.011917   0.0033489    -0.19413     0.03518    0.015042   -0.031406
0.020564   -0.015815  -0.0073698    -0.21037    0.032906    0.028359   -0.021337
0.016016   -0.020037   -0.021986    -0.22726    0.038103    0.039078  -0.0096434
0.0072465   -0.024585    -0.03238    -0.23603    0.054344    0.043625  -0.0021729
-0.0041217   -0.028807   -0.034004    -0.22726    0.074806    0.040702   0.0017248
-0.017114    -0.03173   -0.032055    -0.19933    0.091047     0.03453   0.0020496
-0.030431   -0.035303   -0.031406    -0.16295    0.091372    0.030308  -0.0024977
-0.041799   -0.041799   -0.033679    -0.13697    0.069285    0.029333   -0.008669
-0.047646    -0.04862   -0.037902    -0.14314    0.030957    0.027709   -0.012892
-0.042774   -0.052193   -0.038227    -0.18991  -0.0067202    0.025436   -0.014191
-0.031081   -0.047646   -0.034004    -0.26267    -0.03173    0.023487   -0.012892
-0.020362   -0.038551   -0.029782    -0.33737   -0.043099    0.023812   -0.012892
-0.012892   -0.030431   -0.028157    -0.39487   -0.046022    0.020888   -0.018088
-0.0099683   -0.029132   -0.028482    -0.42865   -0.050569    0.013093   -0.025884
-0.01484   -0.034329   -0.029457    -0.44099   -0.060313   0.0026992    -0.03238
-0.024909   -0.044723   -0.031406    -0.43839   -0.069408  -0.0018481   -0.031406
-0.037252   -0.054792   -0.031081    -0.43514   -0.072981  0.00042559   -0.023935
-0.045697   -0.060313   -0.029132    -0.43904   -0.067459   0.0059473    -0.01549
-0.044398   -0.053168   -0.025559    -0.43189   -0.048296     0.01017  -0.0063954
-0.034654    -0.03173   -0.019063    -0.37668   -0.016789    0.012119  0.00075039
-0.021661  -0.0018481  -0.0057458    -0.22824    0.022837    0.012443   0.0062721
-0.0044465    0.026735    0.016341    0.037129     0.06019    0.013093    0.010495
0.017316    0.046223    0.041351      0.3759    0.079354    0.015042    0.017316
0.034855    0.053369    0.066037     0.69454     0.06831    0.016666    0.024786
0.039402    0.046873    0.086824     0.90891    0.029009    0.012443    0.028359
0.033231    0.034206    0.099817      0.9794   -0.024909 -0.00054884    0.026735
0.024461    0.019914     0.10144     0.91606   -0.077528   -0.020037    0.023812
0.018615    0.011144    0.087799     0.76405    -0.11683   -0.038551    0.020888
0.01894   0.0052977    0.065062     0.58086    -0.13112   -0.052518    0.020888
0.023812   0.0017248    0.042326      0.4165    -0.12592   -0.059989    0.022188
0.027709  -0.0015233    0.021863     0.29697    -0.10903   -0.061288    0.023812
0.027385  -0.0034721   0.0059473     0.22324   -0.088247   -0.057715    0.025436
0.023162  -0.0021729  0.00042559     0.18492   -0.071682   -0.051868    0.029658
0.015367 -0.00022403   0.0020496     0.16413    -0.06551   -0.045697    0.035505
0.0091954   0.0017248   0.0069217     0.15081   -0.066485    -0.04115    0.041351
0.0069217   0.0039985    0.012768     0.13749   -0.072331   -0.040175    0.044275
0.0085458   0.0049729    0.021538     0.11995   -0.076879     -0.0405    0.042975
0.010495   0.0017248    0.029333    0.096244   -0.078503     -0.0405    0.040377
0.014717  -0.0060706     0.02641    0.073182   -0.078827   -0.036602    0.037454
0.021213    -0.01549    0.013093    0.055968   -0.076879   -0.029782    0.036804
0.026085   -0.021012  -0.0028225    0.045249   -0.072981   -0.021337     0.03583
0.028359   -0.022961   -0.011592    0.037454   -0.071682    -0.01549    0.032257
0.023487   -0.021661   -0.011592    0.028034   -0.079802   -0.016789    0.025436
0.012443   -0.016789  -0.0067202    0.021538    -0.10286   -0.026858    0.015042
0.0014  -0.0080194 -0.00022403    0.021538    -0.13534   -0.045047  -0.0031473
-0.0057458 -0.00087364   0.0062721    0.031607     -0.1662   -0.066485    -0.02426
-0.008669   0.0026992     0.01017     0.04395    -0.18601   -0.084674   -0.044723
-0.0096434   0.0010752   0.0062721     0.05207    -0.19024   -0.093769   -0.058689
-0.012242  -0.0034721  -0.0063954     0.05272    -0.17692   -0.089546   -0.062587
-0.015815   -0.007045   -0.021337    0.054019    -0.14541   -0.072331   -0.055441
-0.017439  -0.0089938   -0.039526     0.05207    -0.10189   -0.049595     -0.0405
-0.013216  -0.0099683   -0.064211    0.016666   -0.053492   -0.030106   -0.022636
-0.0034721   -0.010293   -0.093769   -0.071032  -0.0060706   -0.017764  -0.0063954
0.0078962   -0.007045    -0.11618    -0.17854    0.042651  -0.0054209   0.0088706
0.01894  0.00010078    -0.12105    -0.23766    0.098517    0.013743    0.023162
0.031932    0.013093    -0.10774     -0.2146     0.15698    0.041351    0.035505
0.04395    0.028359   -0.084349    -0.13015     0.19856    0.066362     0.04395
0.053694    0.042651   -0.060638   -0.027833     0.20733    0.075781    0.045249
0.056292     0.05207   -0.036278    0.056617     0.18102    0.063763    0.036804
0.050771     0.05207   -0.014191     0.10534     0.13035    0.036479    0.020239
0.039727    0.042651   0.0046481     0.12385    0.072533   0.0046481    0.003024
0.024137    0.029983    0.016666     0.12548    0.019264   -0.019388   -0.011592
0.008221    0.018615    0.022188     0.12353   -0.018413   -0.029782   -0.020037
-0.0057458    0.010819    0.023487     0.12548   -0.034329   -0.030756   -0.023285
-0.017439   0.0059473    0.022188     0.13262   -0.033679   -0.027833   -0.021986
-0.021661   0.0039985     0.01894     0.14334    -0.02426   -0.024909   -0.020362
-0.018413   0.0033489    0.013418     0.15568   -0.014191   -0.023935   -0.020362
-0.010293   0.0020496   0.0043233     0.16705   -0.010293   -0.019712   -0.022636
-0.0015233  -0.0018481  -0.0073698     0.17582   -0.012567   -0.012242    -0.02426
0.00042559   -0.007045   -0.022311      0.1768   -0.019712  -0.0063954   -0.023935
-0.0037969    -0.01484   -0.042449     0.16413   -0.028807  -0.0063954   -0.022636
-0.013866   -0.022961   -0.065835       0.131   -0.040825   -0.008669   -0.021661
-0.027183   -0.029132   -0.092794     0.08585   -0.055766  -0.0050961   -0.020687
-0.038551   -0.030431    -0.11326     0.05207   -0.072981   0.0052977   -0.022636
-0.0405   -0.025559    -0.10968    0.042001   -0.094743    0.018615    -0.02426
-0.032705   -0.010618   -0.075255    0.044924    -0.11456    0.029983   -0.022961
-0.016789    0.011144   -0.020362    0.047847    -0.12365    0.040702   -0.017764
0.0036737     0.03583    0.044599    0.049796    -0.11423    0.051096   -0.011592
0.021538    0.058566     0.10404    0.062789    -0.09117    0.059541  -0.0060706
0.033231    0.073182     0.14919    0.097218    -0.06681    0.058891  -0.0011985
0.039402    0.075781      0.1703     0.14074    -0.05739    0.045249   0.0056225
0.036479    0.067986      0.1651     0.16348   -0.070058    0.020239   0.0095202
0.022188    0.053369     0.13684     0.13457   -0.094418  -0.0096434   0.0075714
-0.00022403    0.038428    0.099167     0.05142    -0.10351   -0.036927  0.00010078
-0.020687    0.025436    0.065387   -0.054142   -0.080451   -0.053168   -0.010618
-0.032705    0.018615    0.040377    -0.14281   -0.028482   -0.059664   -0.020037
-0.032705    0.015692    0.020564    -0.19576    0.033556   -0.059339   -0.020687
-0.022961    0.015042  -0.0021729    -0.21882    0.084551   -0.051868   -0.008669
-0.0089938    0.013093   -0.029782    -0.21979     0.11086   -0.037902     0.01017
0.0059473    0.011469   -0.052193    -0.20713     0.11281   -0.019063    0.031282
0.01764     0.01017   -0.064536    -0.18374    0.097218   0.0017248    0.047198
0.019914   0.0075714   -0.067134    -0.15288    0.074806    0.019264    0.057267
0.012768   0.0062721   -0.063886    -0.11943    0.057267    0.030308    0.058241
-0.0015233   0.0043233   -0.059664    -0.08305     0.05207    0.032906     0.05207
-0.013216   0.0020496    -0.05804   -0.048296    0.055318    0.026735    0.042326
-0.020687  -0.0024977   -0.058689   -0.019712    0.057917    0.013093    0.030957
-0.021986  -0.0096434   -0.057715  -0.0018481    0.057267  -0.0031473    0.019264
-0.021337   -0.011592   -0.048945   0.0036737    0.055968   -0.015815    0.013418
-0.019388  -0.0067202   -0.034004  -0.0021729    0.053694   -0.025559    0.016016
-0.018738  0.00042559   -0.019063   -0.013216    0.045249   -0.034978    0.022188
-0.021986   0.0039985  -0.0083442   -0.021661    0.034855   -0.045697    0.023812
-0.027833   0.0017248  -0.0028225   -0.021337    0.030957    -0.05804     0.01829
-0.03173  -0.0037969  0.00010078  -0.0089938    0.038103   -0.067134   0.0078962
-0.031081   -0.010618   0.0043233    0.009845    0.049796   -0.069733  -0.0044465
-0.032055   -0.017114    0.011144    0.024786    0.061165    -0.06681   -0.015165
-0.037577   -0.021337    0.015367    0.030957    0.063763   -0.062262   -0.021986
-0.046671   -0.020687    0.011469    0.028684    0.055968    -0.05804   -0.027833
-0.051219   -0.010943  0.00075039    0.025761    0.041676   -0.054792   -0.032055
-0.048945   0.0052977   -0.013216    0.025761    0.027385   -0.050569   -0.034004
-0.038227    0.020239   -0.025234    0.024461    0.018615   -0.044073   -0.031081
-0.024585    0.029983   -0.034654    0.019589    0.014392   -0.035303   -0.023285
-0.012242    0.032257   -0.038876    0.011469   0.0095202   -0.021661   -0.010293
-0.0067202    0.029333   -0.037252   0.0020496   0.0052977  -0.0018481   0.0072465
-0.0021729    0.022512   -0.031081  -0.0067202 -0.00054884    0.015042    0.021863
0.0059473    0.015042   -0.022636   -0.011592  -0.0057458    0.024137    0.026085
0.012443    0.010495   -0.011267   -0.012567  -0.0073698    0.026085    0.019589
0.014717    0.008221  -0.0018481   -0.010293  -0.0047713    0.021213   0.0091954
0.013418   0.0026992   0.0017248  -0.0063954 -0.00054884    0.014392   0.0010752
0.011794   -0.007045  0.00075039  -0.0021729  0.00010078   0.0043233  -0.0054209
0.010495   -0.018088  -0.0018481   0.0020496  -0.0037969  -0.0096434   -0.010618
0.0095202   -0.028482 -0.00087364   0.0065969  -0.0099683   -0.025559   -0.017439
0.0069217   -0.036278   0.0017248    0.011794   -0.015815   -0.036927   -0.022636
0.00075039   -0.040175  0.00010078    0.012119   -0.019712     -0.0405   -0.026209
-0.0041217   -0.039201   -0.011592   0.0036737   -0.016789   -0.038876   -0.031081
-0.0089938   -0.034329   -0.030106    -0.01614  -0.0060706   -0.034978   -0.037252
-0.013216   -0.030106   -0.045372    -0.04115    0.014392   -0.033354     -0.0405
-0.016464   -0.027183   -0.052193    -0.05739    0.037778   -0.036278   -0.040825
-0.020037   -0.026858    -0.04992   -0.048945    0.049472   -0.040825   -0.039526
-0.023935   -0.026858   -0.038551  -0.0093186    0.042001   -0.046347   -0.038551
-0.030756   -0.027183   -0.012892    0.057592    0.020239   -0.052193    -0.04115
-0.039201   -0.026533    0.021213     0.14042  -0.0096434   -0.061288   -0.046996
-0.046671   -0.021661    0.054019     0.22454   -0.045372   -0.070382   -0.052843
-0.053817    -0.01549     0.07708     0.29535   -0.078503   -0.075579   -0.052193
-0.060963   -0.010618    0.080978      0.3314    -0.10091   -0.075904   -0.044073
-0.068434   -0.011592    0.066686     0.32686    -0.10903   -0.071357   -0.030106
-0.075579   -0.018413    0.043625     0.28496    -0.10903   -0.062262   -0.015165
-0.079802   -0.027508     0.01894     0.21967    -0.10221   -0.047646  -0.0044465
-0.078178   -0.035628  -0.0034721     0.14139    -0.09182   -0.028807   0.0033489
-0.067459   -0.041475   -0.025559    0.058891   -0.080451   -0.011592   0.0088706
-0.04992   -0.045697   -0.055116   -0.022311   -0.070382   0.0017248    0.014392
-0.029782   -0.051219   -0.092145   -0.098316   -0.060638   0.0095202    0.016991
-0.011917   -0.059339     -0.1256    -0.17172   -0.047971    0.015692    0.016991
0.0010752   -0.064536    -0.14152    -0.24513   -0.030431    0.023162    0.015692
0.014392   -0.061288    -0.13307    -0.33088  -0.0073698    0.031932    0.014392
0.029333    -0.04992    -0.10968    -0.46535    0.016016    0.039727    0.016341
0.041676   -0.031081   -0.087597    -0.69012     0.03453    0.045249    0.019264
0.047523   -0.010943   -0.079477     -1.0065    0.044275    0.046548    0.021213
0.049796   0.0091954   -0.085648     -1.3566    0.047198    0.042326    0.023812
0.05207    0.024137    -0.10124     -1.6681    0.046548    0.038103    0.029009
0.057267    0.030633     -0.1178     -1.8964    0.044275    0.034206     0.03518
0.062789    0.027709    -0.13307     -2.0257    0.031607    0.028684    0.039727
0.061489    0.019914    -0.14411     -2.0056  -0.0024977    0.022188    0.039727
0.050446    0.012119    -0.14476     -1.7149   -0.059339    0.014392    0.034855
0.035505    0.012119    -0.12365     -1.0276    -0.12592   0.0078962    0.027709
0.025436     0.02641   -0.067459    0.055318    -0.18179      0.0014    0.021213
0.02641    0.047847     0.01894      1.2818    -0.21655  -0.0067202    0.013743
0.031932    0.062464     0.11054      2.3157    -0.24383   -0.021661    0.003024
0.03453    0.059216     0.17355      2.9347    -0.27631   -0.047971   -0.011267
0.027709    0.038103     0.19141       3.079    -0.31756    -0.08305   -0.025884
0.014392    0.012768      0.1768      2.8396    -0.35361    -0.10968   -0.035953
0.0046481  0.00075039     0.15601      2.3874    -0.36271    -0.11715   -0.036927
0.0065969   0.0052977     0.15276      1.8856    -0.33802    -0.10774   -0.028807
0.017316    0.021538     0.16185      1.4348    -0.28833   -0.082076   -0.015815
0.028684    0.037778     0.16478      1.0716    -0.22889   -0.047321      0.0014
0.03453    0.044275     0.15244     0.78938    -0.17205   -0.014516     0.01764
0.032906    0.039727     0.12353     0.56137    -0.12235   0.0072465    0.026735
0.022837    0.025111    0.084876     0.36551   -0.079152    0.013743    0.022188
0.0075714   0.0056225    0.048172     0.19271   -0.031081    0.010495   0.0049729
-0.0073698   -0.014516    0.018615    0.042651    0.029983  -0.0021729   -0.015815
-0.018738   -0.028157  -0.0021729   -0.080776     0.10891   -0.020362   -0.034329
-0.024909   -0.034654   -0.017439    -0.18147     0.19434   -0.042124   -0.048296
-0.024585   -0.033679    -0.03173    -0.25552     0.26255   -0.061613   -0.054792
-0.023285   -0.026533   -0.041475    -0.29255     0.28528   -0.077203   -0.051868
-0.02426   -0.015815   -0.045697    -0.28703     0.24728   -0.085973   -0.039851
-0.02426  -0.0093186   -0.044398    -0.24383     0.16056   -0.087597    -0.02361
-0.021012  -0.0080194   -0.036278    -0.17562    0.055643   -0.078178  -0.0060706
-0.016789    -0.01484   -0.026209    -0.10611   -0.037577   -0.058689    0.009845
-0.012567   -0.025559   -0.021012   -0.070058    -0.10514   -0.036278     0.01894
-0.0089938   -0.037252   -0.026858    -0.11098    -0.14281   -0.018088    0.020888
-0.0044465   -0.048296   -0.047321    -0.26429    -0.16198  -0.0057458    0.019264
0.00042559   -0.057715   -0.077203    -0.52024     -0.1727   0.0023744    0.016991
0.0014   -0.063237    -0.10481    -0.80964    -0.17919   0.0062721    0.014717
-0.0011985    -0.06681    -0.12333     -1.0584    -0.18049   0.0043233    0.010819
-0.011917    -0.06681    -0.12463     -1.2286    -0.17562  -0.0044465   0.0017248
-0.025559   -0.061937    -0.10579     -1.3021      -0.161   -0.016789  -0.0093186
-0.033354    -0.04862   -0.059664     -1.2205      -0.123   -0.024585   -0.018088
-0.03173   -0.023285    0.016991    -0.89539    -0.04992   -0.020687   -0.023935
-0.021661    0.011144     0.10696     -0.3351    0.054019  -0.0063954   -0.024585
-0.0044465    0.046223      0.1768     0.28658     0.16348   0.0085458   -0.019388
0.015367     0.06961     0.19628     0.73611      0.2463     0.01764   -0.010293
0.027709    0.075456     0.16413     0.88455     0.28073    0.016991  -0.0024977
0.026735    0.061165     0.10079     0.74943     0.26547   0.0078962  -0.0031473
0.012443    0.029983    0.032582     0.46685      0.2135  -0.0073698   -0.010618
-0.011592   -0.010293   -0.019063     0.19791     0.14626   -0.027183   -0.021661
-0.037902   -0.046347   -0.042774    0.041027    0.089748    -0.04862   -0.032705
-0.060313   -0.071682   -0.043423   0.0033489    0.058241    -0.06551   -0.042449
-0.073306   -0.078827   -0.035953    0.034855    0.058241   -0.069083   -0.046671
-0.075579   -0.069083   -0.031406    0.076755    0.084551   -0.057715   -0.042124
-0.067459    -0.04992   -0.036278      0.0852     0.11963   -0.035953   -0.030106
-0.054142   -0.030431    -0.04862    0.031932     0.13977   -0.012892   -0.018413
-0.041799   -0.018738   -0.063886   -0.088572     0.13262   0.0043233   -0.010293
-0.036927    -0.01614   -0.078178    -0.27826     0.10112    0.010495  -0.0080194
-0.040175   -0.019063   -0.089871    -0.52998    0.053044   0.0065969   -0.012892
-0.048296   -0.026533    -0.10156    -0.81192  0.00042559  -0.0041217   -0.022636
-0.055116   -0.034654    -0.11358     -1.0675   -0.042124   -0.015165   -0.036602
-0.056741   -0.042774    -0.12203     -1.2403    -0.06681   -0.021986   -0.050894
-0.054142   -0.046022     -0.1217     -1.2975   -0.077203   -0.025234   -0.057065
-0.048296   -0.041799    -0.10741     -1.2114   -0.084349   -0.022636   -0.055116
-0.039201   -0.027508   -0.074605     -0.9321    -0.09182    -0.01549   -0.044073
-0.023935  -0.0021729   -0.015815    -0.43189   -0.090196  -0.0031473   -0.026533
-0.0021729    0.030957    0.063763     0.23396   -0.069408   0.0023744  -0.0080194
0.019589    0.063113     0.14269     0.91086   -0.036278  -0.0037969   0.0062721
0.036154    0.084876     0.19791      1.4244  -0.0099683   -0.024909    0.009845
0.040052    0.090397     0.21545      1.6547  -0.0041217   -0.053492   0.0023744
0.029009    0.079354     0.19466      1.5874   -0.020362   -0.080776  -0.0083442
0.0078962    0.061489     0.15016      1.2984   -0.051219   -0.096692    -0.01614
-0.01484    0.042326    0.097868     0.90501   -0.083375   -0.095717   -0.019063
-0.034654    0.028034    0.054993     0.51849    -0.10903   -0.081751   -0.019712
-0.047321    0.019914    0.029009     0.21707    -0.11845   -0.064211   -0.022311
-0.052518    0.014068     0.01894    0.022512    -0.10968   -0.049595   -0.031081
-0.054792     0.01017    0.016666   -0.083375    -0.08305     -0.0405   -0.043423
-0.054792   0.0056225    0.016666    -0.12722   -0.050244   -0.039526   -0.056091
-0.053168   0.0020496    0.021538    -0.12398   -0.025559   -0.050244   -0.070382
-0.045372   0.0020496    0.038103   -0.081426   -0.023285   -0.067784   -0.084999
-0.03303   0.0059473    0.055968   -0.028482   -0.048945     -0.0837    -0.10059
-0.021986    0.010819    0.064413  -0.0089938   -0.097991   -0.087922    -0.10903
-0.017439    0.011144    0.057592    -0.05804    -0.15256   -0.072331    -0.10579
-0.020362    0.008221    0.037778    -0.18082    -0.18374    -0.03173   -0.087272
-0.022636    0.003024   0.0095202    -0.36238     -0.1714    0.032582   -0.051544
-0.01614  -0.0037969   -0.026858     -0.5813     -0.1191     0.10989  -0.0044465
0.0026992   -0.011592   -0.071357    -0.80217   -0.044398     0.18784    0.041676
0.023162   -0.021337    -0.12138    -0.99024    0.029009     0.25605    0.081952
0.036479    -0.03238    -0.17205     -1.1224    0.081627     0.30672     0.11248
0.04395   -0.041799     -0.2172      -1.178    0.095919      0.3314     0.13035
0.05142   -0.046671    -0.24805     -1.1283    0.070909     0.33108     0.13587
0.063113    -0.04115     -0.2578    -0.95808    0.026735     0.31192     0.13587
0.077405   -0.025884    -0.23993    -0.67517  -0.0093186     0.28528     0.13425
0.093645  -0.0060706    -0.19673    -0.31756   -0.020362     0.25572     0.13327
0.10631    0.014717    -0.13957    0.041351  -0.0018481     0.22974     0.12905
0.10826    0.028034   -0.084999     0.32556    0.041027     0.20733     0.11995
0.10112    0.034855   -0.044398     0.49576      0.0865     0.18264     0.10696
0.086175    0.037778   -0.020362     0.55227     0.11346     0.15568    0.093645
0.06831    0.032906   -0.012567     0.52369     0.11248     0.12645    0.081952
0.046548    0.020564   -0.016789     0.45288    0.090397    0.097218    0.075781
0.024461   0.0069217   -0.027508     0.37201    0.057917    0.065712    0.070909
0.0043233  -0.0031473   -0.040175     0.30185    0.030957    0.031607    0.064737
-0.0099683  -0.0093186   -0.046022     0.24533    0.015042  -0.0015233    0.054019
-0.017439   -0.013541   -0.042774     0.19628   0.0078962   -0.029132    0.041676
-0.017764   -0.014191   -0.032705     0.15114   0.0043233   -0.051219    0.027709
-0.012892   -0.010618   -0.023285     0.10566   0.0010752   -0.068758    0.012768
-0.008669  -0.0015233   -0.019712    0.064088 -0.00054884    -0.08305  -0.0037969
-0.0076946   0.0075714   -0.018088    0.025761   0.0026992   -0.097017   -0.016789
-0.0080194    0.015042   -0.015165  -0.0037969    0.014717    -0.10774   -0.027183
-0.011267    0.022837   -0.008669   -0.023285    0.032906    -0.11196   -0.032705
-0.016464    0.029333  0.00075039   -0.036278    0.050446    -0.10838   -0.032055
-0.018738    0.032257    0.011469   -0.046671     0.06084    -0.10481   -0.030106
-0.016789    0.031607    0.020888   -0.054792    0.061814    -0.10741   -0.026533
-0.01549    0.028359    0.025761    -0.05739    0.052395    -0.11715   -0.019388
-0.015815    0.022188    0.024786   -0.055116    0.038103    -0.13112  -0.0096434
-0.020037    0.012768     0.01829   -0.055766    0.021538    -0.14314  -0.0047713
-0.025559   0.0020496    0.011144   -0.059664   0.0052977    -0.15386  -0.0054209
-0.029132  -0.0034721   0.0020496   -0.066485   -0.007045    -0.16035   -0.013216
-0.029457  -0.0018481  -0.0073698   -0.071357   -0.014516    -0.16165   -0.024909
-0.025884  0.00042559   -0.017114   -0.075904    -0.01484    -0.15776   -0.037577
-0.021986   0.0010752   -0.029132   -0.080127   -0.008669    -0.15288   -0.046996
-0.021012  0.00042559   -0.038876   -0.085324  -0.0031473    -0.14899   -0.046671
-0.02361  -0.0024977   -0.040175   -0.090196  0.00075039    -0.14249   -0.037902
-0.027833  -0.0028225   -0.029132   -0.090521  0.00010078    -0.13242   -0.025234
-0.029457   0.0010752   -0.010293    -0.08305   0.0023744    -0.11943   -0.011917
-0.026209     0.01017    0.012443    -0.06551    0.016341    -0.10676  0.00010078
-0.019063    0.019589    0.032906   -0.045372    0.042651   -0.097017   0.0091954
-0.012242    0.025111    0.047523   -0.026533    0.072858   -0.092145    0.016016
-0.0096434    0.027385    0.054993  -0.0044465    0.095269    -0.09182    0.017965
-0.010943    0.027385    0.054019    0.022188     0.10371   -0.092145    0.014717
-0.016789    0.027709    0.045899    0.049147    0.098842   -0.092469    0.012768
-0.025234    0.028034    0.033231    0.062139    0.080978   -0.094418    0.013743
-0.031081    0.030308    0.017965    0.036804    0.056942   -0.095393    0.017965
-0.031406    0.033231  -0.0018481   -0.049595    0.032906   -0.089871    0.021538
-0.026533    0.036479    -0.02426    -0.22174    0.018615   -0.075579    0.022837
-0.017439    0.038103    -0.04115    -0.46827   0.0056225    -0.05804    0.021213
-0.008669    0.037129   -0.048945    -0.73169   -0.016464   -0.048945    0.015367
-0.0037969     0.03453   -0.048945    -0.94476    -0.04862   -0.053168   0.0033489
-0.0034721    0.028359   -0.041475     -1.0955   -0.090521   -0.065835   -0.012567
-0.0080194    0.021863   -0.033354     -1.2247    -0.13437   -0.081101   -0.026858
-0.014516    0.016991   -0.025884     -1.3517     -0.1714   -0.093769   -0.037577
-0.021986    0.015692   -0.020037      -1.391    -0.19186    -0.10286   -0.043748
-0.028482    0.017965    -0.01484     -1.1877    -0.19803    -0.10449   -0.047646
-0.029782    0.025436  -0.0031473    -0.64042    -0.18569   -0.096042    -0.04927
-0.02426    0.039402    0.024461     0.18297    -0.16198   -0.078503   -0.044073
-0.018413    0.054993    0.064737      1.0281    -0.14509   -0.057065   -0.036602
-0.017764    0.062139    0.098517      1.6404    -0.15158   -0.042124   -0.027833
-0.02426     0.05207     0.10826      1.8931    -0.18829   -0.035953   -0.022961
-0.035303    0.026085     0.08585      1.8028    -0.24968   -0.039201   -0.022636
-0.043099  -0.0063954    0.037454      1.4893    -0.31106   -0.044398   -0.026209
-0.043748   -0.033354   -0.016464      1.1288    -0.34355    -0.04992   -0.029132
-0.034978   -0.040825   -0.048945     0.87221    -0.32308   -0.051219    -0.03173
-0.022636   -0.027508   -0.045047     0.79361       -0.25   -0.046022   -0.030106
-0.007045 -0.00054884  -0.0080194     0.88877    -0.14541   -0.036602   -0.025559
0.010819    0.027385    0.044599       1.082   -0.049595   -0.029132   -0.024909
0.025111    0.042651    0.089748      1.2548   0.0065969    -0.03238   -0.030756
0.029333    0.040377     0.11411         1.3    0.011144   -0.049595   -0.044073
0.023487    0.024137     0.11248      1.1681   -0.021661   -0.071032    -0.05804
0.014392   0.0056225    0.092996     0.89982   -0.060313   -0.088247   -0.063561
0.0052977   -0.008669    0.071558     0.59612   -0.071032   -0.090196    -0.05739
0.00042559   -0.016464    0.053369     0.34602   -0.039851   -0.072006   -0.042774
0.0039985   -0.019712    0.033231     0.17095    0.021213   -0.036927   -0.024585
0.016666   -0.021986   0.0065969    0.044275    0.088773   0.0017248  -0.0047713
0.037454    -0.02426   -0.028157   -0.064861     0.14237     0.03518    0.013093
0.055318   -0.025234    -0.06616    -0.16035     0.16575    0.058241     0.02706
0.062139   -0.024909   -0.090196    -0.22694     0.15438     0.06896     0.03518
0.055318   -0.022961   -0.092145    -0.24188     0.11346    0.067661    0.035505
0.042651   -0.021986   -0.069408    -0.19413    0.054344    0.053694    0.031932
0.029658   -0.019388   -0.030106   -0.097017  -0.0047713     0.03583    0.026085
0.019914    -0.01549    0.012768    0.010495   -0.052843    0.020564    0.015692
0.016991  -0.0089938     0.04395    0.081627   -0.081101    0.011794   0.0017248
0.019264  -0.0037969    0.050121    0.089098   -0.086623    0.008221  -0.0083442
0.023487 -0.00054884    0.030957    0.039402    -0.07493    0.011469   -0.010618
0.024461      0.0014   0.0026992   -0.036927   -0.055441    0.023812  -0.0018481
0.021863   0.0056225   -0.020362    -0.10384    -0.03238    0.036154    0.012119
0.016666    0.011144   -0.032055    -0.14054   -0.010618    0.041027    0.023487
0.016016    0.013743    -0.03173    -0.14704   0.0059473     0.03583     0.02641
0.019264    0.012119   -0.025559    -0.13762    0.012119    0.025436    0.020239
0.020564   0.0020496   -0.021661    -0.13275    0.010495    0.014068    0.011144
0.016341   -0.012242   -0.023285    -0.14119   0.0069217   0.0043233   0.0020496
0.0075714   -0.027508   -0.028807    -0.16328   0.0069217 -0.00022403  0.00010078
-0.0018481   -0.039851   -0.035628    -0.18731    0.012768 -0.00087364  0.00075039
-0.011267   -0.045372   -0.041475     -0.2055    0.022188 -0.00054884   0.0010752
-0.015165   -0.044723   -0.044398     -0.2146    0.028034  -0.0021729      0.0014
-0.010943   -0.037902    -0.04115    -0.21882    0.027709  -0.0034721   0.0017248
0.00010078   -0.031081   -0.031406    -0.21752    0.020888  -0.0050961 -0.00054884
0.011469   -0.026209   -0.019388    -0.21427    0.011469  -0.0037969  -0.0067202
0.015367   -0.024909  -0.0096434    -0.20745   0.0036737  -0.0018481   -0.012567
0.011144   -0.025884  -0.0054209    -0.19901  -0.0031473   0.0020496    -0.01614
0.0023744   -0.027833  -0.0060706    -0.19446  -0.0096434   0.0088706   -0.020362
-0.0050961   -0.027833  -0.0089938    -0.19608   -0.017439    0.016016   -0.021337
-0.0067202   -0.028157   -0.010943    -0.20063   -0.027833    0.022512   -0.018413
-0.0047713   -0.028807   -0.013866    -0.20193   -0.042449    0.027709    -0.01614
-0.0031473   -0.031081   -0.016464    -0.19966   -0.059339    0.030957   -0.015815
-0.0031473   -0.034654   -0.018738    -0.19576   -0.069733    0.030308   -0.017764
-0.0063954   -0.041799   -0.021986    -0.19641   -0.069408    0.020239   -0.018738
-0.01484   -0.050244   -0.026533    -0.20096   -0.056741   0.0023744   -0.015815
-0.024585   -0.061613   -0.032055     -0.2042   -0.036278    -0.01484  -0.0080194
-0.034654   -0.072656   -0.037577    -0.20128   -0.014191   -0.024909  0.00010078
-0.043099   -0.076229   -0.039851    -0.19283   0.0075714   -0.025234   0.0020496
-0.046347   -0.069083   -0.036278    -0.18309    0.022188   -0.020687  0.00010078
-0.046347   -0.052518    -0.03173    -0.17659    0.030308   -0.013216  -0.0054209
-0.042774   -0.034004   -0.027183    -0.17302    0.034206  -0.0057458   -0.016789
-0.037252   -0.017439    -0.02426     -0.1688    0.033231 -0.00054884   -0.029132
-0.029132   -0.007045   -0.021337     -0.1623    0.028359  0.00010078   -0.037902
-0.021012  -0.0034721   -0.016464    -0.15418    0.022188  0.00010078   -0.039201
-0.011267  -0.0028225   -0.012242    -0.14541    0.020564   0.0033489   -0.035303
-0.0021729  -0.0031473   -0.011592    -0.13567    0.023487   0.0091954   -0.030106
0.0026992  -0.0044465   -0.017439    -0.12527     0.02706    0.013743   -0.025884
0.0036737  -0.0060706   -0.026209    -0.11586    0.032257    0.014717    -0.02361
0.0036737   -0.007045    -0.03303    -0.10774    0.040377    0.015367   -0.019388
0.0026992  -0.0073698   -0.034329   -0.098316    0.051096    0.014717   -0.012567
-0.0041217  -0.0057458   -0.028807   -0.092469    0.062139    0.013743  -0.0083442
-0.017764  -0.0047713   -0.019712   -0.089871     0.06831    0.010819   -0.010293
-0.035303   -0.007045  -0.0080194   -0.090196    0.065387   0.0062721   -0.013866
-0.046671   -0.010293   0.0052977   -0.090845    0.054668   0.0046481   -0.017114
-0.047646   -0.012242    0.020239   -0.088247    0.039078   0.0056225   -0.016464
-0.039851   -0.011917    0.032582   -0.081101    0.024461   0.0056225   -0.011592
-0.026209  -0.0076946    0.041027   -0.067134    0.011794   0.0033489  -0.0063954
-0.014191  -0.0037969    0.042975    -0.04927   0.0026992 -0.00054884  -0.0024977
-0.0080194  -0.0018481    0.037454   -0.033354  -0.0021729  -0.0080194  -0.0034721
-0.0073698  -0.0037969    0.027385   -0.019388 -0.00087364   -0.018088   -0.008669
-0.011592   -0.011917    0.015042  -0.0067202 -0.00054884   -0.028807   -0.014516
-0.017114   -0.021337   0.0033489   0.0023744 -0.00087364   -0.033679   -0.017114
-0.022311   -0.027833  -0.0067202   0.0062721  -0.0031473   -0.031081   -0.017114
-0.026209   -0.027183    -0.01484   0.0036737  -0.0024977   -0.021012   -0.017114
-0.026533   -0.021986   -0.018738  -0.0021729   0.0010752  -0.0044465   -0.015815
-0.026209   -0.013866   -0.020362  -0.0047713      0.0014    0.012119   -0.014191
-0.028482  -0.0047713   -0.017439  -0.0024977   -0.007045    0.023162   -0.012242
-0.03173   0.0062721   -0.012242   0.0046481   -0.020687    0.022837   -0.012567
-0.035628    0.015042   -0.007045    0.010819   -0.029782    0.015367   -0.012892
-0.035628    0.023162  0.00042559    0.013743   -0.029782   0.0088706   -0.011917
-0.029457    0.029333   0.0091954    0.013418   -0.022961   0.0062721  -0.0076946
-0.022636    0.032582    0.015042     0.01017   -0.013541   0.0059473    0.003024
-0.018738    0.031932    0.016016  0.00075039  -0.0037969   0.0046481    0.017316
-0.01549    0.028359   0.0088706   -0.015165   0.0056225   0.0023744    0.027385
-0.017439    0.022837  -0.0080194   -0.034004    0.013418 -0.00054884    0.028684
-0.025234    0.015367   -0.029457   -0.038551    0.015367  -0.0047713    0.019914
-0.033679   0.0069217   -0.047971   -0.021986   0.0095202  -0.0080194   0.0043233
-0.039201  -0.0024977    -0.06616   0.0020496  -0.0060706    -0.01484   -0.011917
-0.044723   -0.017114   -0.086948    0.010495   -0.027508   -0.022311   -0.023935
-0.053817   -0.034654    -0.11131   -0.011267   -0.038876   -0.028157   -0.030756
-0.066485   -0.049595    -0.13015   -0.054467   -0.029782   -0.027183   -0.034329
-0.075579   -0.051868    -0.13664   -0.092469  -0.0024977   -0.016789   -0.033354
-0.072981   -0.034329    -0.12235   -0.098641    0.035505  -0.0011985   -0.025234
-0.056091 -0.00022403   -0.081101   -0.060963    0.074157    0.018615  -0.0099683
-0.029457    0.042975   -0.019712     0.01764     0.10014    0.036479    0.011144
0.003024    0.087799    0.048822     0.12125     0.10014    0.045249    0.033231
0.039078      0.1258     0.10631     0.22292    0.069934    0.044275     0.05272
0.072858     0.14789     0.14042     0.29957    0.015692    0.040052    0.068635
0.095269     0.15049     0.14496     0.33855   -0.051868     0.03518    0.079679
0.099492     0.13587     0.12093     0.33563    -0.12625    0.029009     0.08585
0.085525     0.11411    0.075781     0.27879    -0.19413    0.016991    0.088773
0.061165    0.086824    0.023487     0.17452    -0.23928   0.0039985    0.081627
0.037454    0.058891   -0.020362    0.051096    -0.24253   -0.010943    0.065387
0.021213    0.038103   -0.043423   -0.055766    -0.19901   -0.026209    0.042651
0.010495    0.026085   -0.042774    -0.11878    -0.12495   -0.042774    0.014717
0.00075039    0.020888   -0.026533     -0.1334   -0.045697   -0.056091    -0.01614
-0.0089938    0.019914  -0.0050961    -0.10871    0.013743   -0.068758   -0.045372
-0.019388    0.019264    0.012443   -0.057065    0.037454   -0.076554   -0.068434
-0.030431    0.016991    0.022512   0.0033489     0.02706   -0.078178   -0.077853
-0.0405    0.010819    0.026735    0.054344  -0.0021729   -0.075255   -0.072656
-0.045697    0.003024    0.028684      0.0852   -0.029457   -0.069733   -0.059664
-0.048296  -0.0044465    0.025111    0.092996   -0.045047   -0.060313   -0.046022
-0.049595   -0.011917    0.010495    0.080003   -0.046996   -0.045372   -0.034654
-0.04927   -0.018413   -0.012242    0.045574   -0.037252   -0.026533   -0.023285
-0.047971   -0.021012   -0.034654  -0.0028225   -0.021986  -0.0044465   -0.012242
-0.044398   -0.020687   -0.054792   -0.054467  -0.0047713    0.014392 -0.00054884
-0.039526   -0.018738   -0.071032   -0.095393   0.0088706    0.028359    0.011794
-0.028482   -0.018413   -0.084024    -0.12203    0.016341    0.037778    0.024137
-0.012567   -0.022311   -0.097017    -0.14087    0.017965    0.041351    0.036479
0.003024   -0.030756    -0.11488    -0.16393    0.020564    0.045574    0.046873
0.016666   -0.039201    -0.13762    -0.19121    0.024137    0.049796    0.053369
0.027385   -0.045697    -0.15841    -0.20648    0.024786    0.048172    0.054668
0.033556   -0.047321    -0.16782    -0.19154    0.016341    0.039402    0.052395
0.03518   -0.046671    -0.15776    -0.13567  -0.0037969    0.020239    0.047523
0.032906   -0.046996    -0.12463   -0.046022   -0.036278  -0.0034721    0.041027
0.031932   -0.044723   -0.079477     0.05207   -0.075579   -0.028157    0.036479
0.030957   -0.037577   -0.034978     0.13392    -0.10936   -0.047971    0.029333
0.027709   -0.027183 -0.00022403     0.18199    -0.13015   -0.059989     0.01764
0.022188   -0.015815    0.024786     0.19304    -0.13827   -0.064211   0.0026992
0.019264  -0.0073698    0.042001     0.16543    -0.13827   -0.057065  -0.0089938
0.021863  -0.0028225    0.054019     0.10501    -0.12722   -0.042124   -0.010943
0.029009  -0.0015233    0.056942    0.021863    -0.10351   -0.021986  0.00042559
0.038753 -0.00087364    0.050771   -0.066485   -0.069408  -0.0060706    0.020239
0.044924  -0.0011985    0.039078    -0.14346   -0.030431  -0.0021729    0.036154
0.042975 -0.00087364    0.028034    -0.19673   0.0033489   -0.007045    0.041027
0.031282  -0.0021729    0.018615     -0.2172    0.020564   -0.017439    0.034855
0.016666  -0.0054209   0.0062721    -0.20096    0.014717   -0.030431    0.024137
0.0078962   -0.010943   -0.010943    -0.16198   -0.007045   -0.042124     0.01764
0.0085458   -0.011592   -0.029132    -0.10968   -0.027183   -0.049595    0.019589
0.01764  -0.0054209   -0.036927   -0.042124   -0.027508   -0.052518    0.029009
0.031282    0.008221   -0.025234    0.051745  -0.0093186   -0.053817    0.038428
0.040052    0.022837   0.0043233     0.17647    0.011469   -0.055766    0.042975
0.039727    0.030308    0.039078     0.31841    0.014068    -0.05739    0.037129
0.027385    0.026735    0.065062     0.44574   -0.007045   -0.059664    0.026735
0.0075714    0.017965    0.075456     0.52466   -0.046347   -0.065186    0.011469
-0.01484   0.0062721    0.075131     0.53311    -0.08305   -0.072656  -0.0028225
-0.031406  -0.0063954    0.066686     0.47107    -0.10124   -0.077203   -0.013541
-0.041799   -0.018088    0.050771     0.35089   -0.090196   -0.073306   -0.017439
-0.047971   -0.027833    0.031282     0.19628   -0.052518   -0.061288   -0.019063
-0.048945   -0.034654    0.011144    0.038103  -0.0015233   -0.045047   -0.018738
-0.043099   -0.036927   -0.008669   -0.098641    0.045574   -0.029132   -0.018088
-0.030106   -0.035628    -0.02361    -0.18569    0.078704   -0.019388   -0.017764
-0.014516   -0.033679   -0.026209    -0.20031    0.092346   -0.015815   -0.017764
-0.0037969    -0.03173    -0.01549    -0.14769      0.0865   -0.014516   -0.018413
-0.0054209   -0.028807   0.0026992   -0.060313    0.059865   -0.018738   -0.020687
-0.016464   -0.023935    0.019589    0.024786     0.01894   -0.027833   -0.025559
-0.030431    -0.01614    0.033881    0.087149   -0.027183   -0.038876   -0.032705
-0.039526  -0.0096434    0.044924     0.13262   -0.072006   -0.052518   -0.039851
-0.038551  -0.0054209    0.058566     0.18459    -0.11261   -0.067134   -0.043099
-0.031081  -0.0060706    0.076106     0.25475    -0.14736   -0.080451   -0.042774
-0.018738   -0.011917    0.091047     0.32848    -0.17724   -0.088896   -0.037252
-0.0034721   -0.023285    0.096893     0.37818    -0.19771   -0.091495   -0.031081
0.009845   -0.032705    0.092671      0.3863     -0.2029   -0.089871    -0.03303
0.016016   -0.041475    0.081303     0.34862    -0.18959   -0.086623   -0.044073
0.010495   -0.048945    0.066037     0.27879    -0.16035   -0.084999   -0.059339
-0.0050961   -0.055441    0.051096     0.19336    -0.12527   -0.084674   -0.069733
-0.020037   -0.056741    0.038103     0.10696   -0.093769   -0.084999   -0.073955
-0.025234    -0.04927    0.028034    0.032257   -0.065186   -0.081101   -0.073306
-0.017439   -0.033354    0.019914   -0.018088   -0.035303   -0.072981   -0.069083
-0.0041217   -0.012567    0.016991   -0.034329  -0.0054209   -0.063561    -0.06681
0.01017   0.0065969    0.018615   -0.013866    0.021538   -0.055116   -0.067134
0.017316    0.020239    0.021863    0.030633    0.039078    -0.04992   -0.066485
0.017316    0.025761    0.024461     0.07773    0.045574   -0.044723   -0.061937
0.011144    0.019914    0.027385     0.10209    0.044924   -0.035303   -0.056741
0.0056225   0.0059473     0.02641    0.091696    0.042326   -0.022636    -0.04992
0.0049729  -0.0096434    0.022512     0.05207    0.038103   -0.011592   -0.038227
0.008221   -0.023935    0.013418      0.0014    0.033231  -0.0028225   -0.022961
0.015367   -0.034978   0.0010752   -0.042449    0.026085   0.0056225  -0.0031473
0.025111   -0.043099    -0.01549   -0.078827    0.017965    0.012119    0.017316
0.031932   -0.046671   -0.035953     -0.1217     0.01017     0.01764    0.033231
0.034855   -0.043748   -0.059664    -0.18959   0.0085458    0.023487    0.042001
0.036154    -0.03303   -0.087922    -0.28605    0.017316    0.030308    0.045249
0.038428   -0.018738    -0.11586    -0.38739     0.03518    0.034855    0.042326
0.040702  -0.0057458    -0.13534    -0.45236    0.054019     0.03583     0.03518
0.039402   0.0036737    -0.13599    -0.43969    0.061489    0.031282    0.024137
0.036154   0.0069217    -0.11683    -0.33478    0.052395    0.021863   0.0091954
0.029333   0.0043233   -0.084349    -0.16555    0.031607   0.0056225  -0.0076946
0.016341  0.00010078   -0.053168   0.0075714   0.0085458   -0.012892    -0.02361
0.0014  -0.0018481   -0.034978      0.1284  -0.0083442   -0.026533   -0.030756
-0.014516      0.0014   -0.028807      0.1703   -0.018088    -0.03173   -0.030106
-0.028807   0.0069217   -0.031081     0.14302   -0.020362   -0.027833   -0.025234
-0.040175     0.01017   -0.034004     0.07708   -0.013541   -0.014191   -0.022311
-0.048296   0.0088706    -0.03303   0.0056225   0.0010752   0.0049729   -0.022311
-0.047971   0.0026992   -0.025884    -0.04992    0.019914    0.021863   -0.022311
-0.045697  -0.0034721   -0.014516     -0.0824    0.035505     0.03453   -0.021337
-0.044723  -0.0063954  -0.0024977   -0.092469    0.044599    0.040052   -0.017764
-0.046671  -0.0057458   0.0062721   -0.088572    0.048822    0.037778   -0.010618
-0.047971  -0.0024977   0.0075714   -0.080776     0.05272    0.029983  -0.0011985
-0.045047   0.0033489   0.0020496   -0.076229    0.059216    0.022188   0.0049729
-0.039526     0.01017  -0.0034721   -0.079152    0.071234    0.018615   0.0072465
-0.03303    0.016991  -0.0037969   -0.084674    0.091047     0.01829   0.0033489
-0.027508    0.023812   0.0046481   -0.089871     0.12223    0.016341  -0.0067202
-0.025884    0.029009    0.018615   -0.086298      0.1625    0.010495   -0.021661
-0.03173    0.028359    0.031282   -0.073955     0.19856  -0.0028225   -0.036927
-0.045697    0.022188    0.039402   -0.058365     0.20863   -0.021986    -0.04862
-0.061937    0.014717      0.0433    -0.04992     0.17874   -0.039526   -0.054142
-0.071682   0.0072465    0.040702   -0.051544     0.10729    -0.04927   -0.048945
-0.06616   0.0059473    0.029983   -0.067459     0.01764   -0.047646   -0.032055
-0.047321   0.0091954   0.0085458   -0.097017   -0.062587    -0.03303  -0.0080194
-0.026858    0.013093   -0.020362    -0.13469    -0.11715  -0.0080194    0.013743
-0.013541    0.012443    -0.04992    -0.16393    -0.13989    0.017316    0.027385
-0.0050961   0.0059473   -0.070707    -0.16588    -0.13632    0.038753    0.033881
0.00075039  -0.0011985   -0.079802    -0.13534     -0.1178    0.051745    0.036479
0.008221  -0.0057458     -0.0824    -0.10384   -0.096367    0.058891     0.03453
0.016341  -0.0096434   -0.094418    -0.12722   -0.089221    0.061489    0.030957
0.017965   -0.018413    -0.12527    -0.25812    -0.10676    0.058241    0.028684
0.01017   -0.034004    -0.17237    -0.49393    -0.14444    0.050446    0.029009
-0.0018481   -0.052193    -0.21979    -0.77521    -0.17887    0.046873    0.032906
-0.011917   -0.064861    -0.25162      -1.023    -0.18764    0.050771    0.038428
-0.017764   -0.068758    -0.26007     -1.1705    -0.16782    0.058891    0.042326
-0.02426   -0.067459    -0.24708      -1.178     -0.1334    0.062464    0.042326
-0.030106   -0.055116    -0.20193     -1.0169    -0.10156    0.049796    0.038753
-0.027183   -0.026209    -0.10254    -0.66965   -0.069408    0.021538    0.033556
-0.0083442    0.024786     0.05142    -0.16003   -0.025234   -0.014516    0.027385
0.024786    0.088773     0.23039      0.4269    0.036479   -0.053168    0.016666
0.059541     0.14951     0.38565     0.98297     0.10696   -0.094093    0.003024
0.080978     0.18784     0.47302      1.4078     0.17192    -0.12527   -0.011917
0.078055     0.19304     0.47367      1.6215     0.21772    -0.13859   -0.023935
0.053369     0.16413     0.39604      1.5741     0.23331    -0.13437   -0.033354
0.01829     0.11086     0.26839        1.26     0.21382    -0.11748   -0.039201
-0.013541    0.051745     0.12288     0.73741     0.15991   -0.092469   -0.039201
-0.037252    0.003024   -0.014516      0.1219    0.088448   -0.060963   -0.030431
-0.048945   -0.026858    -0.12722    -0.44716    0.021863   -0.024909   -0.012892
-0.047321   -0.035628    -0.19998    -0.86259   -0.021012   0.0072465    0.010495
-0.034978   -0.029132    -0.22109     -1.0633   -0.030431    0.032582     0.03518
-0.016464   -0.015165    -0.18666    -0.98601  -0.0037969    0.046873    0.054668
0.0010752   0.0033489    -0.10741    -0.59072    0.050121    0.047847    0.064088
0.012443    0.020888   -0.018088    0.041027     0.10404    0.040052     0.06084
0.017965    0.026085    0.046873     0.69064     0.12645    0.029658    0.045249
0.01829    0.017316     0.06961      1.1373     0.10079    0.019589    0.022837
0.014068  -0.0044465    0.047198      1.2519    0.033231   0.0085458   0.0020496
0.003024   -0.033354  -0.0083442      1.0262    -0.04927  -0.0031473  -0.0096434
-0.01614   -0.062587   -0.079802     0.56981    -0.11586   -0.012567   -0.012892
-0.039526    -0.08305    -0.14671    0.056942    -0.14996   -0.019388   -0.012892
-0.061288    -0.09182    -0.19673    -0.34614    -0.15386   -0.026858   -0.012242
-0.076554   -0.090521    -0.22207     -0.5459    -0.14379   -0.037577  -0.0093186
-0.077853   -0.082725    -0.22402      -0.555    -0.13859   -0.051219  -0.0047713
-0.063561   -0.068758    -0.20778     -0.4556    -0.15061    -0.06681   0.0020496
-0.037577    -0.04862    -0.18114    -0.33445    -0.18569   -0.081426   0.0091954
-0.0050961   -0.021012    -0.15093    -0.22759    -0.23409   -0.088572     0.01764
0.028034    0.014392    -0.11813    -0.11196    -0.26884   -0.085324    0.030633
0.057267    0.054668   -0.081751    0.045574    -0.26624   -0.073631    0.048822
0.079354    0.091047   -0.042449     0.23689    -0.22824   -0.058689    0.064088
0.09397     0.11054  -0.0050961     0.41391    -0.17757   -0.050894    0.069934
0.096893     0.10989    0.021213     0.52174     -0.1334   -0.054142    0.062139
0.086175    0.095919    0.031607     0.53084    -0.10611   -0.058365    0.046223
0.067336    0.074806    0.029658     0.45418   -0.095393   -0.055766    0.029009
0.047847    0.053369    0.020888     0.32718   -0.092469   -0.045697    0.017965
0.029009    0.036479    0.014717     0.18784   -0.087597   -0.026858    0.011144
0.0095202    0.027385    0.016341    0.056292    -0.07428  -0.0031473   0.0043233
-0.007045    0.023812    0.021538   -0.070382   -0.053492    0.016016  -0.0044465
-0.017114    0.020564    0.020564    -0.20193   -0.033679    0.026085   -0.011592
-0.019712    0.016341   0.0088706    -0.36011   -0.021661    0.025761    -0.01484
-0.017114   0.0095202   -0.011917    -0.55077    -0.02361    0.018615   -0.018088
-0.016464   0.0020496   -0.035303    -0.75248   -0.038876   0.0075714   -0.023285
-0.022961  -0.0054209   -0.056741    -0.93567   -0.055441  -0.0028225   -0.027833
-0.032055  -0.0089938   -0.068109     -1.0727   -0.060963   -0.010293   -0.031081
-0.035953  -0.0093186    -0.06616     -1.1364   -0.047646   -0.012567   -0.039851
-0.033354  -0.0054209    -0.04862     -1.1072    -0.01484   -0.008669   -0.048945
-0.028807   0.0020496    -0.01484    -0.95906    0.030957   0.0017248   -0.057715
-0.020362    0.013418    0.032582    -0.65244    0.078379    0.016016   -0.060313
-0.0093186    0.028359    0.090072    -0.17887     0.11866    0.027385   -0.051544
0.0033489      0.0433     0.14561      0.3811     0.14464    0.029983   -0.033354
0.013093    0.052395     0.18946      0.8904     0.15276     0.02706   -0.015815
0.017965     0.05207     0.20895      1.2425     0.14529    0.023162  -0.0050961
0.015367    0.042001     0.20051      1.3844     0.12905    0.024461  -0.0028225
0.01017     0.02641       0.169      1.3351     0.10924    0.028684   -0.010618
0.0052977    0.011144      0.1245      1.1642     0.08585    0.031607   -0.025884
0.0017248  -0.0028225    0.076755     0.94562    0.061814    0.028034   -0.043099
0.00042559   -0.013866    0.033556     0.73774    0.036154    0.015692   -0.054467
-0.0028225   -0.021337  0.00075039     0.57501    0.012443  -0.0028225   -0.056416
-0.0099683   -0.027833   -0.018738     0.46263  -0.0034721   -0.019712   -0.054142
-0.018738   -0.028157   -0.026858     0.38207   -0.010293    -0.03303   -0.051544
-0.025884   -0.022636   -0.026858     0.31127   -0.011592   -0.044723   -0.047321
-0.026533   -0.015165   -0.022961     0.23624  -0.0080194   -0.058365   -0.042124
-0.024585   -0.011267    -0.01614     0.15568  -0.0047713    -0.07428   -0.036927
-0.025234  -0.0099683  -0.0080194    0.078055  -0.0050961    -0.09182   -0.029132
-0.03173  -0.0063954  -0.0011985   0.0095202   -0.007045    -0.10611   -0.017114
-0.040825 -0.00087364      0.0014   -0.041475  -0.0054209    -0.11683  -0.0034721
-0.046347   0.0033489   0.0023744   -0.072981 -0.00087364    -0.12073   0.0039985
-0.043423   0.0049729   0.0017248   -0.089546   0.0039985    -0.11521   0.0039985
-0.033679   0.0065969      0.0014   -0.098641   0.0078962    -0.10319  -0.0018481
-0.021661   0.0088706   0.0075714    -0.10838    0.012443    -0.09182   -0.010293
-0.014191   0.0085458    0.018615    -0.12268    0.019264   -0.084349   -0.019712
-0.01549   0.0043233    0.030957    -0.14022    0.025436   -0.076879   -0.026209
-0.024909  -0.0054209    0.038103    -0.16165    0.020888    -0.06616   -0.030756
-0.034978    -0.01549    0.039402    -0.18374   0.0046481    -0.04992    -0.03173
-0.042774   -0.023285    0.033556    -0.20388    -0.01484   -0.029457   -0.028807
-0.046022   -0.028482    0.019589    -0.21655   -0.035303  -0.0047713   -0.022961
-0.043748   -0.027833  -0.0011985    -0.22337   -0.052843    0.022188   -0.014191
-0.039526   -0.024909   -0.020687    -0.23019   -0.062912    0.046223  -0.0057458
-0.03238   -0.022636   -0.038551    -0.24058   -0.062587    0.064737   0.0020496
-0.023285   -0.022636   -0.050894    -0.25487   -0.062262    0.074157   0.0052977
-0.014191   -0.029782   -0.056741    -0.26429   -0.073631    0.076431   0.0026992
-0.0096434   -0.038876   -0.055441    -0.26429   -0.098641    0.075781  -0.0018481
-0.0099683   -0.043099   -0.046671    -0.25033    -0.13567     0.07773  -0.0047713
-0.012242   -0.040825   -0.036602    -0.22012      -0.174    0.084876  -0.0018481
-0.014191   -0.036927   -0.024585    -0.17854    -0.19706    0.093645   0.0046481
-0.013216   -0.033354   -0.010618    -0.13664    -0.19576    0.096893   0.0088706
-0.0073698   -0.029457   0.0033489    -0.10319    -0.17465    0.088773   0.0088706
0.0046481   -0.026858    0.013418   -0.085324    -0.14509    0.070584   0.0052977
0.01894   -0.025559    0.016666   -0.078503    -0.11651     0.05207   0.0010752
0.027385   -0.023935    0.017316   -0.076229   -0.091495    0.039727  -0.0028225
0.025436   -0.023935    0.017316   -0.077853   -0.068434    0.038103  -0.0034721
0.013743   -0.027833    0.017965   -0.084024   -0.044723    0.045249  -0.0018481
0.00075039   -0.034978    0.015692   -0.094093   -0.020362    0.057917   0.0020496
-0.0089938   -0.041799    0.012443    -0.10514   0.0017248    0.067336   0.0095202
-0.011592   -0.043423   0.0072465    -0.11261    0.020239     0.06896    0.017316
-0.0054209   -0.037902  0.00042559    -0.11326    0.033231    0.059541    0.023162
0.0075714   -0.027833   -0.011592    -0.10579    0.040377    0.038428    0.025111
0.020888    -0.01614   -0.022311   -0.093444    0.046223   0.0085458    0.020239
0.028684  -0.0080194   -0.030106    -0.08305    0.048822   -0.019712    0.013418
0.026735  -0.0093186   -0.028482   -0.079477    0.049796   -0.040175   0.0078962
0.016341   -0.017764   -0.020362    -0.08305    0.049147   -0.050569   0.0023744
0.0017248   -0.029132   -0.010618   -0.093444    0.043625   -0.055116 -0.00054884
-0.0096434   -0.036602   0.0010752    -0.10319    0.032257   -0.055116  -0.0021729
-0.012242   -0.037577    0.013743    -0.10611    0.016991   -0.056416  -0.0034721
-0.0076946   -0.033679    0.020564   -0.098641   0.0039985   -0.061288  -0.0099683
0.00075039   -0.025234     0.01764   -0.084674  -0.0015233   -0.070058    -0.01484
0.01017    -0.01484   0.0085458   -0.068109   0.0026992   -0.080776   -0.012242
0.017316  -0.0037969  -0.0024977   -0.051544    0.016341   -0.084674  -0.0037969
0.022188   0.0036737    -0.01484   -0.032705    0.025436   -0.080127    0.010495
0.025436   0.0072465   -0.027508  -0.0060706    0.022512   -0.070707     0.02706
0.027385   0.0078962   -0.038227    0.021863   0.0091954   -0.062587    0.038428
0.025111   0.0065969   -0.047971    0.042651  -0.0073698   -0.055766    0.040702
0.016341   0.0043233   -0.058689    0.057592   -0.021337   -0.052518    0.032257
0.003024   0.0017248   -0.068758    0.074806   -0.030431    -0.04992     0.01764
-0.012567  -0.0028225    -0.07428    0.092021   -0.033679   -0.046022  0.00042559
-0.024585  -0.0073698   -0.077853    0.080653   -0.038876   -0.043423   -0.012242
-0.027833   -0.010293   -0.077528    0.016666   -0.047646   -0.046347   -0.020687
-0.026858  -0.0083442   -0.068758   -0.068109   -0.044723   -0.056741   -0.022961
-0.021661  -0.0011985   -0.045047    -0.11163   -0.015165   -0.067459   -0.020362
-0.014191    0.008221  -0.0080194   -0.086298    0.037129   -0.072656    -0.01484
-0.0041217    0.016016    0.032582   -0.020687    0.092996   -0.072331   -0.010943
0.0046481    0.021863    0.061489    0.041027     0.12937   -0.071357   -0.011592
0.0065969    0.024461    0.075131     0.06896      0.1336   -0.069408   -0.013541
-0.00087364    0.019589    0.073182    0.061489     0.10696    -0.06551   -0.017114
-0.013866    0.010495    0.057917    0.030633    0.066037   -0.060963   -0.020687
-0.023285 -0.00054884    0.034206  -0.0031473    0.031282   -0.056741   -0.026533
-0.026209  -0.0063954   0.0069217   -0.029132   0.0088706    -0.05739   -0.034329
-0.02361  -0.0093186   -0.021986   -0.051868  -0.0041217   -0.057715   -0.040175
-0.018738   -0.012892   -0.042124   -0.071032   -0.011267    -0.05739   -0.040825
-0.013541   -0.016789   -0.049595   -0.085648   -0.012892    -0.05739   -0.034329
-0.0083442   -0.019712    -0.04862   -0.085973   -0.012892   -0.057715   -0.023285
-0.007045   -0.022636   -0.044398   -0.063886   -0.014191   -0.058365   -0.014191
-0.012567   -0.024909   -0.045372   -0.028157   -0.017764   -0.058689   -0.011592
-0.019063   -0.025884   -0.050894   0.0062721   -0.022636   -0.057715    -0.01484
-0.021012   -0.024909   -0.057715    0.025436   -0.022311   -0.052843   -0.020037
-0.013216   -0.018088   -0.058365    0.021213   -0.013541   -0.043099   -0.021012
0.0023744  -0.0037969    -0.04862  -0.0057458   0.0059473   -0.030756   -0.014191
0.019589    0.014392   -0.030756   -0.041799    0.030957   -0.020037  -0.0044465
0.033231     0.03453   -0.007045   -0.067784    0.048497   -0.017764   0.0033489
0.038753     0.05142    0.016666   -0.067134    0.045249   -0.028807   0.0072465
0.033556    0.060515    0.034855   -0.031081     0.01894   -0.050894   0.0052977
0.023162    0.061814    0.046223    0.038103   -0.021661   -0.077853 -0.00054884
0.013093    0.057267     0.05207     0.12872   -0.063561    -0.10221  -0.0080194
0.0062721     0.05142    0.053694     0.21902   -0.097017    -0.11813   -0.012242
0.00042559     0.04395    0.054344     0.28885    -0.11553    -0.12268  -0.0099683
-0.0054209    0.036479    0.050771     0.32069    -0.11586    -0.11651  -0.0018481
-0.011592    0.026085    0.039078     0.31516    -0.09929    -0.10319   0.0059473
-0.01484    0.015042    0.020239     0.27781   -0.069733   -0.087272   0.0095202
-0.011917   0.0046481  -0.0018481     0.22259   -0.034978   -0.068109    0.009845
-0.0060706  -0.0018481   -0.022311     0.16445  -0.0063954   -0.043748   0.0069217
-0.00022403  -0.0031473   -0.039201     0.11216    0.011794   -0.020037   0.0046481
0.0026992  -0.0021729   -0.049595    0.067661    0.015367  -0.0034721   0.0072465
0.0026992  -0.0011985    -0.05804     0.02641   0.0078962   0.0046481    0.013093
-0.00022403  -0.0034721   -0.070058  -0.0099683  -0.0050961   0.0091954     0.01764
-0.0054209   -0.013216   -0.086298   -0.043748   -0.016789    0.013418    0.020564
-0.0093186   -0.025884    -0.10351   -0.074605   -0.015815    0.017965    0.019589
-0.0096434   -0.034654    -0.11488    -0.09994  -0.0018481    0.021213    0.016666
-0.0044465   -0.037577    -0.11553    -0.10806    0.014068    0.019264    0.014068
0.0017248   -0.035303    -0.10449   -0.087597    0.016341    0.013418    0.016016
0.0056225   -0.027833   -0.084999    -0.04115  -0.0015233   0.0056225    0.020239
0.008221   -0.015815   -0.059664    0.016666   -0.034329  -0.0031473    0.020239
0.011469  -0.0021729   -0.031081    0.073182   -0.071032   -0.008669    0.015042
0.017316     0.01017  -0.0037969     0.11898    -0.10319   -0.011917    0.011469
0.019589    0.020888    0.014068     0.14821    -0.12398   -0.013866    0.013743
0.012443     0.02641    0.015692     0.15926    -0.13177    -0.01549    0.019589
-0.0028225    0.029333   0.0075714     0.15633    -0.13047    -0.01549    0.022512
-0.019063    0.029009 -0.00087364     0.14399    -0.12625   -0.016789    0.020239
-0.029457    0.024786  -0.0044465     0.12775     -0.1217   -0.020362    0.013743
-0.032705    0.016991  -0.0034721     0.11281    -0.11586   -0.023285   0.0043233
-0.034004    0.008221  0.00010078     0.10014    -0.10416   -0.023285  -0.0060706
-0.036927   0.0017248   0.0033489    0.092346   -0.088247   -0.019063  -0.0099683
-0.034654  0.00042559   0.0069217    0.086824   -0.073306   -0.013216  -0.0034721
-0.029132   0.0017248    0.011794    0.080653   -0.062262  -0.0054209   0.0095202
-0.023935  0.00010078    0.015692    0.072858   -0.051219   0.0026992    0.018615
-0.017439  -0.0034721    0.013743    0.063438   -0.035628    0.010495     0.01829
-0.012567   -0.010293   0.0043233    0.050771   -0.019063     0.01764   0.0062721
-0.011917    -0.01549  -0.0089938    0.037778  -0.0067202    0.022512  -0.0093186
-0.017439   -0.016464   -0.018088     0.03453 -0.00054884    0.028684   -0.022311
-0.029782   -0.013541   -0.025884    0.039727      0.0014    0.036154   -0.023285
-0.044398   -0.012242   -0.038551    0.034855  -0.0031473    0.042975    -0.01549
-0.054792   -0.019388   -0.063561  -0.0063954   -0.011917    0.046223   -0.007045
-0.054142   -0.033679   -0.092794   -0.084674   -0.018413    0.047523  -0.0031473
-0.043748   -0.047646    -0.11001    -0.17789   -0.015165    0.050446  -0.0047713
-0.029132   -0.050894    -0.10091    -0.25422 -0.00022403    0.055318  -0.0076946
-0.013541   -0.038227   -0.067459     -0.2867    0.019264    0.056942  -0.0099683
-0.0031473   -0.017764   -0.024909    -0.26592     0.03583    0.057917   -0.010618
0.0010752  0.00010078   0.0095202    -0.21395    0.041351    0.057917  -0.0089938
0.0039985   0.0091954    0.023812    -0.16588    0.038103     0.06084  -0.0057458
0.0059473    0.012768    0.017965    -0.14119    0.031932     0.06831   0.0020496
0.0052977    0.013418  -0.0011985    -0.12885    0.017965    0.075456    0.012443
0.00010078    0.015367   -0.020037    -0.10091  -0.0089938    0.075456    0.022188
-0.0093186    0.016666   -0.030431   -0.038227   -0.046671    0.067336    0.028684
-0.018738    0.016341   -0.026858    0.051096     -0.0837    0.053044    0.031607
-0.022636    0.013743   -0.016464     0.14172    -0.10611    0.040052    0.029009
-0.019063    0.012768  -0.0067202     0.20993    -0.10903    0.030308    0.024137
-0.0096434    0.016016  -0.0011985     0.24241   -0.096367    0.022188    0.017316
0.003024    0.025111  -0.0018481     0.23721   -0.076229    0.011469    0.013418
0.014717    0.036154  -0.0050961     0.20376   -0.053492  -0.0011985    0.013418
0.021213    0.044275  -0.0073698     0.15731   -0.030756   -0.014516    0.015367
0.023487    0.049472   -0.008669     0.11054    -0.01549   -0.021661    0.014392
0.022512     0.05142  -0.0067202    0.070584   -0.007045   -0.022961   0.0095202
0.017316     0.05142  -0.0037969    0.042326  -0.0031473   -0.018738   0.0043233
0.010819    0.048497  -0.0021729    0.025111  -0.0011985   -0.010618    0.003024
0.0085458    0.041351  -0.0031473    0.018615  0.00042559   0.0010752   0.0033489
0.01017    0.031932  -0.0050961    0.015692 -0.00087364    0.014068   0.0039985
0.012443    0.019589  -0.0093186    0.009845  -0.0041217    0.023162      0.0014
0.012443   0.0085458   -0.015815  0.00042559  -0.0057458    0.024461  -0.0011985
0.01017   0.0036737   -0.019388  -0.0067202  -0.0037969    0.019589  -0.0044465
0.0039985   0.0052977   -0.015815  -0.0083442 -0.00022403    0.011469  -0.0076946
-0.0031473   0.0085458   -0.007045  -0.0060706   0.0052977   0.0085458   -0.013866
-0.0076946   0.0095202   0.0059473  0.00010078     0.01017   0.0075714   -0.021986
-0.013216   0.0062721    0.019914   0.0062721    0.014392   0.0036737   -0.031081
-0.017764   0.0020496    0.029658    0.008221     0.01764  -0.0031473   -0.035628
-0.020037  -0.0063954    0.031607   0.0046481    0.020888  -0.0099683   -0.037577
-0.021337   -0.015165    0.028684  -0.0011985    0.025436   -0.014191   -0.039526
-0.022961   -0.025559    0.024461  -0.0041217    0.031932    -0.01549   -0.042449
-0.025559   -0.033679    0.024786  -0.0015233    0.038103   -0.013216   -0.042449
-0.030431   -0.036602    0.030633   0.0065969    0.041351  -0.0099683   -0.042124
-0.036927   -0.034654    0.037454    0.014068    0.038103  -0.0050961   -0.043423
-0.041475    -0.03303    0.042326    0.016666    0.028684  -0.0028225   -0.046671
-0.043423   -0.035628    0.041351    0.011469    0.016341  -0.0037969   -0.046996
-0.042774   -0.039526    0.034855  -0.0034721   0.0052977  -0.0050961   -0.040175
-0.036927   -0.043099    0.026085   -0.028807  0.00010078  -0.0034721   -0.030106
-0.026533   -0.042449    0.014392   -0.055766  0.00042559  0.00010078   -0.016789
-0.011917   -0.039851      0.0014   -0.075579   0.0052977 -0.00087364  -0.0028225
0.0014   -0.034978  -0.0089938   -0.087272    0.013093  -0.0080194   0.0091954
0.009845   -0.030106   -0.014191   -0.089221    0.019914   -0.017114    0.019914
0.011794   -0.023935   -0.012242     -0.0837    0.019914   -0.022636     0.02706
0.0088706   -0.017114  -0.0050961   -0.072331    0.014392   -0.022961    0.027385
0.0049729   -0.011267   0.0056225   -0.055766   0.0075714   -0.022311    0.019589
0.0065969  -0.0076946    0.015367   -0.034978   0.0036737   -0.026209   0.0059473
0.014068   -0.010293    0.018615   -0.017114   0.0036737   -0.034004  -0.0080194
0.023162   -0.015815    0.016991   -0.011917   0.0078962   -0.042774    -0.01549
0.028034   -0.021012    0.016016   -0.021012    0.017316   -0.046347   -0.017764
0.02706   -0.023935     0.01764    -0.04115    0.030633   -0.048296   -0.015815
0.01764   -0.022636    0.020564   -0.065835    0.044924    -0.04862   -0.013866
0.0017248   -0.019712    0.021538   -0.090521    0.056292   -0.047646    -0.01549
-0.014516    -0.01549    0.022512    -0.11456    0.058241   -0.043748   -0.020037
-0.025884   -0.014516    0.022512    -0.14281    0.049147   -0.037252   -0.026209
-0.03303   -0.018088    0.016991    -0.18212     0.03518   -0.028157   -0.028157
-0.036278   -0.021661   0.0059473    -0.23896     0.02641   -0.016464   -0.026533
-0.034978   -0.021012   -0.010943    -0.31139    0.025436  -0.0018481   -0.022636
-0.026858   -0.016464   -0.031406    -0.37798    0.028684    0.012119   -0.013866
-0.013216   -0.012242   -0.047646    -0.40916    0.028684    0.021863  0.00042559
0.0010752   -0.011592   -0.054792    -0.37668    0.012443    0.023162    0.018615
0.0065969   -0.017114    -0.04992    -0.27599   -0.024909     0.01894    0.036804
0.0026992   -0.023285   -0.039851    -0.13567   -0.068434   0.0075714    0.050771
-0.0021729   -0.024585    -0.03238  -0.0037969   -0.096692  -0.0067202    0.055643
-0.0054209   -0.020037   -0.034329    0.078379   -0.093769   -0.017439    0.049147
-0.0093186  -0.0093186   -0.042774     0.11151   -0.062587   -0.020687    0.037778
-0.011917   0.0023744   -0.051544     0.11768   -0.019063   -0.018738     0.02641
-0.01549    0.011794   -0.051219     0.13035    0.014717   -0.017439    0.017316
-0.020362    0.018615   -0.040175     0.17095    0.021538   -0.022961    0.009845
-0.025234    0.021863   -0.023285     0.23396   0.0010752   -0.034004      0.0014
-0.028482    0.020888  -0.0076946     0.29665   -0.038227   -0.043748   -0.008669
-0.030431    0.014392   0.0043233     0.33335   -0.085973    -0.04927   -0.018738
-0.033679   0.0033489   0.0095202     0.33238    -0.12852   -0.053817   -0.025234
-0.036602   -0.007045   0.0075714     0.31094    -0.15256   -0.061613   -0.026533
-0.037902   -0.012892 -0.00022403      0.2934    -0.15353   -0.071032   -0.021986
-0.034004   -0.011917  -0.0096434     0.29633    -0.13827   -0.077853   -0.015165
-0.026858  -0.0067202   -0.013541     0.31614     -0.1178   -0.080451  -0.0083442
-0.016464      0.0014   -0.008669     0.33238   -0.098316   -0.073306  -0.0044465
-0.0041217    0.010495    0.003024     0.32881   -0.080127   -0.059989  -0.0031473
0.0072465     0.01829    0.014392     0.30217   -0.059664   -0.044723  -0.0041217
0.011794    0.019589    0.020888      0.2593   -0.041475   -0.034654  -0.0018481
0.0088706    0.015692    0.018615     0.20635   -0.029132   -0.031406   0.0056225
0.0014    0.011794   0.0085458     0.15373   -0.022961   -0.033354    0.015042
-0.0041217   0.0091954  -0.0054209     0.10177   -0.019063   -0.034654    0.024137
-0.0028225   0.0075714   -0.017439     0.04395   -0.010943   -0.028482    0.028684
0.0056225   0.0078962   -0.021986   -0.018738      0.0014    -0.01614    0.027709
0.015367   0.0075714   -0.019712   -0.088247    0.014068   -0.007045    0.017965
0.022512   0.0049729   -0.011267    -0.15711    0.028034   -0.007045   0.0023744
0.021213    0.003024  -0.0028225    -0.21395    0.040052   -0.015165   -0.013866
0.017316   0.0065969  0.00042559     -0.2435    0.044924   -0.028807   -0.025559
0.014392    0.013418   0.0017248    -0.23668    0.035505   -0.042449   -0.033354
0.012443    0.019264   0.0069217    -0.19608    0.013743   -0.052843   -0.036278
0.01017    0.024786    0.017965    -0.13437   -0.017114   -0.059339   -0.036278
0.01017    0.028684    0.032257   -0.067459    -0.04992   -0.059989   -0.031406
0.010819    0.032257    0.041351   -0.016789   -0.073631   -0.055116   -0.025234
0.009845    0.033881    0.046223   0.0072465   -0.079802   -0.044723   -0.021661
0.011144    0.032906    0.047198    0.011144    -0.06616   -0.034329   -0.019063
0.011469    0.030957    0.043625    0.013743   -0.042774   -0.028157   -0.017439
0.013743    0.029658    0.039078    0.024786   -0.023935   -0.026533   -0.018088
0.016666    0.029983    0.038428    0.047198   -0.018738   -0.024909   -0.019712
0.017316    0.029983    0.039078    0.071883   -0.026533   -0.022636   -0.019063
0.017316    0.028034    0.038428    0.080003   -0.042449   -0.017114   -0.018088
0.018615    0.024137    0.034206    0.054668   -0.053168   -0.012567    -0.01549
0.022512    0.019589    0.026735  -0.0024977   -0.055116  -0.0089938   -0.011267
0.02706    0.015692     0.01829   -0.063886   -0.056741   -0.008669   -0.011267
0.027385    0.014068    0.013418   -0.093769   -0.069408    -0.01614    -0.01614
0.021863    0.013418    0.014068   -0.075579   -0.095068   -0.029457   -0.024585
0.012119    0.011794    0.014717   -0.019388    -0.12527   -0.041799   -0.031081
0.00075039    0.008221    0.012443    0.046873    -0.14996   -0.047321    -0.03238
-0.0073698  0.00042559   0.0033489    0.092021    -0.16295   -0.043423   -0.030431
-0.010293  -0.0076946   -0.008669    0.096893    -0.16003   -0.034978   -0.027833
-0.0076946    -0.01549   -0.020687    0.062789    -0.14411   -0.027183   -0.025234
-0.0054209   -0.022311   -0.034004   0.0046481    -0.11715   -0.019063   -0.021337
-0.0034721   -0.028482   -0.044398   -0.055766   -0.076554   -0.011267   -0.017114
-0.0031473   -0.034654   -0.047321    -0.10676   -0.021986  -0.0031473   -0.014516
-0.0034721   -0.042449    -0.04862    -0.14087    0.045574   0.0075714   -0.012892
-0.0050961   -0.050244   -0.053817    -0.16425     0.11833    0.017965   -0.012567
-0.0067202    -0.05804    -0.06551    -0.17692     0.18524    0.019589   -0.011917
-0.008669   -0.062587   -0.076554    -0.18082     0.23039    0.009845   -0.012892
-0.012892   -0.063561   -0.084349    -0.17789     0.24371  -0.0073698   -0.013216
-0.018738   -0.059989   -0.084349     -0.1688     0.22065   -0.022636   -0.011267
-0.023935   -0.052193   -0.076879    -0.15841      0.1703    -0.03173  -0.0060706
-0.026533    -0.04115    -0.06681    -0.15321     0.10989   -0.034329   0.0017248
-0.025234   -0.030106    -0.05804    -0.15223    0.051745   -0.030106    0.010495
-0.017764   -0.019063   -0.047646    -0.15191   0.0049729   -0.025234    0.015367
-0.0037969   -0.008669   -0.038551    -0.14931   -0.026209   -0.021986    0.015042
0.015367   0.0020496    -0.03173    -0.14411     -0.0405   -0.019388    0.010819
0.034206    0.011469   -0.026858    -0.13469   -0.042449   -0.016789   0.0085458
0.046873     0.01764   -0.022636    -0.12463   -0.034654    -0.01484   0.0085458
0.048822    0.020239   -0.017439    -0.11098   -0.023285   -0.011592    0.010495
0.040702    0.020564    -0.01484   -0.097991   -0.010293   -0.010618    0.011794
0.030308    0.018615   -0.011917   -0.086948  0.00075039   -0.011592    0.012443
0.022837    0.016991  -0.0073698   -0.077853   0.0062721   -0.012567    0.011794
0.018615    0.014717 -0.00022403    -0.06681   0.0039985   -0.017764    0.014068
0.012443    0.012443   0.0056225   -0.057715  -0.0018481   -0.026533     0.01764
0.0010752   0.0085458   0.0075714   -0.056091  -0.0057458   -0.036927    0.022512
-0.011267   0.0065969   0.0072465   -0.062262  -0.0060706   -0.045047     0.02706
-0.020037   0.0065969    0.009845   -0.072331  -0.0021729   -0.051544    0.025761
-0.024909   0.0078962    0.012119   -0.079152   0.0065969   -0.056091    0.020564
-0.02361    0.009845   0.0088706   -0.077528    0.022188   -0.058689    0.013743
-0.013541   0.0078962  0.00010078   -0.057715    0.044599   -0.057715   0.0033489
0.00042559   0.0010752   -0.011267    -0.01549    0.064413    -0.04927  -0.0047713
0.0091954  -0.0067202   -0.016789    0.033231     0.06896   -0.040175   -0.010943
0.0056225   -0.012242   -0.014191    0.063438    0.054668   -0.033354    -0.01549
-0.0067202   -0.013216  -0.0080194    0.055968    0.031607   -0.030106   -0.018413
-0.016789   -0.008669  -0.0018481    0.019264     0.01017   -0.027833   -0.020687
-0.02361   0.0017248   0.0023744   -0.015815  -0.0021729    -0.02426   -0.020687
-0.028482    0.013418   0.0033489   -0.021012  -0.0083442   -0.021337   -0.022636
-0.034004    0.022188   0.0043233    0.013093   -0.020362   -0.022636   -0.026858
-0.040175    0.023812   0.0085458    0.070584   -0.044723   -0.030756   -0.030431
-0.048945    0.019914    0.016341     0.11995   -0.079477   -0.045047   -0.031406
-0.055116    0.011794    0.024461     0.13587    -0.12073   -0.059664   -0.032705
-0.055441   0.0010752    0.024786     0.11118    -0.15905   -0.072656   -0.032705
-0.04992  -0.0073698    0.013093    0.055968    -0.18796   -0.076554   -0.028807
-0.0405   -0.013866  -0.0063954   -0.008669    -0.20485   -0.071032   -0.018413
-0.028157   -0.017114   -0.029457   -0.061937    -0.21914   -0.058689  -0.0073698
-0.01614   -0.019712   -0.045047   -0.095393    -0.23831   -0.045047   0.0020496
-0.0080194   -0.021012   -0.051544    -0.10968    -0.26104   -0.036927   0.0059473
-0.0050961   -0.020687   -0.053817    -0.11196    -0.27664   -0.036602   0.0065969
-0.0047713   -0.022636    -0.04927    -0.10709    -0.27371   -0.040825   0.0036737
-0.012242    -0.02426   -0.039851   -0.098316    -0.25033   -0.046996  -0.0044465
-0.025884   -0.023935   -0.027508   -0.084674     -0.2068   -0.050569   -0.013866
-0.043423   -0.022311   -0.013866   -0.068109    -0.15158   -0.051544   -0.022311
-0.054142   -0.019063 -0.00022403   -0.045047   -0.098965   -0.046996   -0.027508
-0.055116   -0.014516   0.0088706   -0.015165   -0.059664   -0.038227   -0.029457
-0.044073   -0.012567    0.011469    0.015042    -0.03173   -0.030106   -0.027183
-0.02426   -0.012242   0.0033489    0.023162  -0.0054209   -0.025234   -0.019063
0.00042559  -0.0083442   -0.018413   -0.010618    0.027709    -0.01549  -0.0054209
0.022512    0.003024   -0.052518   -0.086948    0.070259   0.0043233    0.012443
0.039402    0.022188   -0.092794    -0.17984     0.12158    0.030633    0.028034
0.048172    0.045249    -0.12657    -0.23668      0.1651    0.053694    0.035505
0.047523    0.065387    -0.14346    -0.21102     0.17517    0.065712    0.032257
0.037778    0.072533    -0.13664   -0.094743     0.12937    0.061489    0.020239
0.022188    0.063438    -0.10968    0.074806    0.034855    0.040702   0.0043233
0.0039985    0.044599   -0.071032     0.24013   -0.071357    0.009845   -0.010943
-0.008669    0.024786   -0.028157     0.36064    -0.14379   -0.020037   -0.017764
-0.01484   0.0091954    0.011794     0.41878    -0.15938   -0.040825   -0.018088
-0.010618   0.0010752    0.042326      0.4165     -0.1256   -0.046347   -0.012567
-0.00022403  0.00075039    0.063763     0.37168   -0.067784   -0.038551  -0.0037969
0.008221   0.0065969    0.072533     0.30672  -0.0060706   -0.021337   0.0039985
0.008221    0.011794    0.067661     0.24143    0.044924 -0.00087364     0.01017
0.0026992    0.015042    0.053044     0.18784    0.075456    0.017316    0.012443
-0.0080194    0.015367    0.037778     0.15341    0.081303    0.030957    0.011144
-0.016464    0.014068    0.028359     0.13652    0.064413    0.037129   0.0052977
-0.017114    0.013743    0.025761     0.12872    0.040052     0.03453  0.00042559
-0.010618    0.012768    0.027385     0.11898    0.021863    0.027385      0.0014
-0.0011985    0.012119    0.028034     0.10209    0.015042    0.021863   0.0085458
0.0020496    0.011794    0.021538    0.083901    0.021863     0.01829    0.014717
-0.0028225    0.014392   0.0075714    0.069934    0.038103    0.016016    0.014068
-0.010293     0.01894  -0.0076946    0.063113    0.054668    0.014392   0.0075714
-0.016464    0.020564   -0.018413    0.059865    0.064088    0.012443   0.0026992
-0.021012     0.01829   -0.021986    0.057917     0.06019    0.012443   0.0010752
-0.02361    0.012443   -0.017764    0.056292    0.047847    0.015692 -0.00022403
-0.023285   0.0056225  -0.0057458    0.057267    0.036479    0.021213  -0.0054209
-0.018413  0.00042559   0.0078962    0.061814    0.032257    0.024461   -0.012892
-0.012567  -0.0018481    0.017316     0.06831    0.032582    0.021863   -0.017764
-0.010618  -0.0041217    0.020564     0.06961    0.035505    0.014717   -0.015815
-0.013541   -0.008669    0.017965    0.062139    0.035505   0.0065969   -0.007045
-0.021337   -0.014191    0.013093    0.048497     0.03518    0.003024   0.0023744
-0.030756   -0.019063   0.0052977    0.030957     0.03518   0.0033489    0.009845
-0.039851   -0.022311   0.0017248     0.01764    0.036804    0.011794   0.0095202
-0.046347    -0.02426  -0.0015233   0.0088706    0.036154    0.025436   0.0033489
-0.048945   -0.022961  -0.0044465   0.0059473     0.03453    0.038103  -0.0024977
-0.046996    -0.01614  -0.0067202   0.0033489    0.033881    0.047198 -0.00054884
-0.039201  -0.0057458  -0.0054209   0.0046481    0.038103     0.05207   0.0043233
-0.023935   0.0039985  0.00042559   0.0091954    0.045899    0.055968   0.0052977
-0.0089938    0.011469   0.0095202    0.014068    0.051745    0.062139   0.0026992
0.003024    0.013418    0.019914    0.016016    0.056292    0.067661  0.00010078
0.0078962    0.013418    0.021538    0.016991    0.059865    0.068635  -0.0024977
0.0095202    0.010495    0.011469    0.016666    0.059541    0.062464   -0.007045
0.011144   0.0065969  -0.0034721    0.016016    0.052395     0.05272   -0.013541
0.013418   0.0056225    -0.01614   0.0072465    0.042651    0.041676   -0.016789
0.016016   0.0069217   -0.021661    -0.02361    0.038428    0.030633   -0.012567
0.016016   0.0056225   -0.021661   -0.085324     0.03518    0.019264  -0.0041217
0.013743  0.00010078   -0.022311    -0.17854    0.026735   0.0085458   0.0026992
0.0085458  -0.0080194   -0.026858    -0.29353   0.0072465  0.00010078   0.0069217
0.00010078   -0.018413   -0.037252    -0.40169   -0.021337  -0.0047713   0.0072465
-0.010618   -0.027508   -0.051544    -0.47184   -0.054467   -0.010293   0.0065969
-0.018738   -0.033354   -0.067134    -0.49231   -0.077853   -0.018413     0.01017
-0.022311   -0.034004   -0.079152    -0.47087     -0.0824   -0.027508    0.018615
-0.020037   -0.030756   -0.080127    -0.40916    -0.06616   -0.034329    0.028684
-0.017439   -0.020362   -0.061613    -0.29547   -0.030756   -0.038227    0.034855
-0.012892  -0.0034721   -0.019388    -0.11261    0.024137   -0.034654    0.036479
-0.0067202    0.016991    0.038428     0.14951    0.087799   -0.025884    0.032906
-0.00087364    0.036479    0.093321     0.44639     0.13749   -0.017439    0.023812
0.0036737    0.048172     0.13035     0.68967     0.15568   -0.012892    0.011144
0.0072465    0.050121     0.14074     0.81277     0.13847   -0.014516  -0.0018481
0.009845    0.042326     0.12743     0.80692    0.090397   -0.017439   -0.011917
0.011144    0.028359    0.096569     0.70428    0.027709   -0.017114   -0.016789
0.0091954   0.0091954    0.059865     0.54903   -0.030431   -0.015165   -0.016789
0.0046481  -0.0089938    0.024786     0.38078    -0.07428   -0.013866   -0.010943
-0.0024977   -0.022636  -0.0057458     0.22389    -0.10254   -0.016464  0.00042559
-0.012892   -0.030756   -0.029782    0.099167    -0.11423   -0.020362    0.014068
-0.021012   -0.030756   -0.041475    0.019914    -0.10903    -0.02426    0.025111
-0.02361   -0.022636   -0.043423   -0.014191   -0.087922   -0.025884    0.030308
-0.023285   -0.010293   -0.042449    -0.01614   -0.059339   -0.024585    0.029333
-0.023935   0.0046481   -0.039526  -0.0047713   -0.034654   -0.020362    0.025761
-0.029132    0.016991    -0.03303   0.0036737   -0.022311   -0.017439    0.022188
-0.036602    0.019914   -0.022961   0.0046481   -0.021661   -0.020362    0.021213
-0.04115    0.011794   -0.013866  -0.0028225   -0.034004   -0.025234    0.019914
-0.039851  -0.0028225   -0.008669   -0.011267   -0.050244   -0.025234    0.014068
-0.030756   -0.019063  -0.0076946   -0.010943   -0.063886   -0.020687   0.0036737
-0.018413   -0.030431   -0.010293 -0.00054884   -0.069408   -0.017439  -0.0080194
-0.0083442   -0.034329   -0.016464    0.010495   -0.069408   -0.014516   -0.015815
-0.00022403   -0.032055   -0.024585   0.0043233    -0.06681   -0.010293   -0.018738
0.0017248   -0.028807   -0.034329   -0.048296   -0.068109  -0.0050961   -0.018738
-0.0015233   -0.027183    -0.04927    -0.18342   -0.076229  -0.0011985   -0.019063
-0.0044465   -0.031406   -0.070707    -0.42345   -0.082725  -0.0063954   -0.020687
-0.0047713   -0.041799   -0.098641    -0.75118   -0.081751   -0.021337    -0.02361
-0.0044465    -0.05804     -0.1321     -1.1228   -0.079152   -0.041799   -0.027833
-0.0054209   -0.074605     -0.1636     -1.4726   -0.079152   -0.060313   -0.029782
-0.0096434   -0.084349    -0.18147     -1.7178   -0.078178   -0.072006   -0.027833
-0.017764   -0.084024    -0.17887     -1.7993   -0.075255   -0.078503   -0.024585
-0.029132   -0.074605    -0.15873     -1.6895    -0.07428     -0.0824   -0.022636
-0.039851    -0.05804    -0.12885     -1.3787   -0.078827   -0.081751   -0.023285
-0.041799   -0.031081   -0.085648    -0.86908   -0.075904   -0.070382   -0.021661
-0.023935   0.0059473   -0.021012    -0.17854   -0.041799   -0.041475   -0.012567
0.014717    0.050771     0.06896     0.62243    0.032582 -0.00022403     0.01017
0.061165    0.095594     0.16608      1.3792     0.11995    0.042001    0.040702
0.09397     0.13035      0.2463       1.923     0.17777    0.073182     0.06961
0.10696     0.14691     0.28658      2.1526     0.17712    0.080653    0.086175
0.10566     0.14172     0.27944      2.0815     0.11768     0.06084    0.082602
0.097218      0.1206     0.23234      1.8073    0.017316     0.01829    0.063438
0.084876    0.092346     0.17387        1.45   -0.086298   -0.036602     0.03583
0.070909    0.064088     0.12028      1.1077    -0.15808   -0.092469      0.0014
0.055643    0.039402    0.076755     0.82998    -0.18147    -0.14281   -0.034004
0.037129    0.021213    0.042326     0.62178    -0.16295    -0.17984   -0.064536
0.015692    0.008221    0.017965     0.45581    -0.12203    -0.19998   -0.088572
-0.0034721   0.0026992   0.0010752     0.30185   -0.078827    -0.19641    -0.10156
-0.010293  0.00075039   -0.014191     0.14432   -0.047646    -0.16718    -0.09994
-0.0028225    0.003024   -0.036602   -0.016464   -0.036278    -0.11521     -0.0824
0.016341   0.0052977   -0.072656    -0.19283   -0.044073   -0.052518   -0.051544
0.037454   0.0046481    -0.12008    -0.41046   -0.067784    0.008221   -0.014516
0.051096  -0.0011985     -0.1714    -0.66705   -0.096692    0.055643    0.020239
0.053369   -0.011267      -0.212    -0.89669    -0.12268      0.0865    0.045574
0.045899   -0.022961    -0.22694     -1.0143    -0.14216     0.10404    0.060515
0.034206    -0.03173    -0.21232    -0.99121    -0.15516     0.11086    0.062789
0.021213   -0.034978    -0.17432    -0.86519    -0.16945     0.10501    0.056617
0.0075714    -0.03303     -0.1178    -0.67452    -0.17822    0.089098    0.043625
-0.0028225    -0.02361   -0.051544    -0.39194    -0.16263    0.067986    0.028684
-0.007045  -0.0083442   0.0091954    0.013093    -0.10903     0.05142    0.015692
-0.0047713   0.0039985    0.049796     0.47302   -0.024585    0.041351   0.0088706
-0.0021729   0.0069217    0.057917     0.83453    0.061814    0.035505   0.0069217
-0.0041217  -0.0018481    0.032906     0.96251      0.1206    0.027709   0.0036737
-0.0089938   -0.018088   -0.010943     0.81829      0.1323    0.019264  -0.0018481
-0.015815   -0.035628   -0.055766     0.49316     0.09462    0.009845  -0.0089938
-0.023935    -0.04862   -0.087597     0.14529    0.017316  -0.0041217   -0.017114
-0.030756   -0.054792    -0.10059   -0.093769    -0.07428   -0.024909   -0.024585
-0.039201   -0.056091   -0.097341    -0.17854    -0.16035   -0.048296   -0.028482
-0.047646   -0.052518   -0.084674    -0.13957    -0.22402    -0.06681   -0.027833
-0.052193   -0.046022   -0.062912   -0.043099    -0.25942    -0.07493   -0.021012
-0.052518   -0.034978   -0.037577     0.04395    -0.26462   -0.070382   -0.010618
-0.04992   -0.022311   -0.010618    0.079354    -0.24286   -0.063886  -0.0024977
-0.047646   -0.012567    0.012119    0.052395    -0.20031   -0.057715  0.00010078
-0.046671   -0.008669    0.024461   -0.016789    -0.14671   -0.053817 -0.00054884
-0.046347   -0.012567     0.02641   -0.097341    -0.09182   -0.056091  -0.0037969
-0.04115   -0.020687    0.019589    -0.16458   -0.040825    -0.06551   -0.011592
-0.032055   -0.027508    0.012768    -0.20518 -0.00022403   -0.077203    -0.02426
-0.017114   -0.028807    0.012119    -0.22174    0.027385   -0.089221   -0.036278
-0.0021729   -0.026209    0.018615    -0.22564    0.042001    -0.09929   -0.042774
0.0088706   -0.022636    0.028034    -0.22986    0.050121    -0.10611   -0.045697
0.011469   -0.022311    0.037129    -0.23668    0.058566    -0.10676   -0.045047
0.0059473    -0.02426    0.041027     -0.2435    0.065712    -0.10449    -0.04115
-0.0024977   -0.027183    0.038753     -0.2474    0.069285    -0.10546   -0.035628
-0.012242   -0.028157    0.029333    -0.24448    0.064413    -0.11001   -0.029782
-0.022636   -0.026209    0.019264    -0.23701    0.054344    -0.11196   -0.025559
-0.030431   -0.022311    0.013743    -0.22921    0.046223    -0.10741   -0.022636
-0.036278   -0.018088    0.014717    -0.22402    0.045249   -0.096367   -0.020362
-0.0405   -0.015815     0.01894    -0.22369    0.054019     -0.0837   -0.021986
-0.044073   -0.017114    0.024461    -0.23376    0.068635   -0.072331   -0.027508
-0.048296   -0.020687    0.030633    -0.25098    0.080003   -0.062262   -0.036278
-0.052518   -0.023285    0.035505    -0.27241    0.081303   -0.053817   -0.045047
-0.053817    -0.02426    0.031607     -0.2932     0.07708   -0.044073    -0.04927
-0.04862   -0.025884    0.016991    -0.31496    0.079679   -0.036602   -0.047321
-0.035953   -0.029782  -0.0076946    -0.34225    0.092671    -0.03303     -0.0405
-0.023285   -0.031081   -0.036602    -0.37343     0.11054   -0.035628   -0.033354
-0.012892   -0.028157   -0.062912    -0.39292     0.12255   -0.048945   -0.027508
-0.0044465   -0.019063   -0.076229    -0.38025     0.12028   -0.070058   -0.020362
-0.00087364  -0.0073698   -0.070058    -0.31724    0.098517   -0.097666   -0.015165
-0.0015233   0.0010752   -0.046996     -0.2029    0.064088    -0.12657   -0.012892
-0.0057458   0.0020496   -0.012567   -0.059014    0.025436    -0.14671   -0.013541
-0.010293  -0.0060706    0.020564    0.082927  -0.0076946    -0.15353    -0.01549
-0.013866   -0.016464    0.042975     0.18881   -0.029132    -0.14119   -0.013541
-0.018088   -0.022636     0.05272     0.23429   -0.035628    -0.11228  -0.0083442
-0.019712   -0.022311     0.05142     0.21512   -0.027508   -0.077853  0.00075039
-0.019712   -0.017439    0.041676     0.15146  -0.0099683   -0.043423    0.014392
-0.021337  -0.0099683    0.024786    0.072533    0.012443   -0.010943    0.029983
-0.023935  -0.0050961   0.0020496   0.0036737    0.031607     0.01829    0.040702
-0.027833  -0.0050961    -0.02426   -0.037252    0.049147      0.0433    0.042651
-0.029782   -0.007045   -0.047971   -0.045372    0.065387    0.062464     0.03583
-0.030756  -0.0083442    -0.06681   -0.031081    0.079029    0.075131    0.021863
-0.033354  -0.0096434   -0.085648   -0.018088    0.080653    0.079679   0.0059473
-0.043423   -0.013541    -0.10709   -0.037902    0.070909    0.079354  -0.0093186
-0.053168   -0.018738    -0.12333    -0.10416    0.054993     0.07708   -0.021012
-0.054467   -0.019712    -0.12203    -0.19511    0.045574    0.076755   -0.028482
-0.041799   -0.010618   -0.095717    -0.27046    0.046223    0.079029   -0.029457
-0.018413   0.0062721   -0.044073    -0.29417    0.053369    0.085525   -0.024909
0.0072465    0.025436    0.020239    -0.25617    0.056292    0.089423   -0.017114
0.025111    0.040377    0.076755    -0.17367    0.044924     0.08585  -0.0067202
0.030633    0.045574     0.11411   -0.072981     0.01894    0.073507  -0.0018481
0.026735    0.041351     0.12645    0.020239   -0.019388    0.058891  -0.0028225
0.019264    0.029658     0.11638    0.085525   -0.065835    0.048172  -0.0054209
0.0069217    0.016991    0.092671     0.11476    -0.10936      0.0433  -0.0080194
-0.0031473   0.0065969    0.063113     0.11346    -0.13307    0.044599  -0.0096434
-0.0080194   0.0033489     0.03583    0.092996    -0.13112    0.053369  -0.0089938
-0.0080194   0.0052977     0.01829    0.069285    -0.10351    0.069934  -0.0073698
-0.0067202   0.0095202   0.0095202    0.055643    -0.06616     0.08585  -0.0050961
-0.0057458    0.014717  0.00075039     0.06084   -0.038551    0.090722  -0.0021729
-0.0054209    0.019914    -0.01484    0.084876   -0.031406    0.079679  -0.0015233
-0.0041217    0.022837   -0.030431     0.11638   -0.039851    0.058891  -0.0031473
-0.0015233    0.021863   -0.036927     0.14269   -0.055441    0.035505  -0.0044465
0.0036737    0.016016   -0.032055     0.15406   -0.062262    0.013093  -0.0050961
0.008221   0.0049729   -0.020362     0.14951   -0.057715  -0.0063954  -0.0057458
0.010819  -0.0080194  -0.0073698      0.1258   -0.042449   -0.022961  -0.0096434
0.0095202   -0.019712    0.003024    0.080003    -0.03238   -0.038876   -0.015815
0.0033489   -0.029132   0.0052977    0.026735    -0.03303   -0.054142   -0.022311
-0.0096434    -0.03238   0.0036737  -0.0050961   -0.040825    -0.06551   -0.030431
-0.023935   -0.027508  0.00042559    0.003024   -0.045372   -0.069733   -0.037577
-0.037902   -0.015165   0.0026992    0.043625   -0.033679   -0.067134   -0.040825
-0.046347  0.00042559   0.0046481    0.088124  -0.0047713   -0.061288   -0.035628
-0.046347    0.016666   0.0033489     0.10599    0.036804    -0.05804   -0.021012
-0.039526    0.030633 -0.00022403    0.088124    0.075131   -0.056741  -0.0050961
-0.030756    0.039727   0.0010752    0.056617    0.094945   -0.054142   0.0026992
-0.027508      0.0433    0.013093    0.049472    0.082927   -0.053492  -0.0028225
-0.028807    0.042975    0.037778    0.099492    0.039727   -0.056091   -0.015165
-0.031081    0.039402     0.06831     0.20473   -0.019388   -0.061937   -0.028157
-0.030106     0.03518    0.092671      0.3314    -0.07493   -0.068758   -0.036927
-0.023935    0.031607    0.098517     0.42982    -0.11293   -0.070382   -0.037252
-0.010618    0.029333    0.081303       0.461    -0.12722   -0.061288   -0.030106
0.0065969    0.028034    0.048822      0.4152    -0.11878   -0.044073   -0.018088
0.022837    0.023162    0.014068     0.31386    -0.09182   -0.024585  -0.0054209
0.033231    0.014392   -0.010943     0.19401   -0.057715  -0.0044465   0.0069217
0.038428   0.0075714   -0.020037    0.090722   -0.024909    0.010819     0.01829
0.03518    0.003024   -0.015165    0.024137   0.0020496     0.01764    0.027385
0.024461   0.0026992  -0.0024977  -0.0024977    0.021213     0.01764    0.030308
0.011469   0.0039985   0.0065969 -0.00022403    0.031282    0.012768    0.027709
0.0017248   0.0049729   0.0046481    0.019914    0.032582   0.0085458    0.021213
0.0014   0.0010752   -0.010618    0.045249    0.028359    0.012119     0.01894
0.015042  -0.0067202   -0.037252    0.063438    0.020239    0.024461    0.028359
0.039078   -0.011592   -0.069408    0.067661    0.014717    0.039727    0.048172
0.06896   -0.011917    -0.10254    0.057592    0.012443    0.053694    0.075456
0.092671  -0.0083442    -0.12885    0.041676    0.012119    0.064737     0.10306
0.10177  -0.0028225    -0.14509    0.025436    0.014717    0.067986     0.12125
0.095919   0.0023744    -0.14444    0.022188    0.018615    0.064088     0.12385
0.079029    0.008221    -0.12365    0.032257    0.020564     0.05207     0.11378
0.058891    0.013093   -0.089221    0.045574    0.012119    0.033556    0.097218
0.040377    0.015367   -0.056416    0.037454   -0.008669    0.014392    0.074157
0.030308    0.014392   -0.034329   -0.012242   -0.034654  -0.0034721    0.048822
0.02706    0.014717   -0.022311   -0.093119   -0.053817   -0.018413    0.027709
0.024786    0.016991   -0.013216    -0.17172   -0.059989   -0.032705    0.011794
0.020564    0.020239  -0.0021729    -0.21167   -0.048945   -0.050569  0.00075039
0.009845    0.019589   0.0088706    -0.19706   -0.027833    -0.06616   -0.010293
-0.010293    0.014392    0.019914    -0.12852   -0.007045   -0.071357   -0.022311
-0.030756    0.008221    0.030633   -0.029782    0.011794   -0.062262   -0.034978
-0.047646    0.003024     0.03583    0.066362     0.02706   -0.045372   -0.043099
-0.058365  0.00075039    0.038428     0.14269    0.037454   -0.029132   -0.046347
-0.060313   0.0010752    0.038428     0.20246    0.039727   -0.021012   -0.043748
-0.05739  -0.0024977    0.037129      0.2554     0.03453   -0.025559   -0.042124
-0.047646   -0.007045     0.03583     0.29535    0.024786   -0.038227   -0.043748
-0.038227   -0.012242    0.029983       0.296    0.015042   -0.052518   -0.047971
-0.030106   -0.017439   0.0095202     0.22714    0.014068   -0.059664    -0.04862
-0.025559   -0.021986   -0.030431    0.082602    0.028359   -0.052518   -0.043099
-0.022311   -0.021986   -0.086623    -0.10709    0.053369   -0.034004   -0.031406
-0.021661   -0.017439    -0.14087    -0.27501    0.077405  -0.0083442   -0.015165
-0.022636  -0.0089938    -0.17594    -0.35816     0.08585    0.013743  -0.0031473
-0.02361   0.0020496    -0.18179    -0.32471    0.062789    0.031282  0.00075039
-0.021012    0.012443    -0.15646    -0.19381   0.0056225    0.044599   0.0017248
-0.012567     0.01829    -0.10968   -0.017764   -0.075579    0.050446   0.0046481
-0.00054884    0.020239   -0.059989     0.14334     -0.1623    0.044924    0.013743
0.016341    0.022837   -0.022311      0.2502    -0.23344    0.031932    0.025436
0.03453     0.02706  -0.0011985     0.28821    -0.28248     0.01764     0.03583
0.049796    0.031607   0.0052977     0.26904    -0.31009   0.0095202    0.038753
0.057917     0.03518   0.0052977      0.2161    -0.31561   0.0062721    0.033881
0.056292     0.03583   0.0085458     0.15796    -0.30229   0.0043233    0.021213
0.047198     0.03453    0.016991     0.10794    -0.27696   0.0049729   0.0052977
0.036154    0.031932    0.029009    0.072208     -0.2448   0.0075714  -0.0076946
0.023812     0.02706    0.036479    0.046873     -0.2133   0.0065969   -0.017114
0.014392    0.023487    0.036804    0.030633    -0.18764  0.00010078   -0.023935
0.0062721    0.019914    0.029983    0.019914     -0.1649  -0.0073698   -0.029782
0.00042559    0.015367    0.020888    0.012119    -0.13957   -0.013541    -0.03303
-0.0034721   0.0069217    0.015367   0.0043233    -0.10774   -0.016464    -0.03303
-0.0041217 -0.00022403    0.013743  -0.0063954   -0.075255   -0.018738    -0.03303
-0.0015233  -0.0037969    0.012443   -0.019388   -0.046671   -0.019712    -0.03238
-0.00054884 -0.00087364   0.0078962   -0.031081   -0.025234   -0.020037   -0.032705
-0.0037969   0.0065969 -0.00087364   -0.042449   -0.013866   -0.018088   -0.032055
-0.010943    0.013093   -0.010618   -0.053168  -0.0093186   -0.014191   -0.028157
-0.021012    0.016666   -0.019712   -0.062912  -0.0076946   -0.010618   -0.022636
-0.030431    0.015692   -0.027183   -0.071682  -0.0050961  -0.0096434   -0.017439
-0.035953   0.0095202   -0.029782   -0.077203  0.00075039   -0.010618   -0.014191
-0.033354 -0.00054884   -0.021986   -0.075904    0.010495   -0.011917   -0.011917
-0.021337   -0.011267  -0.0076946   -0.067784    0.023162   -0.013866  -0.0099683
-0.0054209   -0.021012    0.008221   -0.058689    0.037129    -0.01549   -0.008669
0.0075714   -0.027833    0.020888    -0.05804    0.052395   -0.014191  -0.0054209
0.014068   -0.027508    0.031282   -0.067134    0.067986   -0.010618  -0.0015233
0.016991   -0.017764    0.037454   -0.079477    0.081627  -0.0060706   0.0026992
0.015367  -0.0037969    0.042001   -0.085973    0.088448  -0.0018481   0.0072465
0.0078962   0.0075714    0.039402   -0.083375    0.086175  -0.0028225    0.011794
-0.0034721   0.0091954    0.030633   -0.077203    0.078704  -0.0083442    0.015692
-0.015165   0.0020496    0.021213   -0.073955    0.073832   -0.019063    0.015692
-0.023935   -0.010293    0.014392   -0.076879    0.074806   -0.030106    0.012443
-0.031081   -0.021661    0.012119   -0.084024    0.079679   -0.036602   0.0069217
-0.037902   -0.030431    0.009845   -0.090845    0.082277   -0.037577   0.0062721
-0.043748   -0.034329     0.01017   -0.094418    0.079679   -0.031081   0.0095202
-0.046347   -0.031081    0.009845   -0.094093    0.075781   -0.018413    0.012768
-0.043423    -0.02361   0.0043233   -0.084024    0.073507  -0.0067202    0.013743
-0.037577   -0.013216  -0.0037969    -0.05739    0.075456   0.0023744    0.013743
-0.034654  -0.0034721  -0.0089938   -0.014516    0.081627   0.0043233    0.012119
-0.037902   0.0033489   -0.007045    0.036479    0.086175   0.0017248    0.011144
-0.042774   0.0062721  -0.0028225    0.073832    0.079679  -0.0054209     0.01017
-0.046671   0.0023744 -0.00087364    0.062789    0.052395   -0.013541    0.011469
-0.046347  -0.0024977  -0.0041217  -0.0099683    0.010819    -0.01614    0.016016
-0.039851  -0.0044465  -0.0093186    -0.12333   -0.023935   -0.010618    0.020564
-0.029782  -0.0015233  -0.0099683    -0.22532   -0.039851  -0.0028225    0.023812
-0.020037   0.0017248  -0.0011985    -0.26592   -0.045047 -0.00054884    0.023487
-0.015815   0.0046481    0.013743    -0.22824   -0.053492  -0.0057458    0.020564
-0.017764   0.0059473    0.026735    -0.13372   -0.070382   -0.015165    0.015692
-0.025234   0.0023744    0.031607   -0.021986   -0.086948   -0.022961   0.0095202
-0.034329  -0.0031473    0.027709    0.066037   -0.094093   -0.026533      0.0014
-0.0405   -0.007045     0.01829     0.11021   -0.086298    -0.02426  -0.0063954
-0.038876   -0.011267   0.0091954     0.10924   -0.064861   -0.019063   -0.010293
-0.029132    -0.01484   0.0078962    0.080328   -0.038876   -0.016464  -0.0099683
-0.016789   -0.016464    0.012119    0.045574   -0.016464   -0.017114  -0.0083442
-0.0047713   -0.015815    0.019589    0.021538  -0.0041217   -0.021337  -0.0044465
0.0014   -0.011917    0.023162    0.012119   0.0010752   -0.023285  0.00042559
-0.00087364  -0.0057458    0.019589    0.012443   0.0033489   -0.019712   0.0043233
-0.0093186      0.0014    0.010495    0.010495   0.0072465   -0.010943   0.0049729
-0.018413   0.0062721  -0.0050961   0.0017248    0.011794  -0.0011985   0.0020496
-0.023285   0.0043233   -0.023935   -0.011917    0.019589   0.0069217  -0.0047713
-0.024909  -0.0015233   -0.034654    -0.02361    0.032906   0.0085458   -0.011592
-0.02426  -0.0089938   -0.030756   -0.027508    0.048497   0.0091954   -0.013866
-0.021986    -0.01614   -0.011917   -0.023935    0.059541   0.0088706  -0.0099683
-0.018088   -0.021012    0.011469    -0.01549     0.06019   0.0075714  -0.0047713
-0.011267   -0.021661    0.028684  -0.0050961    0.051745 -0.00054884  -0.0037969
-0.0015233   -0.019388    0.030633  0.00010078    0.041027   -0.012892  -0.0083442
0.0088706    -0.01549    0.017965  0.00042559    0.031932   -0.024585   -0.013866
0.016666   -0.014191  -0.0080194   -0.008669    0.032582   -0.028807    -0.01614
0.016341    -0.01614   -0.037902   -0.028807    0.042326    -0.02361   -0.015165
0.0095202   -0.020037   -0.061613   -0.054792     0.05272   -0.014516    -0.01614
-0.0031473    -0.02426   -0.076554   -0.078827    0.062789  -0.0099683   -0.022311
-0.017114   -0.027183     -0.0837   -0.095393    0.069934   -0.012567   -0.031081
-0.027508   -0.027183   -0.083375    -0.10384    0.073182   -0.025559   -0.036602
-0.030106   -0.021986   -0.076879    -0.10091    0.073507   -0.042774   -0.035953
-0.02426   -0.012242   -0.069408   -0.085973    0.067986   -0.060313   -0.030756
-0.012892  -0.0024977   -0.061937   -0.063237    0.055968   -0.072331   -0.029457
0.0010752   0.0046481   -0.049595   -0.041799    0.042001   -0.075579   -0.035628
0.010819   0.0085458   -0.034329   -0.025884    0.027385   -0.072006   -0.044398
0.015692    0.008221   -0.014516    -0.01549    0.011794   -0.067784    -0.04927
0.016666   0.0072465   0.0023744  -0.0054209  -0.0073698   -0.064211    -0.04862
0.019589   0.0078962   0.0091954 -0.00054884   -0.026533   -0.058365   -0.043423
0.023162    0.010819   0.0065969 -0.00022403   -0.043423   -0.050569   -0.037252
0.025761    0.013743 -0.00087364  -0.0057458   -0.058365   -0.045372    -0.03173
0.029983    0.011794  -0.0099683   -0.015165    -0.06681   -0.042124   -0.029132
0.031607    0.009845   -0.017439   -0.027183   -0.067134   -0.038227   -0.027508
0.026085   0.0065969   -0.021337   -0.047321   -0.062912   -0.033679   -0.028807
0.015367   0.0039985   -0.021986   -0.090521   -0.059014   -0.029132   -0.029782
0.0023744 -0.00022403    -0.02361    -0.16263   -0.059014   -0.028807   -0.029132
