-0.026533    0.019589    0.036804 -0.00087364     -0.1295  0.00042559    0.011469
-0.028482    0.018615   -0.018088   -0.016789    -0.13275   0.0069217    0.015367
-0.022636     0.01829   -0.037252   -0.021337    -0.11066    0.017316    0.015367
-0.017764    0.021213   -0.034654   -0.017439    -0.07493    0.031607    0.010495
-0.011917     0.02641   -0.021012  -0.0067202   -0.022311    0.048172   0.0085458
-0.008669    0.031932  -0.0099683   0.0095202    0.056617    0.065062    0.014392
-0.007045    0.034855  -0.0096434    0.029333     0.16023    0.079029    0.025761
-0.008669    0.034855   -0.019388    0.044599     0.27716    0.086824    0.036154
-0.0099683    0.031282   -0.038551    0.049796       0.385    0.084551    0.038753
-0.0093186    0.024137   -0.066485      0.0433     0.46912    0.074806    0.031282
-0.0067202    0.015692   -0.098641    0.030633     0.52304    0.064737    0.016991
-0.0031473     0.01017    -0.13307    0.017965      0.5474    0.065062      0.0014
0.0010752   0.0091954    -0.16847   0.0075714     0.54383    0.073832   -0.010943
0.0095202    0.011469    -0.19998   0.0062721     0.51719    0.083901    -0.01484
0.018615    0.017965    -0.22304    0.018615     0.47562    0.091372  -0.0096434
0.022837    0.025436    -0.23344    0.040702     0.43047    0.093321   0.0023744
0.01829    0.031282    -0.22239    0.059541     0.38857    0.087474    0.015367
0.008221     0.03518    -0.19771    0.067011     0.35219    0.073507    0.020239
0.00042559    0.037778    -0.17465    0.062789     0.31062    0.047847    0.015692
-0.00087364    0.040052     -0.1662    0.049472     0.24338    0.014392   0.0056225
0.0095202    0.045899    -0.16523    0.032582     0.14659   -0.021337  -0.0041217
0.023812    0.054344    -0.16035    0.017965    0.037129   -0.051219   -0.010293
0.031932    0.059541    -0.14574   0.0036737   -0.071032   -0.070707   -0.014191
0.028034    0.059541    -0.12008   -0.015815    -0.17789   -0.084024   -0.021986
0.011144    0.054993   -0.088896     -0.0405    -0.29905   -0.096367   -0.035953
-0.012892    0.047198   -0.059014   -0.068434     -0.4543    -0.11098   -0.053492
-0.034329    0.039727   -0.035628   -0.097017    -0.63847    -0.13177    -0.07428
-0.049595    0.029658   -0.019063    -0.11748     -0.8064    -0.15776   -0.093769
-0.057715    0.014392  -0.0050961    -0.12657    -0.89507    -0.17822    -0.10936
-0.06616  -0.0047713    0.013743     -0.1269    -0.86778    -0.18731    -0.11683
-0.076879   -0.024585    0.037454    -0.11845    -0.73591    -0.18471    -0.11586
-0.089221   -0.037577    0.060515    -0.10254     -0.5524    -0.17302    -0.10644
-0.098965    -0.04115    0.082927   -0.084349    -0.38187    -0.15646   -0.093769
-0.10384   -0.036278     0.11801   -0.064861    -0.26169    -0.13729   -0.079802
-0.10546   -0.026209     0.18459   -0.044398    -0.19283    -0.11488   -0.067134
-0.097341   -0.011267     0.28268   -0.021337    -0.15223    -0.09117   -0.055441
-0.077853   0.0056225     0.39767   0.0036737    -0.11651   -0.067134   -0.044723
-0.051219    0.020888     0.50648    0.026735   -0.075904   -0.038227   -0.033679
-0.020362    0.033556     0.58833    0.046873   -0.038551  -0.0037969   -0.022636
0.0078962    0.042975     0.63185    0.065712   -0.019063    0.029658   -0.010293
0.027385    0.046873     0.63802    0.082927   -0.031406    0.057267   0.0017248
0.036479    0.045574     0.61366     0.09462   -0.066485    0.072533   0.0091954
0.038103    0.039402     0.56819    0.095919   -0.085324    0.074157    0.013093
0.03518    0.030633     0.50907    0.087149   -0.041799    0.067986    0.016016
0.033231    0.019264     0.44606    0.072858    0.074806    0.057592    0.018615
0.035505   0.0075714      0.3876    0.056942     0.20311    0.042651     0.01829
0.044599  -0.0011985      0.3327    0.039078     0.22519    0.021863    0.016016
0.054344   -0.007045     0.27002    0.021213    0.060515  -0.0018481    0.012443
0.060515   -0.008669     0.19011   0.0056225    -0.25585   -0.023285   0.0069217
0.059541  -0.0057458     0.10014  -0.0041217    -0.58455   -0.035628 -0.00054884
0.049472  -0.0041217   0.0065969   -0.007045    -0.77392   -0.034978  -0.0050961
0.032906   -0.011267    -0.12917  -0.0037969    -0.75183   -0.019063  -0.0076946
0.017316   -0.027508    -0.38804   0.0036737    -0.54493   0.0046481  -0.0054209
0.0072465    -0.04862     -0.8483   0.0088706    -0.25585    0.027385 -0.00022403
0.003024   -0.068758     -1.4872   0.0069217 -0.00054884    0.044924   0.0056225
0.0046481   -0.080451      -2.154 -0.00087364     0.14042    0.057917   0.0095202
0.014392   -0.076879     -2.6442  -0.0076946     0.15601    0.068635    0.010819
0.030308   -0.058689      -2.802  -0.0083442     0.10177    0.078055   0.0075714
0.048172   -0.029132     -2.5847  -0.0067202    0.053044    0.081952   0.0046481
0.061489   0.0020496     -2.0663  -0.0057458    0.058241    0.078055   0.0039985
0.066037    0.024786     -1.3839  -0.0037969      0.1219    0.071883   0.0036737
0.061489     0.03453    -0.67063 -0.00054884     0.22909    0.065712  0.00042559
0.048172     0.02706   -0.038876   0.0033489     0.37265    0.055643  -0.0089938
0.028034    0.008221     0.42332   0.0020496     0.53473    0.033556   -0.023935
0.0036737   -0.013541     0.68415  -0.0083442     0.69584  -0.0024977   -0.037252
-0.019388   -0.032055     0.76535   -0.029457       0.842    -0.04862   -0.045697
-0.037902   -0.041475     0.71987   -0.055766     0.95146   -0.093769   -0.054142
-0.051219   -0.041799     0.61139   -0.075579      1.0021      -0.123    -0.06551
-0.05804   -0.034329     0.49738   -0.082076     0.97615    -0.13015   -0.073631
-0.058689   -0.023935     0.41163   -0.072981     0.87448    -0.11683   -0.073955
-0.054792   -0.015165     0.35901   -0.051219     0.72182   -0.089871    -0.06616
-0.04927   -0.010943     0.33238   -0.022311      0.5513   -0.061613   -0.056416
-0.046347   -0.010293     0.32134   0.0072465     0.38792   -0.042774   -0.048296
-0.044723   -0.010943     0.31516    0.030308      0.2606   -0.035628   -0.044073
-0.043099  -0.0093186     0.31354    0.042975     0.18687   -0.036278   -0.040825
-0.041799  -0.0063954     0.32556    0.047523     0.16088   -0.038227   -0.037577
-0.0405  -0.0060706     0.36096    0.054019     0.14821   -0.035953   -0.034004
-0.039851  -0.0089938     0.42495    0.065387     0.12743   -0.027183   -0.030431
-0.044073   -0.013216      0.5081    0.078055    0.095919   -0.017764   -0.030431
-0.053492   -0.017764     0.57761    0.083901    0.048822   -0.015165   -0.030756
-0.067459   -0.020362     0.60457    0.076106   -0.021986   -0.028807   -0.030106
-0.081101   -0.024909     0.57404    0.054019    -0.11618   -0.055116   -0.026858
-0.090196   -0.030106     0.49706    0.021213    -0.22694   -0.084674   -0.020687
-0.094743   -0.034654     0.40124    -0.01484    -0.34484    -0.10579   -0.014516
-0.092794   -0.035953     0.31062   -0.044073    -0.45723     -0.1191   -0.007045
-0.084999   -0.031081     0.24403   -0.060963    -0.54493    -0.12365  -0.0037969
-0.075904   -0.017439     0.20343   -0.066485    -0.58228    -0.11813  -0.0041217
-0.070382    0.003024     0.18264   -0.067784    -0.54103    -0.10156   -0.007045
-0.067459    0.024461     0.17062   -0.069733      -0.415   -0.078827  -0.0060706
-0.064536    0.041351     0.15633   -0.072656    -0.23084   -0.053492   0.0023744
-0.052843    0.050121     0.13587   -0.071357   -0.025234   -0.030756    0.016016
-0.03238    0.052395     0.11476   -0.061937      0.1651   -0.010293    0.029333
-0.008669    0.054993    0.099167   -0.043748     0.31029    0.013418    0.041351
0.011469    0.059541    0.092671    -0.01549     0.39117    0.044599    0.053044
0.021538    0.067336    0.096244    0.020564     0.40611    0.080653    0.062139
0.023487    0.073507     0.10729     0.05272     0.35609     0.11183    0.067011
0.021538    0.074806     0.11606    0.076431      0.2515     0.12872    0.070909
0.017965    0.070584     0.11248    0.088773     0.10436     0.13392    0.070909
0.014068    0.064737    0.091696     0.09397   -0.057065     0.13035    0.065062
0.0072465    0.059865    0.064088     0.09397     -0.2068      0.1219    0.054668
0.003024    0.058566    0.039078    0.088448    -0.32503     0.10566    0.042651
0.0069217    0.061165    0.024461    0.081627    -0.40363    0.082927    0.036154
0.016991    0.064088    0.023812    0.076755    -0.43969    0.059541    0.036479
0.029983    0.067336    0.039727    0.072208    -0.42345    0.042651    0.041676
0.039078     0.06831    0.067011    0.068635    -0.34647    0.032257    0.046223
0.042001    0.066037    0.099167    0.067336    -0.21102    0.029983    0.048822
0.038428    0.055318     0.12288    0.069285   -0.041799    0.032582    0.049147
0.031282    0.033556     0.12678    0.071883      0.1258    0.038428    0.046548
0.027709   0.0023744     0.10859    0.070909     0.25832    0.045249    0.042326
0.027709   -0.032055    0.074806    0.067011     0.33595    0.054668    0.038103
0.031932   -0.062587    0.045249    0.063438     0.34147    0.067336     0.03583
0.038428   -0.081751    0.042651    0.063113     0.25767    0.077405     0.03453
0.044275   -0.088896    0.080653    0.063438    0.090722    0.077405    0.034206
0.046223   -0.087597     0.14594    0.063763    -0.11196    0.067011    0.033231
0.0433   -0.080127     0.20376    0.061489    -0.28281    0.049147    0.029983
0.03583   -0.072331     0.23039    0.053044    -0.36726    0.029658    0.022837
0.02706   -0.063561     0.21967    0.039078    -0.34777    0.014068    0.017316
0.017965   -0.054142     0.17842    0.021863    -0.24675   0.0023744    0.013418
0.014717   -0.044723     0.12255   0.0046481    -0.11423  -0.0083442    0.011794
0.014068   -0.032705    0.063113  -0.0093186   0.0020496   -0.018088    0.012119
0.012768   -0.019388   0.0085458    -0.01549    0.067336   -0.025884    0.011469
0.009845  -0.0093186   -0.033679   -0.013216    0.075781   -0.028157   0.0091954
0.0059473  -0.0021729   -0.068109  -0.0034721      0.0433   -0.027833   0.0046481
0.0026992  -0.0031473   -0.094093    0.003024  -0.0076946   -0.032055 -0.00054884
0.0056225  -0.0083442    -0.11228   0.0020496    -0.05804   -0.041799  -0.0021729
0.015692   -0.011592    -0.11878  -0.0034721   -0.092145   -0.048296   0.0026992
0.028034  -0.0083442    -0.11358  -0.0080194    -0.10384   -0.046671    0.012768
0.036479 -0.00022403    -0.10026  -0.0096434    -0.10124   -0.034654    0.021538
0.041676    0.011469   -0.088247  -0.0044465    -0.10254   -0.019712     0.02641
0.04395     0.01894   -0.083375   0.0075714    -0.11878  -0.0067202    0.025436
0.042975    0.022837   -0.087272    0.023162    -0.13924   0.0043233    0.020888
0.039078    0.024461   -0.097991    0.040702    -0.14866    0.013743    0.018615
0.03583    0.028684    -0.10903    0.059865    -0.13794    0.021213    0.021863
0.030957    0.035505    -0.11098    0.079354    -0.11553    0.027385    0.028034
0.024137    0.044275    -0.10449    0.096569   -0.098641    0.030957    0.031607
0.013743    0.051096   -0.094743     0.10729    -0.09994     0.02641    0.030957
0.003024    0.049796   -0.088572     0.11054    -0.12398    0.012119    0.028359
-0.007045    0.039078   -0.087597     0.10729    -0.17237   -0.010293    0.024137
-0.011592    0.021863   -0.093769    0.094945    -0.24156   -0.035628    0.015367
-0.012242   0.0036737    -0.10676    0.076755    -0.31821   -0.058689   0.0023744
-0.011267  -0.0083442    -0.12203    0.048822    -0.37992   -0.078503   -0.011592
-0.0099683   -0.014191     -0.1334    0.013418    -0.42182   -0.097666    -0.02426
-0.010943   -0.016464    -0.13794   -0.028807     -0.4543    -0.11618   -0.036927
-0.018088   -0.018413    -0.14087    -0.07428    -0.48646    -0.13307    -0.04927
-0.030106   -0.019388    -0.14606    -0.11943    -0.52122    -0.14639   -0.057065
-0.041475   -0.021337    -0.15256    -0.15841    -0.53908    -0.15418   -0.060313
-0.050569    -0.02361    -0.15711    -0.18634    -0.50952    -0.15223    -0.05804
-0.056091   -0.026533    -0.15386    -0.19706    -0.40201    -0.13697   -0.055116
-0.055766   -0.025884    -0.14509    -0.19024    -0.21395    -0.11261   -0.054467
-0.047971   -0.020362    -0.13307     -0.1714    0.013743    -0.09117   -0.055116
-0.037252   -0.013216     -0.1256    -0.14476     0.20733   -0.079802   -0.052843
-0.028157  -0.0083442     -0.1256    -0.11488     0.32653   -0.077853   -0.047971
-0.025884  -0.0067202    -0.13664   -0.085648     0.37948   -0.082725   -0.039851
-0.028807  -0.0096434    -0.15873   -0.063561     0.39149   -0.089221    -0.03238
-0.034654   -0.012892    -0.19056   -0.050244     0.38175    -0.09994   -0.026858
-0.035303   -0.014191    -0.22499   -0.050894     0.35609    -0.11391   -0.023285
-0.029457   -0.015815    -0.25747   -0.063561     0.29665     -0.1269   -0.022311
-0.019388   -0.022311    -0.28605   -0.084349      0.1677    -0.13047   -0.026533
-0.012567    -0.03173    -0.30717    -0.10384   -0.046671    -0.12268   -0.032705
-0.014191   -0.038876    -0.32178    -0.11228    -0.32373    -0.10741   -0.037577
-0.02426   -0.040825      -0.339    -0.10806    -0.59852   -0.092794   -0.039201
-0.030431   -0.036602    -0.36303   -0.095393    -0.79535   -0.080451   -0.037577
-0.023285   -0.029782    -0.39519   -0.085324    -0.86064   -0.070058   -0.033354
-0.0047713   -0.022636    -0.42929   -0.079152    -0.79958   -0.060638   -0.029132
0.016991   -0.019388    -0.45983   -0.077853    -0.66218   -0.048945   -0.022311
0.031932   -0.018088    -0.48971   -0.076554    -0.51732   -0.035303   -0.012567
0.040052   -0.015165    -0.52349   -0.073631    -0.42994   -0.022311  -0.0024977
0.043625  -0.0073698    -0.55824   -0.070058    -0.43384   -0.016789   0.0065969
0.045574   0.0049729    -0.58423   -0.065186    -0.50725   -0.021661    0.011794
0.046873    0.014717    -0.58033   -0.058365     -0.5904   -0.032705    0.013418
0.046548    0.015367    -0.52576   -0.047321    -0.62418    -0.04115    0.012443
0.046548   0.0065969    -0.39487   -0.036602    -0.58683   -0.044073    0.012119
0.04395  -0.0034721    -0.18017   -0.024585    -0.48906   -0.042774   0.0088706
0.033556   -0.011592    0.093645  -0.0089938    -0.36076   -0.035953   0.0023744
0.016991   -0.017764       0.385    0.010495    -0.22564   -0.025234  -0.0041217
-0.00087364   -0.022311     0.68057    0.032582   -0.096042   -0.012892  -0.0067202
-0.011917   -0.027183     0.99791    0.054993    0.030308  -0.0021729  -0.0089938
-0.011592   -0.030431      1.3256    0.074157     0.16348   0.0036737   -0.012567
-0.0028225   -0.032705      1.6063    0.086824     0.30477   0.0026992   -0.014191
0.008221   -0.029782      1.7739    0.092996     0.44476  -0.0057458   -0.011267
0.015692   -0.021012      1.7781    0.093321     0.58118    -0.01549  -0.0054209
0.016991  -0.0096434      1.6066    0.092021      0.7111   -0.017439   0.0056225
0.019589  -0.0034721      1.2961    0.090397     0.84265   -0.007045    0.017965
0.029983  -0.0047713     0.91996    0.094295     0.98752    0.017316    0.028034
0.044599   -0.008669     0.56039    0.097543      1.1282    0.048172     0.03453
0.059865   -0.011267     0.28041    0.094295      1.2077    0.074157    0.039402
0.066686   -0.012567     0.10177    0.083901      1.1382    0.087799    0.042001
0.061489   -0.014191    0.009845     0.06831     0.82998    0.088773    0.041676
0.045574    -0.01614   -0.022636    0.044275     0.26417    0.079029    0.039727
0.025111   -0.017114    -0.03173   0.0095202    -0.43514    0.061814    0.036479
0.0059473   -0.019712   -0.045697   -0.030431     -1.0568    0.039078    0.032257
-0.008669    -0.02426   -0.081426   -0.063886     -1.4313    0.016016     0.02641
-0.020037   -0.032705    -0.17205   -0.079802     -1.4843  0.00010078    0.021538
-0.026209   -0.043099    -0.35361   -0.074605     -1.2475  -0.0050961    0.023162
-0.02361    -0.04927    -0.62126    -0.04862    -0.83368    0.003024    0.029009
-0.01484   -0.045047    -0.89702   -0.010943    -0.37375     0.01894    0.031607
-0.0060706   -0.027508     -1.0766    0.024786    0.022188    0.039402    0.024461
-0.0011985      0.0014     -1.0861    0.047198      0.3051    0.059216     0.01017
-0.0041217    0.036479    -0.93632    0.052395     0.47107    0.074806  -0.0073698
-0.012567    0.065387    -0.70083    0.042326     0.54285    0.082927   -0.023935
-0.021661    0.079679    -0.47737    0.022188     0.55357    0.080978   -0.036927
-0.027508    0.073182     -0.3351  -0.0015233     0.53376    0.073507   -0.044073
-0.028482    0.054019     -0.2919   -0.023285     0.50875    0.064088   -0.043748
-0.02361    0.032582    -0.31529   -0.034329     0.50323    0.053369   -0.039201
-0.017439     0.01894    -0.35751   -0.032055     0.53214    0.040377   -0.035953
-0.01614    0.014068    -0.38674   -0.016464      0.5867    0.029658   -0.034329
-0.020687    0.013093    -0.38999    0.009845     0.64062    0.027385   -0.037577
-0.028807    0.011794     -0.3718    0.036154     0.66433     0.03518   -0.043748
-0.034004   0.0095202    -0.34907    0.055643     0.65102    0.055318   -0.045047
-0.033354   0.0059473    -0.33185    0.068635     0.61594    0.078379   -0.036278
-0.027508   0.0039985    -0.31983    0.080978     0.58183    0.096893   -0.021012
-0.024585   0.0059473    -0.30619    0.097868     0.56137     0.10404  -0.0031473
-0.024585    0.011469    -0.28833     0.11963     0.54155    0.099817    0.011794
-0.023285    0.016666    -0.25357     0.14204     0.50095    0.089423    0.016991
-0.021337    0.020888    -0.17237     0.15893     0.42138    0.078704    0.013743
-0.025884    0.021538  -0.0024977     0.16543     0.29665     0.06896   0.0059473
-0.036278     0.01764      0.2567     0.16056     0.13522    0.057917  -0.0018481
-0.04927   0.0075714     0.54253     0.14172   -0.036927    0.049147  -0.0089938
-0.058365  -0.0047713      0.7608     0.10729    -0.18926    0.046873    -0.01549
-0.062587    -0.01484     0.84557    0.066037    -0.30327    0.053369   -0.020037
-0.064211   -0.019388     0.78549    0.028034    -0.36141     0.06084   -0.021986
-0.06551   -0.018738     0.61399      0.0014    -0.32211    0.061165   -0.021337
-0.068434   -0.013866     0.38922   -0.010618      -0.123    0.049796   -0.020037
-0.071357  -0.0096434     0.17257    -0.01549     0.25995    0.030633   -0.021337
-0.070058  -0.0034721   0.0036737   -0.019388     0.75495   0.0078962    -0.02426
-0.060963   0.0026992   -0.096367   -0.022961      1.2214   -0.016789   -0.026533
-0.043748   0.0078962    -0.13145   -0.022636      1.5228   -0.042124   -0.023285
-0.022961   0.0095202      -0.123   -0.020687      1.5848   -0.067459   -0.014516
-0.0073698   0.0095202   -0.098316   -0.021337      1.4114    -0.09117  -0.0047713
0.00042559    0.010495    -0.07493    -0.02361      1.0739    -0.10871   0.0026992
0.0026992    0.014392   -0.055766    -0.02361     0.67862    -0.11715   0.0046481
0.003024     0.01829    -0.03238  -0.0099683     0.31906    -0.11001  0.00010078
0.0017248    0.022512   0.0043233    0.019914     0.05207   -0.086948  -0.0037969
0.00042559    0.027709     0.05272    0.061489    -0.11326   -0.056741  -0.0031473
0.00075039    0.036479    0.095594     0.10177    -0.21232   -0.028482   0.0056225
0.0049729    0.047523     0.11118     0.13035    -0.30002   -0.010293    0.020888
0.0065969    0.056617    0.086824     0.13457    -0.40883  -0.0047713    0.034855
-0.0028225    0.058241    0.028359     0.10891    -0.52089   -0.011267    0.038103
-0.021661    0.056292   -0.054142    0.058241    -0.59105   -0.030106    0.028684
-0.041799    0.051745    -0.14606  -0.0021729    -0.60242   -0.054792   0.0065969
-0.054467    0.046223    -0.22434   -0.054142    -0.60989   -0.081751   -0.024909
-0.056091    0.040377    -0.27046   -0.086298     -0.7213    -0.10384   -0.057065
-0.053492    0.034206    -0.27696   -0.097666    -0.98244    -0.11748   -0.077203
-0.04862    0.028359    -0.25227    -0.10026     -1.3245     -0.1191   -0.082076
-0.039851    0.023812    -0.20843    -0.10124     -1.6087    -0.11456   -0.072656
-0.026858    0.018615    -0.16068    -0.10091      -1.709    -0.11066   -0.060638
-0.012892    0.013743     -0.1178    -0.10091     -1.5879    -0.11293   -0.049595
-0.0028225     0.01017     -0.0837    -0.10221     -1.3092    -0.12008   -0.042449
0.0056225   0.0072465   -0.056091    -0.10319     -1.0139    -0.12722   -0.038551
0.011469   0.0043233   -0.037252    -0.10481    -0.82004    -0.13599   -0.035303
0.011469  -0.0011985   -0.029132    -0.11098    -0.72974    -0.14476   -0.033679
0.0046481  -0.0080194   -0.031081     -0.1178    -0.66673    -0.15223   -0.034654
-0.0057458   -0.017764    -0.04115    -0.12073    -0.54135    -0.15711   -0.039201
-0.015815   -0.029457   -0.059989    -0.11391    -0.31399    -0.16035   -0.042449
-0.02361   -0.038551     -0.0837    -0.10286   -0.010618    -0.16263   -0.041799
-0.028807   -0.039201    -0.10903   -0.095393     0.29535    -0.16198   -0.040175
-0.030106    -0.03303     -0.1321   -0.092145     0.52466      -0.161   -0.039851
-0.027183   -0.024585    -0.15288   -0.094093     0.62308    -0.16003   -0.040175
-0.024909   -0.020037    -0.17659    -0.10124       0.588    -0.16035   -0.042124
-0.029782   -0.021012     -0.2094    -0.10774     0.47757    -0.15905   -0.043099
-0.045047   -0.025559     -0.2552    -0.10741     0.36973    -0.15223   -0.041799
-0.063561   -0.034004    -0.30522   -0.095068     0.31646    -0.13827   -0.034978
-0.072656   -0.043099    -0.33997   -0.067784     0.33173    -0.11196   -0.023935
-0.06551   -0.047321     -0.3351   -0.031081     0.39702    -0.07428  -0.0080194
-0.046671   -0.046022    -0.28476   0.0046481     0.48504   -0.035628    0.013418
-0.02361   -0.043099    -0.19511     0.02641     0.57371  -0.0050961    0.039727
-0.00054884   -0.038551   -0.084349    0.029333     0.65491    0.016666    0.063763
0.022512   -0.034004    0.029658    0.020239     0.72377    0.029009    0.079354
0.040702   -0.026858      0.1349    0.011794     0.77574    0.033231    0.082602
0.050771   -0.018413     0.22649    0.013093     0.81017    0.036804    0.076106
0.05207  -0.0093186     0.31192    0.025111     0.82771    0.042975     0.06831
0.051745 -0.00087364     0.40254    0.044599     0.83616    0.054668    0.066037
0.052395   0.0065969     0.49673    0.062139     0.84493    0.065062    0.070259
0.05272    0.009845     0.57404    0.073507     0.85759    0.065387    0.074157
0.05142   0.0088706     0.59158    0.075781     0.86896    0.057267    0.074157
0.046873   0.0036737     0.48959    0.070259     0.85922    0.045574    0.066686
0.033881  -0.0063954     0.25118    0.057592      0.7962    0.031932    0.052395
0.01017   -0.021661   -0.029782    0.037454     0.65329    0.016666    0.031607
-0.018088     -0.0405    -0.19413    0.012443     0.42235      0.0014   0.0072465
-0.042124   -0.055116    -0.13469  -0.0076946     0.12645   -0.011267   -0.019712
-0.056091   -0.063561     0.13295   -0.011267    -0.19576   -0.016789   -0.044723
-0.062912   -0.064536     0.48082   0.0072465    -0.51277   -0.014516   -0.059664
-0.061288    -0.05739     0.75853    0.040377    -0.81517  -0.0067202   -0.059989
-0.049595   -0.046996     0.87351    0.072208      -1.101   0.0052977   -0.046671
-0.03173   -0.034004     0.81602    0.094295     -1.3491    0.016666   -0.026858
-0.014516   -0.022961     0.63835     0.10534     -1.5349    0.023812  -0.0089938
0.0010752   -0.010943     0.41715     0.10177     -1.6321    0.023812   0.0017248
0.016016  -0.0011985     0.21642    0.082602     -1.6012     0.01764   0.0046481
0.029658   0.0059473     0.06961    0.050771     -1.4174   0.0088706   0.0020496
0.039727     0.01017   -0.019388    0.012768     -1.0854   0.0020496 -0.00054884
0.042975    0.015042   -0.062587   -0.024585    -0.64789   0.0039985   0.0036737
0.037778    0.021213   -0.080127   -0.052193    -0.19348    0.015042    0.013093
0.025436    0.029009   -0.092469   -0.062912     0.16283    0.028359    0.021863
0.009845    0.032906    -0.10546   -0.055766      0.3327     0.03583    0.022188
-0.0037969     0.03518    -0.11845   -0.033679     0.29892    0.036154    0.011469
-0.008669    0.037778    -0.12885  -0.0054209      0.1219    0.036479  -0.0047713
0.00010078    0.045899    -0.12982    0.022837   -0.092469    0.039078   -0.014516
0.01894    0.059216    -0.11975    0.045899     -0.2474    0.042651  -0.0080194
0.039078    0.071883    -0.10221    0.058566     -0.2984    0.042326    0.010819
0.054668    0.077405   -0.086298    0.058566    -0.25812    0.040377    0.033231
0.057592    0.073507     -0.0824    0.049472     -0.1688    0.041676    0.049472
0.051745    0.064088   -0.095717    0.037454   -0.071032    0.050121    0.057592
0.044599    0.053369    -0.11651    0.025436   0.0036737    0.064413    0.058566
0.044599    0.044275    -0.11423    0.016991    0.034206    0.081303    0.054993
0.045899    0.039402   -0.058689    0.013418    0.013418    0.092996    0.053369
0.047523     0.03453    0.054993    0.014068    -0.04927    0.094295    0.050121
0.048497    0.030633     0.19304    0.019264    -0.13729    0.090072    0.048497
0.048497    0.023812     0.30347    0.033881    -0.24188    0.084226    0.046223
0.042651     0.01017     0.34245     0.05207     -0.3705    0.077405    0.042975
0.031607   -0.019388     0.29697    0.065712    -0.54363    0.064413    0.036479
0.016666   -0.075579     0.17355    0.068635     -0.7619    0.044599     0.02706
0.003024    -0.15646   0.0065969     0.06084    -0.98017     0.01829     0.01829
-0.0067202    -0.24578     -0.1623    0.048497     -1.1224  -0.0080194    0.012443
-0.0083442    -0.31399    -0.28995    0.033881     -1.1205   -0.030756    0.012119
-0.0060706    -0.33867    -0.35329    0.021538    -0.95418    -0.04862    0.015367
-0.0080194    -0.31431    -0.35037    0.015692      -0.669   -0.061288    0.016016
-0.016789    -0.25747     -0.2997    0.014068    -0.34842   -0.070707   0.0088706
-0.030756    -0.19056    -0.22726    0.013743   -0.064861   -0.076554  -0.0041217
-0.042124    -0.13047    -0.15841   0.0085458     0.13944   -0.080776    -0.01549
-0.046347   -0.086298    -0.10968  -0.0067202     0.25443     -0.0837   -0.019063
-0.042124   -0.055441   -0.086298   -0.033354     0.29048   -0.086298   -0.017114
-0.03173    -0.03303   -0.082725   -0.064211     0.28041   -0.092145   -0.014516
-0.018413   -0.017439    -0.09117   -0.085648     0.27132   -0.099615   -0.016789
-0.0047713  -0.0054209    -0.10709   -0.090196     0.30022    -0.10416   -0.017439
0.0075714   0.0043233    -0.12495   -0.077203     0.37363   -0.097991   -0.013216
0.019914    0.016341    -0.13892   -0.052843     0.46685   -0.080776  -0.0018481
0.030308    0.033556    -0.14476   -0.026533     0.54643   -0.055766    0.012119
0.03518    0.050771    -0.14152  -0.0034721     0.58573   -0.028807     0.01894
0.036479    0.064088    -0.13372    0.013743     0.57793  -0.0080194    0.014717
0.034206    0.074482     -0.1334     0.02706     0.53051   0.0075714   0.0049729
0.028359    0.080978    -0.14509    0.038103     0.45873    0.016666  -0.0057458
0.019589    0.083576    -0.16945    0.048172     0.38207    0.020239   -0.011592
0.011144    0.083901    -0.19381    0.052395     0.31744    0.021538   -0.014191
0.00042559    0.081303    -0.19706    0.049796     0.27684    0.020564    -0.01484
-0.014191     0.07708    -0.15321      0.0433     0.26157     0.01894   -0.017764
-0.028482    0.070259   -0.057065     0.03518     0.26742    0.019264    -0.02426
-0.039851    0.063438    0.070584    0.027709     0.28983    0.023812    -0.03173
-0.046996    0.063438     0.20311    0.024786     0.32523     0.03453   -0.039201
-0.045372    0.072533     0.31939    0.026735     0.36551    0.049472   -0.046996
-0.040175    0.089748     0.41001    0.036804     0.39019    0.064737   -0.052518
-0.036602     0.10696     0.47205    0.055318     0.37395    0.073182   -0.059339
-0.037577     0.12028     0.50745    0.072208     0.31029     0.06831   -0.065186
-0.044073     0.12255     0.52337    0.076755     0.21447    0.049796   -0.065186
-0.055441     0.11281     0.53311    0.066362     0.11963     0.02641   -0.057715
-0.063886    0.097218     0.54545    0.045249    0.055968   0.0095202   -0.046347
-0.064211    0.078055     0.55942    0.021863    0.036154   0.0010752   -0.034978
-0.055441    0.058566     0.56039  -0.0024977    0.055643  -0.0044465   -0.026858
-0.045697    0.041676     0.53733    -0.02361     0.09462   -0.010618   -0.021337
-0.037577    0.031932     0.47432   -0.040175     0.13684   -0.016789   -0.016464
-0.030431    0.029009     0.37493   -0.052518     0.17745   -0.021012   -0.008669
-0.024909    0.032257     0.25735   -0.064861     0.21675   -0.021012  -0.0011985
-0.024585    0.038103     0.13002   -0.075579     0.25443    -0.01614   0.0033489
-0.028157    0.041351    -0.04115   -0.085648     0.29015   -0.008669    0.003024
-0.03238    0.037454    -0.34257   -0.096367     0.31809  0.00075039  0.00042559
-0.035953    0.025111    -0.84342    -0.11196     0.32653   0.0065969  -0.0018481
-0.042774   0.0075714     -1.4986    -0.12592     0.31127   0.0046481      0.0014
-0.04992   -0.007045     -2.1384    -0.13275     0.27846  -0.0018481   0.0046481
-0.050244   -0.011592     -2.5584    -0.12755     0.24403   -0.013866   0.0072465
-0.038227  -0.0021729     -2.6237    -0.11033     0.21317   -0.029132   0.0095202
-0.016464    0.014392     -2.3249   -0.086298     0.16608   -0.043748    0.009845
0.0078962    0.031932     -1.7704   -0.058689    0.066686   -0.052843   0.0069217
0.02706     0.04395     -1.1283   -0.032705    -0.11618   -0.054142   0.0023744
0.03583     0.05272      -0.555    -0.01484    -0.38999   -0.053492  -0.0028225
0.029983    0.054668    -0.14671  -0.0057458    -0.70668   -0.053168  -0.0054209
0.015367     0.05207    0.083901  -0.0028225    -0.97919   -0.058365  -0.0015233
0.0069217    0.050446     0.18167  -0.0024977     -1.1306   -0.063237   0.0091954
0.014717    0.050446     0.20603  -0.0011985     -1.1257   -0.063237    0.025436
0.036479    0.051096     0.20603  0.00042559     -0.9766   -0.056091    0.039727
0.058566     0.05142     0.21285   0.0023744    -0.73656   -0.042449    0.045899
0.069934    0.050446     0.23494   0.0059473    -0.48094   -0.027833     0.04395
0.06896    0.046548     0.26644    0.013743    -0.28735   -0.015165    0.036154
0.055968    0.043625     0.29892    0.028034    -0.20031  0.00010078    0.029658
0.038103    0.041676     0.32588    0.048172    -0.19901    0.014717    0.027385
0.021213    0.041027      0.3444    0.070259    -0.22759    0.025436     0.02706
0.0095202    0.040377     0.35544    0.087149    -0.22499    0.029983    0.027709
0.0020496    0.039402     0.36129     0.09397    -0.16425    0.027709    0.025111
-0.0041217    0.038753     0.36324      0.0852   -0.052843    0.016991    0.019264
-0.0067202    0.037129     0.36356    0.062789    0.092671  -0.0031473    0.010819
-0.0050961    0.032257     0.36518    0.033881     0.24403   -0.025234   0.0023744
-0.0018481    0.020239     0.37298    0.011144     0.35576   -0.043099   -0.007045
-0.0015233   0.0069217       0.385 -0.00087364     0.39734   -0.056741    -0.01614
-0.0031473  -0.0047713     0.39539  -0.0041217     0.36778   -0.072656    -0.02361
-0.0047713   -0.016789     0.40384  -0.0041217     0.28398   -0.088572   -0.027833
-0.0089938   -0.029457      0.4152  -0.0050961     0.17745    -0.09994    -0.03173
-0.018738   -0.037902     0.44021  -0.0080194    0.089098    -0.10384   -0.040825
-0.033679   -0.038876     0.48504   -0.011917    0.049147    -0.10286   -0.055116
-0.047321   -0.036927     0.54513   -0.011592    0.064088   -0.092794   -0.070058
-0.054467   -0.032705     0.60424  -0.0037969     0.11378   -0.077853     -0.0837
-0.052518   -0.031081      0.6377   0.0072465     0.15763   -0.062912   -0.090845
-0.046022   -0.032055     0.63445    0.015042     0.16575   -0.051544   -0.087272
-0.039201   -0.034004     0.59158    0.016666     0.13197   -0.045372   -0.077203
-0.038227   -0.034329     0.52044    0.012119    0.087474   -0.046022   -0.064211
-0.042774   -0.031406     0.43892   0.0062721    0.066037    -0.05804   -0.056091
-0.046671   -0.027183     0.36064 -0.00022403    0.080978    -0.08305   -0.055766
-0.046347   -0.022636     0.29113   -0.008669     0.12678    -0.11423   -0.063237
-0.040825   -0.019712     0.23624   -0.019388     0.18492    -0.13892   -0.073955
-0.032055   -0.019388     0.19661   -0.021986     0.23461    -0.14509   -0.079477
-0.025559   -0.020037      0.1703   -0.011267     0.26027    -0.12852    -0.07493
-0.023935   -0.019712     0.15081   0.0095202     0.25572   -0.095068    -0.06616
-0.023935   -0.021012     0.13425    0.032582     0.22292   -0.056091   -0.055116
-0.021337    -0.02426     0.11541    0.047523     0.17127   -0.025559   -0.044398
-0.016464   -0.029132     0.09462    0.049472     0.11281   -0.013541   -0.034004
-0.0093186   -0.032705    0.072208    0.039402    0.063438   -0.018088    -0.02426
0.0017248    -0.03173    0.050771    0.022188    0.035505   -0.027508   -0.012567
0.015367   -0.021337    0.034206   0.0049729    0.031932   -0.030431  -0.0021729
0.02706  -0.0057458    0.023812  -0.0093186      0.0433   -0.021661  0.00075039
0.03518     0.01017    0.019589   -0.014191     0.05142  -0.0021729  -0.0054209
0.0433    0.022837    0.018615  -0.0054209    0.041351    0.021538   -0.012567
0.051096    0.032257    0.015367    0.015042   0.0075714    0.041027   -0.012242
0.056617    0.033231   0.0091954    0.037454   -0.036927    0.054019  -0.0067202
0.058241    0.026735  -0.0015233    0.054019   -0.082725    0.058891  0.00010078
0.055968    0.018615   -0.010293     0.06084    -0.12982     0.05272   0.0062721
0.054993    0.013743    -0.01484    0.059865    -0.17854    0.036479    0.012443
0.05272    0.012119   -0.014516    0.053694    -0.21752    0.015042    0.019914
0.047523    0.015042   -0.014191    0.046548    -0.23311  -0.0044465     0.02706
0.039402     0.01764   -0.017114    0.038428     -0.2159    -0.01484    0.024137
0.029983    0.019264   -0.023935    0.028359    -0.16945   -0.014191    0.009845
0.023162    0.017316   -0.034004    0.012443    -0.11423   -0.011592   -0.010943
0.022837    0.013418   -0.044073   -0.010618   -0.071032   -0.012567   -0.025884
0.029658   0.0091954   -0.050894   -0.037252   -0.053492   -0.017439   -0.022961
0.041351   0.0072465   -0.054467    -0.05804   -0.063561   -0.021661  -0.0050961
0.050771   0.0085458   -0.055116   -0.067459   -0.085324   -0.023285    0.015692
0.054019    0.012119   -0.052193    -0.06681   -0.094093    -0.02361    0.027709
0.052395    0.015367   -0.046022   -0.055441   -0.077528   -0.022961    0.028034
0.044924    0.016341   -0.043423   -0.041475   -0.045372   -0.020362    0.021213
0.032906    0.014717    -0.04992   -0.031081    -0.01549   -0.021012    0.012119
0.021863    0.013093   -0.060313   -0.026209   -0.011917   -0.027508   0.0069217
0.020239    0.011144   -0.072331   -0.027508   -0.042124   -0.034654   0.0078962
0.026735   0.0065969   -0.077853   -0.034004   -0.093119   -0.037252    0.015367
0.03518  0.00010078   -0.076879   -0.041799    -0.13794   -0.031081    0.025436
0.042326  -0.0076946   -0.071357   -0.046347    -0.15093   -0.013541    0.033556
0.042975   -0.014516   -0.071032   -0.040825    -0.12235    0.011469    0.034855
0.036479   -0.018738   -0.085973   -0.022636   -0.062912    0.037454    0.029983
0.01894   -0.022311    -0.12463   0.0049729  0.00010078    0.054668    0.019589
-0.0028225   -0.025559    -0.18699    0.034855    0.044599    0.058891   0.0072465
-0.018413   -0.032705    -0.26657    0.056942    0.056292    0.050446  -0.0015233
-0.022636   -0.045372    -0.34582    0.060515    0.029658    0.035505  -0.0041217
-0.019063   -0.060638    -0.40688    0.045249   -0.026209    0.024786  0.00042559
-0.010618   -0.072656    -0.43839    0.018615   -0.081426     0.01894    0.012768
-0.0037969   -0.076554    -0.43612  -0.0067202    -0.10059    0.015692    0.024461
-0.00022403   -0.069733     -0.4137   -0.020687   -0.036278    0.011144    0.033231
-0.0034721   -0.049595    -0.38869   -0.025884     0.14269  0.00042559     0.03518
-0.011917    -0.02426    -0.37083   -0.026858     0.42917   -0.015815    0.028684
-0.022311  -0.0034721    -0.36336    -0.02426     0.76665   -0.029457     0.01764
-0.030106   0.0046481    -0.36726   -0.016789      1.0645   -0.035628   0.0059473
-0.034654  -0.0018481      -0.377  -0.0054209        1.25    -0.03303  -0.0021729
-0.034978   -0.020037    -0.38512   0.0059473       1.286   -0.025234  -0.0041217
-0.035628   -0.043423    -0.37213    0.015367      1.1834   -0.017764  -0.0011985
-0.037577   -0.060313    -0.30684    0.016991     0.98752  -0.0093186   0.0036737
-0.037252   -0.067134    -0.14769    0.010819     0.74911 -0.00054884   0.0052977
-0.03238   -0.063561     0.10469  -0.0021729      0.5068   0.0043233   0.0010752
-0.027508   -0.054142      0.3837    -0.01484     0.26969   0.0036737  -0.0063954
-0.026209   -0.042774      0.5958   -0.022311    0.016016  -0.0011985   -0.012567
-0.03173    -0.03238     0.67148   -0.022636    -0.27858  -0.0093186   -0.012892
-0.0405   -0.026209     0.59482   -0.014191    -0.61736   -0.018738  -0.0093186
-0.04927   -0.025559     0.40449  -0.0021729    -0.96912   -0.026858  -0.0031473
-0.059664   -0.036278     0.16121   0.0049729      -1.292    -0.03173   0.0010752
-0.07493   -0.056416   -0.065186   0.0039985     -1.5418    -0.03303  0.00042559
-0.094743   -0.082076    -0.22272  -0.0034721      -1.671   -0.037252  -0.0028225
-0.11488    -0.10676    -0.30197  -0.0099683     -1.6463   -0.047971  -0.0076946
-0.1308     -0.1204    -0.31854  -0.0093186     -1.4641    -0.05804   -0.011592
-0.13924    -0.11586    -0.30392  -0.0037969     -1.1601   -0.062587   -0.012242
-0.13372   -0.095393    -0.28281  0.00075039     -0.7986   -0.055766   -0.010618
-0.11521   -0.065186    -0.27274   0.0033489    -0.44326   -0.039851  -0.0096434
-0.090196   -0.034654    -0.28021   0.0036737    -0.13859   -0.018088   -0.007045
-0.062262   -0.008669    -0.28898   0.0059473    0.095594 -0.00054884  -0.0024977
-0.034654   0.0091954    -0.24805   0.0075714     0.26807   0.0088706   0.0036737
-0.011592     0.01764    -0.10059   0.0049729     0.38207    0.012768    0.010495
0.0043233     0.01894     0.15179  0.00042559     0.41878    0.016341    0.016016
0.0078962    0.015367     0.44086  -0.0044465     0.33595    0.019264    0.017965
-0.0024977   0.0075714     0.67375   -0.007045    0.091372    0.015042    0.017316
-0.019063  -0.0037969     0.78841  -0.0080194    -0.27241  -0.0011985    0.017316
-0.036602   -0.017114     0.78126  -0.0076946    -0.61379   -0.024585    0.020888
-0.046996   -0.027183     0.69064 -0.00087364    -0.77944   -0.042124     0.02706
-0.052518   -0.031406     0.57176    0.011144    -0.68882   -0.043099    0.032582
-0.051544   -0.028807     0.46328    0.023162    -0.37148    -0.02361     0.03583
-0.044398   -0.020037     0.37395    0.025436    0.048822   0.0046481     0.03583
-0.033354  -0.0067202     0.29405    0.014717     0.42397    0.029009    0.032906
-0.020037   0.0072465     0.21837  -0.0034721     0.65491    0.038428    0.030957
-0.0057458    0.018615     0.14691   -0.021012     0.71175    0.023812    0.030957
0.0056225    0.028359    0.086824   -0.038551     0.61788   -0.011917    0.029333
0.01017    0.038753    0.042975   -0.051219     0.42235    -0.05739    0.021863
0.0065969    0.046223    0.013743   -0.059989      0.1742    -0.10189     0.01017
-0.0057458    0.048497  -0.0021729   -0.062912    -0.08305    -0.13567  -0.0018481
-0.021337    0.045574   -0.019063   -0.063237    -0.32341    -0.15516   -0.012242
-0.036602    0.039402   -0.047646    -0.06681    -0.52414    -0.15841    -0.01614
-0.04992    0.029658   -0.091495   -0.076554    -0.65016    -0.14606    -0.01614
-0.05804    0.015367    -0.14444   -0.086948    -0.66803     -0.1204   -0.016464
-0.059989 -0.00022403    -0.20096   -0.090521    -0.56636    -0.09182   -0.017439
-0.055766   -0.011917    -0.25812   -0.084349    -0.37668   -0.068434   -0.018738
-0.051868   -0.020037    -0.31431   -0.068109    -0.16718   -0.051544   -0.021986
-0.04992   -0.021337    -0.36856   -0.045697   0.0023744   -0.038551   -0.023935
-0.04992   -0.019712    -0.40948   -0.023935     0.12125   -0.025559   -0.022636
-0.050569   -0.016789    -0.42832  -0.0024977     0.20765  -0.0099683   -0.021012
-0.046347   -0.011267    -0.42247    0.022837     0.27294   0.0069217   -0.022311
-0.034978  -0.0041217    -0.40169    0.050121     0.30087    0.022512   -0.023935
-0.018088   0.0046481    -0.38512    0.073182     0.26677    0.036479   -0.019388
0.0023744    0.012119    -0.38415      0.0852     0.17257    0.050771  -0.0060706
0.026735    0.019914    -0.40461    0.085525    0.062139    0.064413    0.013418
0.05207    0.029333    -0.44359    0.080978  -0.0034721    0.080978    0.032906
0.076106    0.040052    -0.49133    0.080978    0.015692     0.10664    0.047198
0.093321    0.051745    -0.53843    0.089098     0.11671     0.13717    0.054668
0.10177    0.063113    -0.58163     0.10371     0.25345     0.16543    0.055643
0.10404    0.072208    -0.61671     0.12158     0.38078     0.18459     0.05272
0.10534    0.076755    -0.61411     0.13847     0.48244     0.18881     0.05272
0.10989    0.078704    -0.49133     0.15244     0.56104     0.17939    0.057592
0.11736    0.076106    -0.17659     0.15926     0.62081     0.16543    0.064088
0.12645    0.067661     0.29697     0.15244     0.64549     0.15276    0.065712
0.12515    0.053044     0.80627     0.12775     0.61951     0.14172    0.064088
0.11151     0.03583      1.2136    0.087474     0.53928     0.12678    0.057267
0.093321    0.020239      1.4107    0.041676      0.4243     0.10339    0.046223
0.075781     0.01017      1.3565   0.0017248      0.3038    0.070259    0.034206
0.061489   0.0059473      1.0934   -0.023935     0.20051    0.039078    0.023162
0.054019   0.0023744     0.73189   -0.035628     0.12353    0.020564    0.013743
0.054668   0.0010752     0.40676   -0.036602    0.064413    0.020564   0.0091954
0.056617  -0.0018481     0.21642   -0.037902   0.0075714    0.027709   0.0088706
0.049147  -0.0067202     0.18589   -0.048296   -0.059339    0.028034   0.0062721
0.028359   -0.010943     0.25378   -0.069408    -0.13145    0.013093  -0.0057458
-0.0011985   -0.011267     0.32393   -0.093119    -0.18504   -0.011592   -0.024585
-0.030756   -0.007045     0.31614    -0.10676    -0.19413   -0.037902   -0.041799
-0.051219  -0.0011985     0.20798    -0.10351    -0.16393    -0.05739    -0.04992
-0.054467   0.0033489    0.023812     -0.0837    -0.14899   -0.064536   -0.046671
-0.042449   0.0020496    -0.18439   -0.056091    -0.22824   -0.065186   -0.040825
-0.023935   -0.007045    -0.37798   -0.035953    -0.43417   -0.068758   -0.035628
-0.007045   -0.025884    -0.57221   -0.036602     -0.7135   -0.078503   -0.030106
0.0043233   -0.051868    -0.80315   -0.059989    -0.94769   -0.096692    -0.02361
0.0091954   -0.077203     -1.0698   -0.094093     -1.0286    -0.11943   -0.017114
0.0088706   -0.089546      -1.303     -0.1204    -0.91586    -0.14281   -0.011592
0.0049729   -0.082725     -1.4118     -0.1269    -0.65601    -0.15581  -0.0076946
0.00042559   -0.059664     -1.3443    -0.11196    -0.34679    -0.15288  -0.0050961
0.00042559   -0.030431     -1.1205   -0.082076   -0.081101    -0.13827  -0.0011985
0.0039985  -0.0057458    -0.81354   -0.044723     0.08585    -0.11715  0.00042559
0.0085458    0.012768    -0.50335   -0.008669     0.14919    -0.09117  -0.0037969
0.011144    0.028684    -0.24513    0.024786     0.14561   -0.061288   -0.012242
0.0085458    0.041676   -0.064211    0.058241     0.11866   -0.032055   -0.021012
0.00010078    0.045899      0.0433    0.090397     0.10566  -0.0096434    -0.02426
-0.011917    0.036479    0.092346     0.11573     0.12385   0.0023744   -0.021986
-0.022636    0.012768     0.10404     0.12645     0.17225   0.0010752   -0.020037
-0.03303   -0.020037    0.094295      0.1206     0.23006   -0.012567   -0.022311
-0.041799   -0.053817    0.075781    0.098193     0.27391    -0.03238   -0.025884
-0.04927   -0.080451    0.059865     0.06831     0.29178    -0.04862   -0.027833
-0.052518   -0.094743    0.048497    0.038103     0.28788   -0.051219   -0.027508
-0.043099   -0.097341    0.037129    0.016016     0.27521    -0.04115   -0.024909
-0.025234   -0.087922    0.016991   0.0017248     0.25735   -0.026533   -0.019388
-0.0057458   -0.071682   -0.010618  -0.0054209     0.22292   -0.015165   -0.011917
0.0085458   -0.047646   -0.036278  -0.0060706     0.15666  -0.0083442  -0.0054209
0.019264   -0.021337   -0.047646 -0.00022403    0.042651  -0.0037969 -0.00087364
0.031932   0.0049729   -0.035303   0.0069217    -0.12463  -0.0024977 -0.00022403
0.041351     0.02706  -0.0028225    0.011794    -0.31724  -0.0034721  -0.0060706
0.042975    0.044275    0.036154   0.0075714    -0.48191  -0.0076946   -0.020037
0.033881    0.054344    0.066362  -0.0044465    -0.57481   -0.016789   -0.036602
0.019914    0.056292    0.079029   -0.017114    -0.57318   -0.030756   -0.050894
0.0069217    0.053369    0.076755   -0.024585    -0.47964   -0.046671   -0.056741
-0.0018481    0.050771    0.071883   -0.025234    -0.32276   -0.058689   -0.055441
-0.0063954    0.048822    0.071234   -0.017114    -0.14606   -0.061288   -0.050244
-0.0089938    0.047847    0.076106  -0.0037969   0.0059473   -0.057715   -0.046347
-0.015815    0.047523    0.082277   0.0085458     0.10306   -0.049595   -0.048945
-0.025234    0.046223    0.086175    0.015042     0.12905   -0.041799   -0.056741
-0.030756    0.044275    0.089423    0.016341    0.087474   -0.035303   -0.062262
-0.026209      0.0433    0.091696    0.010495  -0.0047713   -0.029457   -0.062587
-0.014516    0.039402    0.098842  0.00042559    -0.11586   -0.026209   -0.059014
-0.0011985    0.036479     0.11216  -0.0057458    -0.20648   -0.021012   -0.054467
0.0075714     0.03453       0.131  -0.0031473     -0.2487   -0.016789   -0.051219
0.010819    0.037129     0.15276   0.0056225    -0.23409   -0.017439    -0.04992
0.012768    0.041676     0.17127    0.015367      -0.174   -0.023935    -0.04992
0.013743    0.045899     0.18004    0.020564   -0.093119   -0.027508    -0.04992
0.014392    0.048497     0.18199     0.01894   -0.017764   -0.026533   -0.047971
0.013418    0.047523     0.18784    0.012768    0.038103   -0.024585    -0.04115
0.010495    0.046873     0.20863   0.0069217    0.067986   -0.021337   -0.026209
0.0088706    0.046223     0.25118    0.008221    0.068635   -0.018738   -0.008669
0.0091954    0.044275     0.30412    0.017965    0.036479   -0.018738   0.0033489
0.0062721    0.042326     0.34375    0.033881   -0.017114   -0.019063   0.0065969
0.00042559    0.042326     0.35414    0.051096   -0.055116   -0.017439    0.003024
-0.0024977    0.042326     0.33628    0.062464   -0.026533   -0.012242 -0.00022403
-0.0041217    0.042975     0.29633     0.06896     0.10631  -0.0028225   0.0017248
-0.0037969    0.042326     0.24533    0.070909     0.33011   0.0085458   0.0075714
-0.0028225    0.041351     0.19726    0.065387     0.58378    0.018615    0.012119
0.00042559    0.036479     0.15828    0.057592     0.79653    0.023812    0.011144
0.0091954    0.029009      0.1297    0.050446     0.92645    0.023162   0.0046481
0.019589    0.021863     0.10501    0.049796     0.96575    0.024461  -0.0024977
0.022837    0.017316    0.081627    0.056617     0.93555    0.034855  -0.0060706
0.015692    0.016666     0.06019    0.066686     0.87026    0.052395  -0.0060706
0.0010752    0.013418    0.046873    0.073507     0.79913     0.06896  -0.0021729
-0.017439   0.0069217    0.044275    0.071558     0.72962    0.079354   0.0033489
-0.035628  -0.0015233    0.045574     0.06084     0.65166    0.081627   0.0056225
-0.043748  -0.0076946    0.041027    0.042975     0.54935    0.074157      0.0014
-0.04862   -0.010943     0.02706    0.017316     0.40806     0.05272   -0.007045
-0.052193    -0.01484   0.0036737    -0.01484     0.23624    0.016666   -0.013216
-0.056416   -0.023285   -0.024909   -0.047971    0.063763   -0.021012   -0.017764
-0.063237   -0.034654   -0.043423   -0.072981   -0.075579   -0.047646   -0.019388
-0.068758   -0.043099    -0.03238   -0.081751    -0.17172   -0.061288   -0.018413
-0.068434   -0.049595    0.029983    -0.07428    -0.23084   -0.068758   -0.019063
-0.063561   -0.050569     0.15016   -0.058365    -0.26332   -0.078827   -0.024909
-0.055766   -0.048296      0.2973   -0.039851    -0.27469   -0.094743   -0.034004
-0.050894   -0.043099     0.41845   -0.026209    -0.27404    -0.10741   -0.040175
-0.051868   -0.039201     0.46945   -0.019388    -0.27696    -0.11033   -0.037902
-0.054467    -0.04115     0.43567   -0.019388    -0.29742    -0.10254   -0.028157
-0.055441   -0.046996     0.33465   -0.024909     -0.3364   -0.086623   -0.013866
-0.052843    -0.04992     0.20278   -0.029782    -0.38642   -0.071032   0.0046481
-0.043748   -0.044723     0.07773   -0.032055    -0.43579   -0.057065     0.02641
-0.025884   -0.031406   -0.021661   -0.030106    -0.47477   -0.043423    0.044924
-0.008669   -0.012242   -0.090521   -0.020687    -0.50075   -0.028807    0.054993
-0.0024977   0.0052977    -0.13697  -0.0054209    -0.51342   -0.010618    0.059541
-0.0083442     0.01764    -0.17367    0.012443    -0.51017    0.011144     0.06084
-0.01549    0.024461    -0.19024    0.032582    -0.48289    0.027709    0.062464
-0.014516    0.029658    -0.16523    0.049147    -0.43027    0.033556    0.063113
-0.0057458    0.035505   -0.087922     0.06084    -0.36109    0.030633    0.063113
0.0059473    0.041027    0.031607    0.065712    -0.28443    0.024461    0.061814
0.020888    0.045574     0.17387    0.067336    -0.20225    0.019914    0.061165
0.033881    0.045574     0.31939    0.072208    -0.11456    0.019589     0.06084
0.039078    0.044924     0.45288      0.0865   -0.022961    0.020239    0.058891
0.033881    0.045249     0.56754     0.10664    0.070909    0.024786    0.056617
0.026735    0.042975     0.66401     0.12483     0.17192    0.031607    0.053044
0.025111    0.038753       0.753     0.13295     0.28756     0.03518     0.05207
0.026085    0.034206     0.84428     0.12872     0.42625    0.031282    0.053694
0.02706    0.033231     0.92905     0.11411     0.58573    0.025761    0.053694
0.026735    0.033231     0.98297    0.090397     0.74229    0.019264    0.050446
0.025436     0.03453     0.95861    0.061489     0.86474   0.0091954    0.039078
0.022837    0.033556     0.79783     0.03453     0.92353  -0.0067202    0.021863
0.013743    0.027385     0.49868    0.011794     0.90112   -0.025234    0.003024
-0.00087364    0.012768     0.16868   -0.007045     0.80887   -0.045697   -0.013541
-0.019063   -0.012242   -0.052518   -0.026209     0.66173   -0.070707   -0.023935
-0.034978   -0.041475     -0.1308   -0.055766     0.45451    -0.10351   -0.031406
-0.048945   -0.071682    -0.17984    -0.10124     0.18297    -0.14574   -0.035628
-0.064536   -0.098965    -0.38447    -0.15938    -0.11683    -0.19381   -0.039201
-0.082725    -0.12365    -0.86681    -0.21947    -0.36498    -0.23506   -0.047646
-0.098316    -0.14087     -1.5768    -0.26592    -0.48549     -0.2552    -0.05739
-0.10676    -0.14769     -2.3106    -0.28865    -0.44489    -0.24903   -0.063886
-0.10611    -0.14249     -2.8286    -0.28573    -0.26787    -0.22077   -0.065835
-0.097991    -0.12982     -2.9699    -0.26234   -0.024909    -0.17952   -0.067134
-0.085973    -0.11228     -2.7166    -0.22661     0.19271    -0.14087   -0.071032
-0.073955   -0.092469     -2.1807    -0.18764     0.30704    -0.11066    -0.07428
-0.068109   -0.074605     -1.5359    -0.15321     0.26514   -0.090521   -0.073306
-0.069408   -0.063237    -0.93892    -0.12982    0.064737   -0.077853   -0.068434
-0.072656   -0.062262    -0.48679    -0.11521    -0.21622   -0.068109   -0.061613
-0.07493   -0.068758    -0.19641    -0.10156     -0.4699    -0.05804   -0.053492
-0.073955   -0.075255   -0.028482   -0.085973    -0.63003    -0.04927   -0.045047
-0.072331   -0.075904    0.073182   -0.073306    -0.71935   -0.043748   -0.041475
-0.070058   -0.072656     0.15666   -0.069733    -0.83433   -0.043423   -0.043099
-0.06681   -0.068109     0.24468   -0.075904     -1.0753   -0.047971   -0.045372
-0.063886   -0.062912     0.33368   -0.084999     -1.4492   -0.054467   -0.044723
-0.056741   -0.055441     0.40936   -0.085648     -1.8364   -0.051868   -0.040825
-0.044398   -0.045047      0.4571    -0.06681      -2.077   -0.032705   -0.031081
-0.025234   -0.028482     0.47172   -0.027508     -2.0663   0.0017248   -0.018088
-0.0011985  -0.0063954      0.4597    0.019589     -1.8075    0.038103  -0.0037969
0.021538    0.019914      0.4308    0.058566     -1.3982    0.064737   0.0091954
0.038753    0.042975     0.39052     0.07773    -0.97367    0.075456    0.015367
0.05272    0.058891     0.34342    0.078704    -0.64042    0.069934    0.014717
0.06084    0.064737     0.30087    0.070909    -0.43287    0.054668    0.015367
0.059865    0.063113     0.26937    0.059865    -0.31983    0.039727    0.024137
0.051745    0.059541     0.25248    0.052395    -0.25422    0.033556    0.035505
0.042651    0.058241      0.2463    0.050771    -0.21427    0.036804    0.045899
0.037454    0.058241      0.2476    0.054344    -0.21037    0.044924    0.048172
0.038103    0.062139     0.25897    0.060515    -0.24318     0.05207      0.0433
0.040377    0.066037     0.28496    0.071558    -0.29255    0.055643    0.036479
0.044275    0.068635     0.33335    0.086175    -0.32048    0.059216    0.032257
0.046873    0.070584     0.40286     0.10274    -0.28508    0.064088    0.032906
0.045899    0.069934     0.47757     0.11736    -0.17789    0.070584    0.040052
0.039402    0.067661     0.53051      0.1271   -0.011917    0.074482    0.051096
0.029333    0.063438     0.53343     0.13295     0.20213     0.06896     0.06084
0.019589     0.06019     0.47724      0.1349     0.45646    0.056942    0.065062
0.013093    0.059541     0.37363     0.13749     0.75073    0.040052    0.062789
0.012443    0.057267      0.2463     0.14139       1.069    0.027709    0.054993
0.01829    0.054344     0.12385     0.14237      1.3636    0.022837    0.046873
0.029333    0.053369    0.030308      0.1349      1.5783    0.027385    0.041676
0.042001    0.055968    -0.02361     0.11898      1.6803    0.037129    0.042651
0.053044    0.062139   -0.046347     0.10047      1.6797    0.048497    0.047198
0.058241    0.064088   -0.058365    0.084551      1.6137    0.064088    0.049796
0.055968     0.06019   -0.076554    0.076106       1.528    0.083901    0.047847
0.049796    0.049147    -0.11521    0.076431      1.4556     0.10501    0.041676
0.04395     0.03518    -0.17042    0.084551      1.4104     0.11768    0.035505
0.039402    0.023812    -0.22921    0.091047      1.3926     0.11931    0.033231
0.033556    0.015367    -0.27923     0.09462      1.3744     0.11411    0.031932
0.028034    0.011469    -0.31236    0.094945       1.313     0.10566    0.029333
0.023162   0.0091954    -0.32146    0.092021      1.1597    0.098193    0.025761
0.016991   0.0046481    -0.29255    0.082927     0.85824    0.089423    0.023162
0.0043233  -0.0041217    -0.19673    0.064088     0.35414    0.068635    0.019589
-0.012892    -0.01549  -0.0063954    0.028359    -0.38739     0.03453    0.011469
-0.027508   -0.026533      0.2502   -0.021986     -1.2975   -0.008669  -0.0018481
-0.037252   -0.035953     0.49251   -0.079477     -2.1872   -0.057065   -0.017439
-0.046022   -0.042449      0.6377     -0.1334      -2.828    -0.10416   -0.033679
-0.054792   -0.042774     0.64712    -0.16977     -3.0632    -0.14281   -0.048945
-0.061937   -0.033679     0.54545    -0.18082     -2.8709      -0.174   -0.061937
-0.062262   -0.015165     0.40221    -0.16588      -2.347    -0.19641   -0.064536
-0.053492   0.0072465     0.28756    -0.12787     -1.6571    -0.20485   -0.055441
-0.039851    0.028684     0.23071   -0.074605    -0.96685    -0.19608   -0.038551
-0.024909      0.0433      0.2161   -0.019063    -0.40234    -0.17465   -0.020037
-0.014516    0.049147     0.22422    0.025111  -0.0099683    -0.14931  -0.0037969
-0.011592    0.045899     0.26547    0.047523     0.23169    -0.12203   0.0085458
-0.01614     0.03583     0.37103    0.048497     0.37785   -0.094418    0.013418
-0.021661    0.024786     0.53473    0.038428     0.48147   -0.068758    0.014392
-0.021337    0.016991     0.70266     0.02706     0.57014   -0.043423    0.013743
-0.016789    0.013093     0.80562    0.021863     0.65166   -0.018088    0.010495
-0.0096434    0.011469     0.79426    0.025436     0.72767   0.0039985   0.0056225
-0.00022403    0.009845     0.66238    0.034855     0.79361    0.023162  0.00042559
0.0088706   0.0075714     0.44249    0.044599     0.83745    0.036154  0.00075039
0.016016    0.003024     0.18654    0.044599     0.84103      0.0433   0.0043233
0.018615  -0.0021729   -0.046996    0.030633      0.7975    0.041676   0.0052977
0.016341   -0.008669    -0.21817   0.0046481     0.71565    0.030308      0.0014
0.014392   -0.018413    -0.31789   -0.030756     0.62146    0.012443   -0.007045
0.013418   -0.030431    -0.36433   -0.068109     0.54773  -0.0073698   -0.016464
0.010495   -0.043099     -0.3783   -0.098641     0.51719   -0.024909   -0.025559
0.00075039    -0.05804    -0.38187    -0.11813     0.53084     -0.0405   -0.030756
-0.014516   -0.073631    -0.38837     -0.1217     0.56462   -0.048296    -0.03238
-0.028157   -0.082076    -0.39941    -0.10774      0.5867   -0.047971   -0.031406
-0.027508   -0.081101    -0.40753   -0.081426     0.57371   -0.043099   -0.029457
-0.013866   -0.068109    -0.40266   -0.050894     0.51492   -0.037252   -0.028807
0.0039985   -0.046671    -0.38837   -0.025559      0.4191   -0.034329   -0.027833
0.01829   -0.024909    -0.37375   -0.011917      0.3012    -0.03173   -0.026533
0.025436  -0.0099683    -0.36726  -0.0076946      0.1742   -0.026209   -0.022961
0.031282  -0.0024977    -0.36953  -0.0047713    0.062139    -0.01614    -0.01484
0.040052      0.0014    -0.37733   0.0043233  -0.0063954   0.0017248  -0.0044465
0.050121   0.0065969     -0.3835    0.022188   -0.019712    0.024461   0.0062721
0.057917    0.015692     -0.3848    0.045899    0.012768    0.047847    0.014717
0.061489    0.028359    -0.38155    0.067336    0.059541    0.061814    0.015042
0.059216    0.039727     -0.3757    0.078055    0.087149    0.063763    0.010819
0.05142    0.047847    -0.37083    0.072858    0.074157     0.05272   0.0049729
0.041676    0.047847    -0.36303    0.051745    0.014717    0.032906 -0.00022403
0.028684    0.038428    -0.35394    0.020564    -0.07428   0.0085458  -0.0037969
0.017316    0.022512    -0.34712   -0.012892    -0.16588   -0.016464  -0.0057458
0.010495   0.0072465     -0.3442   -0.039851    -0.23279   -0.032705  -0.0067202
0.0078962  -0.0044465    -0.34192   -0.056091    -0.25975   -0.032705  -0.0054209
0.0088706   -0.012242    -0.33607   -0.061288     -0.2513   -0.017439  -0.0076946
0.009845   -0.015165     -0.3299   -0.055441    -0.22694   0.0065969   -0.012567
0.0059473   -0.014191    -0.32731   -0.045697     -0.2055    0.029009   -0.016789
-0.0011985   -0.008669    -0.32178   -0.034329    -0.19478    0.042326   -0.018738
-0.0093186 -0.00054884    -0.29515   -0.027833    -0.19803    0.044599   -0.018738
-0.011267   0.0056225    -0.22077   -0.025884    -0.21817    0.038753    -0.01484
-0.0067202   0.0059473   -0.082725   -0.025559    -0.26559    0.032906   -0.011592
0.0020496  0.00010078     0.10014   -0.024585    -0.33672    0.030308  -0.0099683
0.01017  -0.0050961     0.27489   -0.022636    -0.41046    0.027385  -0.0096434
0.015367  -0.0083442     0.38565   -0.021986    -0.45918    0.019589   -0.012892
0.016991  -0.0099683     0.40806   -0.024585     -0.4634     0.01017   -0.018088
0.011144   -0.012567     0.35219   -0.026209    -0.42247   0.0026992   -0.025884
0.00042559   -0.025234     0.24013   -0.022636    -0.34322  0.00075039   -0.030756
-0.0093186   -0.060638    0.094295   -0.008669    -0.23863   0.0046481   -0.031406
-0.015165     -0.1295   -0.064536    0.013093    -0.12917    0.011144   -0.027508
-0.015815     -0.2159    -0.21232    0.037778   -0.035303    0.020888   -0.021012
-0.0093186    -0.29645    -0.33055    0.065062    0.021213    0.026735   -0.012892
-0.00022403    -0.34062    -0.40428     0.08585    0.033231    0.027709  -0.0050961
0.0095202     -0.3351    -0.42442    0.099167    0.011794     0.02641  0.00042559
0.015042    -0.28216    -0.39909     0.10534   -0.024585    0.026085   0.0046481
0.016016    -0.20323    -0.34809     0.10501   -0.067459    0.022837   0.0072465
0.011469    -0.12008    -0.29223    0.095269    -0.11098    0.016991   0.0088706
0.0072465   -0.048945    -0.24643    0.079679    -0.14087    0.010495   0.0091954
0.0043233 -0.00022403     -0.2159    0.059216    -0.13664   0.0088706    0.010495
0.00010078    0.025111    -0.19868    0.037778     -0.0837    0.009845   0.0078962
-0.0073698    0.031282    -0.19121    0.012768    0.008221   0.0088706 -0.00022403
-0.020362    0.027385    -0.19121   -0.016464     0.10794   0.0052977   -0.011267
-0.035303    0.019589    -0.19251    -0.04862     0.18654  -0.0034721   -0.021337
-0.050894    0.014068    -0.18601   -0.077528     0.22877   -0.019063   -0.031081
-0.059989    0.011794    -0.16295   -0.096042     0.23591   -0.039526   -0.037577
-0.060963    0.011144    -0.11228    -0.10384     0.22227   -0.062262   -0.039526
-0.053168    0.011144   -0.022636    -0.10644     0.20116     -0.0824   -0.038227
-0.043423    0.012119     0.10209    -0.11033      0.1781   -0.093769   -0.033679
-0.0405    0.016341     0.24208    -0.11423     0.15698   -0.096042   -0.027183
-0.04862    0.020888     0.36973    -0.10579     0.13132   -0.089546   -0.020362
-0.060313    0.024461     0.45223   -0.080776    0.093321   -0.077203   -0.011592
-0.06551    0.024461     0.45938   -0.043099     0.03583   -0.063561  -0.0011985
-0.062912    0.022512     0.39117  -0.0011985   -0.039526   -0.050569   0.0069217
-0.056416    0.022512     0.26969    0.034855    -0.12008   -0.041799    0.009845
-0.050569    0.024786      0.1258    0.058891    -0.18277   -0.039201   0.0078962
-0.045372    0.030633  -0.0044465    0.066686    -0.21427   -0.039526   0.0056225
-0.039201    0.039402   -0.098316    0.062139    -0.20583   -0.037902   0.0052977
-0.030106    0.054344    -0.14671    0.054344    -0.16198   -0.027508     0.01017
-0.019712    0.074157    -0.15353    0.053044   -0.094743  -0.0073698    0.019589
-0.012567    0.091696    -0.12917    0.060515   -0.025884    0.013743    0.033231
-0.0057458    0.099817   -0.089221    0.073832    0.026085    0.029333     0.04395
0.0069217    0.099817   -0.045372    0.087799    0.053044     0.03518    0.049147
0.026735    0.093645  -0.0050961    0.094295    0.059541    0.032582    0.046223
0.046548    0.084551    0.033231    0.089748    0.073182    0.021863     0.03583
0.058566    0.076106    0.076431    0.072533     0.14009   0.0062721    0.017316
0.056617    0.067336     0.12937    0.045899     0.29827  -0.0093186  -0.0034721
0.038103    0.058566     0.19434    0.015042     0.54773   -0.020362   -0.022636
0.008221     0.05207     0.26937   -0.012892     0.83908   -0.025559   -0.039201
-0.023285    0.049472     0.34635   -0.036602       1.098   -0.021661   -0.047971
-0.04862    0.050771     0.41261   -0.053492      1.2545   -0.011917   -0.047321
-0.059339    0.057592     0.45678   -0.056741      1.2678 -0.00087364   -0.037252
-0.052843     0.06961     0.46652   -0.046022      1.1421   0.0065969   -0.021661
-0.033679    0.084226     0.44444   -0.022961     0.90859   0.0065969  -0.0089938
-0.011592    0.098517     0.40871   0.0059473     0.61334 -0.00022403  -0.0034721
0.0078962     0.11054     0.37818    0.030308     0.29665   -0.010943  -0.0028225
0.01894     0.12288     0.35999      0.0433   -0.020037   -0.022311  -0.0024977
0.023162      0.1336     0.34992      0.0433    -0.33965   -0.032055  -0.0024977
0.020564     0.13847     0.33595    0.030957     -0.6755   -0.041475  -0.0031473
0.012119      0.1336     0.30802    0.014068     -1.0094   -0.054792  -0.0024977
0.0036737     0.11898     0.26027  -0.0037969       -1.29    -0.06616  -0.0018481
0.00075039    0.099492     0.19758   -0.016789     -1.4719   -0.066485  0.00042559
-0.00022403    0.079679      0.1284    -0.02426     -1.5401   -0.055766   0.0075714
-0.0037969    0.063763    0.058891   -0.025559     -1.5265   -0.040825    0.016341
-0.012567    0.050121  -0.0041217    -0.02361     -1.4947   -0.029782    0.021213
-0.020687    0.040052   -0.053168   -0.021337     -1.5129   -0.028482    0.021863
-0.02426    0.032257   -0.081426   -0.023285     -1.5976   -0.034654    0.019589
-0.019712    0.024461   -0.091495   -0.025884     -1.6977   -0.043748    0.017965
-0.0073698    0.016016   -0.089221   -0.022636     -1.7318   -0.050569     0.01764
0.003024   0.0062721   -0.087272  -0.0096434     -1.6395   -0.054142    0.015367
0.0085458  -0.0034721   -0.093769   0.0078962     -1.4008   -0.055766    0.010819
0.0078962   -0.010943    -0.10416    0.023812     -1.0396   -0.058365   0.0049729
0.0059473   -0.015165    -0.11358    0.036479    -0.60924   -0.059014  -0.0041217
0.0052977   -0.017114     -0.1178    0.041351    -0.18212   -0.060313   -0.019712
0.0046481   -0.018413    -0.11553    0.032906     0.15698   -0.072656   -0.045697
0.0010752   -0.022636    -0.11423   0.0091954     0.35349    -0.10221   -0.078503
-0.0073698   -0.031081     -0.1204   -0.027508     0.41553    -0.13957    -0.10741
-0.019063     -0.0405    -0.13177    -0.06551     0.40416    -0.16815    -0.12073
-0.028157   -0.044398    -0.14087    -0.09117     0.38207    -0.17594    -0.11391
-0.028157   -0.038227    -0.14736    -0.10026     0.35999    -0.16165    -0.09182
-0.016789   -0.026533    -0.14834   -0.093769     0.30704    -0.13469   -0.069083
-0.0037969   -0.017114    -0.14411   -0.076229     0.19336    -0.10579   -0.052843
0.0072465   -0.012892    -0.13729   -0.055116    0.013418   -0.080451   -0.044073
0.010495    -0.01614    -0.13112   -0.038876    -0.20713   -0.065835   -0.042449
0.0043233   -0.023285    -0.12592   -0.031081     -0.4163   -0.059989   -0.046022
-0.0080194   -0.030431    -0.12105   -0.029457    -0.53843   -0.063237   -0.051219
-0.026858   -0.034654     -0.1178   -0.033679    -0.52186   -0.079152   -0.060638
-0.046347   -0.034329    -0.11975   -0.043423    -0.34614    -0.10644   -0.077528
-0.063237   -0.030106     -0.1243   -0.050894    -0.03173    -0.13534   -0.094418
-0.070058   -0.025559    -0.12722   -0.049595     0.36291    -0.15158    -0.10319
-0.065186   -0.022961    -0.13112   -0.038876     0.76177    -0.14509   -0.099615
-0.052518    -0.02426    -0.14022   -0.022961      1.0931    -0.11488   -0.084024
-0.038876   -0.026533    -0.15938  -0.0076946      1.3065   -0.067784   -0.059014
-0.026858   -0.029782    -0.18796   0.0052977      1.3773   -0.017114   -0.034329
-0.017114    -0.03238    -0.22012    0.016341      1.3091     0.02706   -0.019712
-0.011267   -0.033354    -0.24935    0.024137      1.1408    0.052395   -0.022961
-0.012892   -0.032055    -0.26981    0.030308     0.93587    0.059216    -0.04115
-0.023935   -0.027183    -0.27923    0.037778     0.76275    0.057917   -0.063561
-0.042124   -0.023935    -0.27956    0.045899     0.66953    0.054668   -0.075904
-0.059014   -0.025234    -0.27761    0.055318     0.65589    0.053694   -0.070382
-0.065835   -0.031406    -0.28053    0.059541     0.67213     0.05207   -0.049595
-0.060638   -0.038551    -0.29353    0.055968     0.66596     0.05142    -0.02361
-0.045372    -0.04115    -0.31854     0.04395     0.61041    0.055318   0.0033489
-0.025559   -0.035953    -0.34972    0.030957     0.51167     0.06084    0.026735
-0.0073698   -0.022636     -0.3403    0.018615     0.40091    0.062464    0.046223
0.0039985  -0.0076946    -0.19543   0.0052977     0.30704    0.058891    0.057917
0.009845   0.0010752     0.14756  -0.0083442     0.24241    0.053694    0.063438
0.011469  -0.0024977     0.63835   -0.020687     0.19823    0.051745    0.063763
0.010819   -0.016464      1.1441    -0.03238     0.15991    0.054344    0.059865
0.0065969   -0.034654       1.528   -0.043748     0.10631    0.056942    0.048822
0.0017248    -0.04862      1.6894   -0.053168    0.020564     0.05272    0.036479
-0.0021729   -0.056416      1.5998   -0.058365   -0.092794    0.042326    0.028684
-0.0080194    -0.05804      1.3104   -0.055441    -0.20323    0.029658    0.033231
-0.010943   -0.057065     0.92515    -0.04115    -0.26559    0.025111    0.046873
-0.007045   -0.054792     0.55422    -0.01614    -0.23051     0.03453    0.065387
0.003024   -0.047971     0.26969    0.020888   -0.058689    0.058241    0.083576
0.014068   -0.033679    0.090072    0.062139      0.2463    0.090072    0.095919
0.022512   -0.013541  -0.0050961    0.099492     0.61464     0.12093    0.095594
0.032257   0.0078962   -0.059014      0.1284     0.93879     0.13977    0.087149
0.040052     0.02641    -0.11033     0.14432      1.1158     0.14237    0.076755
0.041676     0.03583    -0.18147     0.14561      1.0811      0.1297    0.069934
0.036479    0.032582    -0.27014     0.13035     0.81602     0.10664    0.069934
0.025111    0.015042    -0.36044    0.096893      0.3759    0.080653    0.071234
0.012768   -0.014516    -0.45463    0.047198    -0.13599    0.053044    0.069285
0.003024   -0.048296    -0.59527   -0.013216     -0.5943    0.021213    0.060515
-0.0028225   -0.077853     -0.8064   -0.067784    -0.90546   -0.010943    0.050446
-0.0067202   -0.096367     -1.0471   -0.097991     -1.0286   -0.030756    0.045899
-0.010943   -0.095717     -1.2225   -0.094743    -0.98926   -0.034329    0.050121
-0.011592    -0.07428     -1.2462   -0.064211    -0.86584   -0.026533    0.056292
-0.0044465   -0.040175     -1.0968   -0.022636    -0.74598   -0.011592    0.060515
0.0095202   -0.008669    -0.82686    0.014717    -0.65861    0.003024    0.059216
0.022188    0.010819    -0.53031    0.039727    -0.57806   0.0078962    0.053369
0.027709    0.016666    -0.28638    0.053369    -0.46275 -0.00022403    0.045574
0.021538    0.015367    -0.12463    0.057592    -0.29677   -0.012242    0.041027
0.0062721    0.012768   -0.038876    0.059865    -0.09994   -0.016789    0.039727
-0.010943    0.013743  -0.0018481    0.064088    0.073832   -0.010943    0.041027
-0.021337     0.01894    0.020239     0.06961     0.16121   0.0017248    0.043625
-0.022636     0.02641    0.045899    0.074157      0.1258   0.0085458    0.047523
-0.01484    0.031282     0.07773    0.075781   -0.015165   0.0010752    0.050771
-0.0047713    0.036479     0.10664    0.072208    -0.19706   -0.018738    0.048497
0.0036737    0.042326     0.12678     0.06019    -0.35296   -0.042449    0.039402
0.0095202    0.046223     0.13749    0.041676    -0.43644   -0.058689    0.030633
0.011144    0.047198     0.13944    0.021863    -0.43027   -0.063886    0.026735
0.011469    0.045574     0.13652   0.0069217    -0.34355   -0.057715    0.031282
0.014068    0.042326      0.1362   0.0023744    -0.20128   -0.043423    0.038103
0.021213    0.036154     0.14204   0.0085458   -0.045697   -0.026533    0.040702
0.027709    0.031607     0.14724    0.020239    0.087799   -0.010943    0.036154
0.03453    0.031282     0.14172    0.032906     0.16738 -0.00087364    0.027385
0.040702    0.036479     0.11443    0.041351     0.14951  -0.0011985    0.020564
0.040052     0.04395    0.061814      0.0433   -0.019388   -0.012567    0.013743
0.029658    0.049472  -0.0076946    0.032257    -0.37408   -0.033679   0.0017248
0.012119    0.047847   -0.076229    0.008221    -0.89474   -0.063561   -0.013541
-0.0041217    0.038753    -0.12268   -0.021337     -1.4641    -0.10189   -0.029132
-0.014516    0.025111    -0.13534   -0.054142     -1.8971    -0.14801   -0.043423
-0.01614    0.012443    -0.11456   -0.084999     -2.0342    -0.19316   -0.054142
-0.013541   0.0039985   -0.072656    -0.11228     -1.8269    -0.22564   -0.062587
-0.0083442   0.0023744   -0.025559    -0.13177     -1.3504    -0.23376   -0.063561
0.0017248   0.0072465    0.014392    -0.13664    -0.76027    -0.21135   -0.057065
0.018615    0.017316    0.046223     -0.1217    -0.21362     -0.1675    -0.04862
0.038428    0.028034    0.072533    -0.09117     0.18589    -0.12073   -0.043748
0.05272    0.035505    0.092996    -0.05739     0.40579   -0.088572   -0.045372
0.059216    0.039078     0.10794   -0.029132     0.47335   -0.081426   -0.053168
0.057592    0.035505     0.11768   -0.011592     0.44249   -0.092145   -0.064211
0.049472    0.026085     0.12158  -0.0060706     0.37818    -0.10968   -0.071032
0.036804    0.010495     0.12093  -0.0096434      0.3327     -0.1243   -0.072006
0.022837  -0.0047713     0.11151    -0.01614     0.33075    -0.12885   -0.067134
0.0088706   -0.013216    0.093645   -0.020362      0.3824    -0.12495   -0.063237
-0.0067202   -0.020362    0.073507   -0.024585     0.47757    -0.11586   -0.063561
-0.020687    -0.03173    0.053694   -0.031081     0.58768    -0.10481   -0.066485
-0.028482   -0.046347    0.031607   -0.040825     0.68447   -0.088572   -0.067784
-0.030756   -0.061613     0.01829   -0.047321     0.75008   -0.068109   -0.064211
-0.029132   -0.073631     0.03453   -0.040825     0.78029   -0.040825    -0.05804
-0.022636   -0.073631     0.10371   -0.022961     0.77379   -0.013541   -0.049595
-0.011592   -0.059664     0.22389  -0.0024977     0.73611   0.0072465   -0.039201
-0.00054884   -0.029457     0.36583    0.013743      0.6783    0.021213   -0.026209
0.0088706    0.012443     0.49413    0.024786     0.61529    0.028359   -0.014191
0.014392    0.055318     0.58378    0.033231     0.56267     0.03583  -0.0024977
0.016666      0.0865     0.62438    0.044275     0.52791    0.045899   0.0052977
0.016991    0.096569     0.62016    0.058241     0.51719    0.064413   0.0075714
0.01829    0.083576     0.58475    0.071558     0.52856      0.0852   0.0062721
0.021863    0.054019     0.53214    0.082277     0.55487     0.10306   0.0049729
0.023162    0.022188     0.47594    0.091047     0.58703     0.11151   0.0075714
0.020564  -0.0018481     0.42008     0.10014     0.61431     0.11216    0.013418
0.013093    -0.01484     0.36778     0.10924      0.6299     0.10794    0.018615
0.0091954   -0.018088     0.31711     0.11411     0.63088     0.10534    0.021538
0.01017   -0.014516     0.25897     0.11151     0.62178     0.10469    0.026735
0.013743  -0.0089938     0.18784     0.10339     0.60782     0.10664    0.031282
0.014068  -0.0073698     0.10404    0.091696     0.58865     0.10696    0.036804
0.011144   -0.012242   0.0049729     0.07773     0.55877     0.10826    0.040052
0.0052977   -0.024585    -0.14249     0.06019     0.52109     0.11086    0.039402
-0.0024977   -0.043748    -0.41013    0.036479     0.48147     0.11378    0.033881
-0.008669   -0.064211    -0.87201    0.008221     0.44834     0.11411    0.030957
-0.010618   -0.078827     -1.5116   -0.019063      0.4243     0.11118    0.032582
-0.0057458   -0.082725     -2.1738   -0.043099     0.40189     0.10469    0.034206
0.0039985    -0.07428     -2.6292   -0.062262     0.36908    0.096893    0.033881
0.013418   -0.056741     -2.6893   -0.077528     0.31711    0.089748    0.028684
0.014392   -0.035303     -2.2852   -0.091495      0.2476    0.084226    0.024137
0.0095202   -0.018738     -1.4956    -0.10644     0.16738    0.082927     0.02706
0.0065969   -0.007045    -0.52576    -0.11456    0.084551    0.087474    0.037454
0.013093  0.00042559     0.36096    -0.10384   0.0059473    0.098193    0.050446
0.025436   0.0056225     0.95536   -0.068434   -0.071032     0.11508    0.062139
0.034206   0.0088706      1.2081   -0.010943    -0.15776     0.13555    0.071558
0.030633    0.010819      1.1714    0.058891    -0.27599     0.15016     0.06961
0.014392   0.0095202     0.95731      0.1219     -0.4686     0.14659    0.051096
-0.016464      0.0014     0.68967      0.1625    -0.76125     0.11703    0.021863
-0.052518   -0.011267     0.45678     0.16608     -1.1205    0.066686  -0.0083442
-0.0824   -0.025884     0.29925      0.1336      -1.455    0.012119   -0.032705
-0.098641   -0.039201     0.21317    0.079679     -1.6678   -0.028157   -0.046996
-0.10286   -0.045372      0.1755    0.024137     -1.7139   -0.048945   -0.053817
-0.098316   -0.043099     0.16315   -0.017114     -1.6213   -0.055116    -0.05804
-0.088572    -0.03238     0.16023   -0.038876     -1.4459   -0.053817   -0.054792
-0.076554   -0.018413     0.15471   -0.046671     -1.2241   -0.051544   -0.048296
-0.064861  -0.0083442     0.14139   -0.050569    -0.96783   -0.047321   -0.043099
-0.058689  -0.0044465     0.12255   -0.054792    -0.71513   -0.041475     -0.0405
-0.056091  -0.0057458     0.10047   -0.059664    -0.54135   -0.034978     -0.0405
-0.054792   -0.010618    0.082277   -0.058689    -0.52057   -0.035953   -0.039851
-0.050569   -0.013216    0.067986   -0.052843    -0.67745   -0.045047   -0.036602
-0.043423   -0.013866    0.057917   -0.046022     -0.9688   -0.057715   -0.032055
-0.034004   -0.013866    0.051096   -0.039201     -1.2858   -0.072981   -0.031081
-0.024585   -0.015165    0.045899   -0.033679     -1.5002   -0.089221   -0.033679
-0.019712    -0.01484    0.040702   -0.030106     -1.5288    -0.10579   -0.038876
-0.022961   -0.010943    0.038103   -0.028482     -1.3638    -0.12008   -0.041799
-0.030756  -0.0063954    0.038428   -0.032055     -1.0581    -0.13015   -0.037252
-0.035953 -0.00087364    0.040702   -0.038876    -0.69336    -0.13664   -0.027508
-0.035303      0.0014    0.041351   -0.046347    -0.35037    -0.13957   -0.019388
-0.03303      0.0014    0.038753   -0.052518   -0.087597    -0.13859   -0.020037
-0.031081      0.0014    0.040377   -0.054792    0.076431    -0.13697   -0.027183
-0.034004   0.0033489     0.06084   -0.051544     0.16153    -0.13762   -0.038876
-0.045047   0.0072465     0.10404   -0.047321     0.21447    -0.13697   -0.051868
-0.063561   0.0069217     0.16673   -0.046996      0.2895    -0.13664   -0.063886
-0.084024  -0.0011985     0.24371   -0.052843     0.41813    -0.14119   -0.070058
-0.097341   -0.013216     0.34342    -0.06616       0.588    -0.15061   -0.070707
-0.10091   -0.023935     0.47984   -0.081101     0.76242    -0.15905   -0.068758
-0.10319    -0.03173      0.6364   -0.096367     0.90534    -0.16003    -0.06681
-0.10806   -0.038227     0.75528    -0.11001     0.98362    -0.14736   -0.068109
-0.11553   -0.044398     0.78549    -0.11683     0.98297    -0.12138   -0.072006
-0.1178   -0.048945     0.71338    -0.11521      0.9258   -0.093769   -0.076554
-0.11326    -0.04992     0.56819    -0.10156     0.87286   -0.072656   -0.078503
-0.10254   -0.045372     0.39961   -0.077203     0.87838   -0.054142   -0.075904
-0.086623   -0.036927     0.24793   -0.047646     0.97517    -0.03303   -0.064861
-0.061613   -0.018738      0.1271   -0.014191      1.1681  -0.0063954   -0.044723
-0.029457   0.0069217    0.034855    0.019914      1.4107    0.022188   -0.017439
0.0014    0.032257   -0.039526     0.05207      1.6202    0.045899   0.0072465
0.023162    0.048497    -0.10384    0.075781      1.7157    0.061165    0.022837
0.029983    0.049796    -0.16035     0.08585      1.6592    0.064413    0.029009
0.025761    0.038753    -0.21232    0.084551      1.4588    0.059541    0.027385
0.016991    0.024786    -0.26397    0.075781      1.1483    0.050446    0.020239
0.011144     0.01764    -0.30684     0.06896     0.77152    0.042001    0.015367
0.013743    0.021538    -0.33315    0.070909     0.38142    0.032257    0.016016
0.021538    0.030957     -0.3416    0.081952     0.01894    0.022837    0.021538
0.030957    0.036804     -0.3416    0.096893    -0.30912    0.016341    0.029333
0.039727    0.038103    -0.33997     0.10794    -0.62418    0.011469     0.03518
0.049147    0.036804    -0.33185     0.11508    -0.91261   0.0033489    0.039402
0.054344     0.03583    -0.31529     0.11671     -1.1202   -0.013216    0.037129
0.056292    0.036479    -0.29028     0.11021     -1.1926   -0.039851    0.029658
0.061489    0.036804     -0.2526    0.097868     -1.0987   -0.072656    0.021213
0.073832    0.033881    -0.19186    0.080003    -0.84895   -0.098965    0.015042
0.092021    0.030957    -0.10189    0.061165    -0.51309    -0.10806    0.012768
0.10989    0.027385    0.015692    0.046223    -0.18991   -0.095068    0.015692
0.11833    0.026085     0.13977    0.038428    0.033881   -0.067459    0.022188
0.11606    0.029333     0.21967    0.032582     0.11378   -0.037252    0.029983
0.10404     0.03453     0.19109    0.022837    0.065387   -0.014191    0.030633
0.085525    0.036479    0.019589    0.010495   -0.057715  -0.0028225    0.023812
0.064088    0.030308    -0.22369  -0.0037969    -0.19511  -0.0018481    0.010495
0.042326    0.017965    -0.39714    -0.01614    -0.30879  -0.0060706  -0.0015233
0.023812   0.0049729    -0.40558   -0.027833     -0.3835   -0.013866  -0.0054209
0.014717  -0.0041217    -0.27728   -0.037902    -0.42507   -0.025559  -0.0015233
0.014068   -0.008669     -0.1191   -0.052193    -0.44554   -0.044073   0.0046481
0.016991   -0.010293   -0.021986   -0.073306    -0.44943   -0.069733    0.008221
0.01829   -0.012242  -0.0011985    -0.09929      -0.428   -0.096042   0.0056225
0.013093    -0.01614   0.0046481    -0.12365    -0.38057    -0.11845  -0.0015233
0.0020496   -0.018413    0.075131    -0.13729    -0.32048    -0.13404   -0.011267
-0.010293   -0.020037     0.23104    -0.13859    -0.27209    -0.13892   -0.018738
-0.019712   -0.022636      0.4204      -0.123    -0.25422     -0.1308   -0.020037
-0.02361   -0.026858     0.56169   -0.096367    -0.25292    -0.11228   -0.015165
-0.024585   -0.026858      0.5984   -0.065835    -0.23603   -0.084999  -0.0076946
-0.026209   -0.021337     0.52304   -0.035303    -0.17919   -0.058365   0.0017248
-0.026858  -0.0093186     0.37038  -0.0083442    -0.07428   -0.036278    0.015042
-0.022961   0.0049729     0.19336    0.012119    0.067986   -0.019063    0.027385
-0.011267    0.019589    0.030957    0.028684     0.21772  0.00010078    0.037454
0.0049729    0.024137    -0.09994    0.042651      0.3457    0.019589    0.044924
0.021538     0.01017    -0.19413    0.055318     0.43145    0.039402    0.050771
0.03453   -0.016789    -0.25325    0.066037     0.47302    0.057917    0.055318
0.041351   -0.045372    -0.28638    0.070259     0.48439    0.073507    0.059541
0.043625   -0.062912    -0.30067     0.06831     0.48276    0.084876    0.063763
0.0433   -0.061937    -0.30554    0.062139     0.47887    0.093645    0.067011
0.041676   -0.045372    -0.30294    0.056942     0.48147     0.10144    0.068635
0.041027   -0.020362    -0.29872    0.055643     0.48991     0.10404    0.067011
0.044924   0.0020496    -0.29775    0.056942     0.49186    0.098193    0.061814
0.054019    0.016991    -0.30165    0.059541     0.47075    0.089748    0.055968
0.063763    0.024461    -0.30554    0.063763     0.41683    0.081952    0.050771
0.067661    0.026735    -0.30717    0.072858     0.33238    0.076755    0.044275
0.062789     0.02706    -0.30262    0.083576     0.23136    0.072208    0.037129
0.050121     0.02706    -0.28638    0.089423     0.13749    0.068635    0.028684
0.034855    0.029658    -0.25715    0.084226    0.056292    0.062789    0.023812
0.022837    0.032257    -0.21752    0.067661    -0.04115    0.051096    0.021863
0.016016    0.034855     -0.1727    0.041676     -0.2133    0.033881    0.022188
0.015692    0.033881     -0.1321    0.012119    -0.51082    0.012443    0.021863
0.018615    0.030308    -0.10221   -0.010943    -0.91228  -0.0089938     0.01829
0.019914    0.032582   -0.086948   -0.024585     -1.3004   -0.024585    0.011794
0.01829    0.038103   -0.088572   -0.031081     -1.5418   -0.029782   0.0026992
0.013093      0.0433    -0.10221   -0.035953     -1.5629   -0.029132  -0.0067202
0.0065969      0.0433    -0.11618   -0.041475     -1.3751   -0.024585    -0.01614
0.00042559    0.038753    -0.12235    -0.04115     -1.0594   -0.017764   -0.021986
-0.0083442    0.032257    -0.11715   -0.035303    -0.72162  -0.0057458   -0.021986
-0.019388    0.024137   -0.098641   -0.021986    -0.44521    0.011794    -0.01614
-0.027833    0.015042   -0.070707  -0.0057458    -0.26689    0.031282  -0.0060706
-0.026533   0.0069217   -0.042124   0.0069217    -0.18439    0.049472    0.003024
-0.019063   0.0036737   -0.019063    0.013418     -0.1623    0.062789    0.003024
-0.012242   0.0026992   -0.008669    0.014717    -0.15938    0.065062  -0.0034721
-0.014516  0.00042559    -0.01484    0.014068    -0.14411    0.054344   -0.010943
-0.026858  -0.0054209   -0.030431    0.013418    -0.09994    0.033231   -0.014516
-0.04115   -0.013866   -0.048296    0.011144   -0.028482   0.0091954   -0.013866
-0.054792   -0.022961    -0.06551   0.0049729    0.057267   -0.013866   -0.012892
-0.066485   -0.028482   -0.076229  -0.0031473     0.14854   -0.030756   -0.016789
-0.079802   -0.027833    -0.08305   -0.011592     0.24728   -0.042449   -0.023285
-0.092794   -0.023935   -0.085973   -0.018088     0.35609   -0.047971    -0.03173
-0.10351   -0.018413   -0.084999   -0.022636     0.47627   -0.045047   -0.039851
-0.10709  -0.0076946    -0.08305   -0.022636     0.61236   -0.037252   -0.045047
-0.098641   0.0072465   -0.080776   -0.018738     0.75528   -0.030431   -0.046347
-0.076554    0.019914   -0.077203   -0.012242     0.89852   -0.027833   -0.047321
-0.04927    0.027385   -0.068758  -0.0057458      1.0353   -0.028482   -0.045047
-0.025884    0.031282   -0.057715 -0.00087364      1.1626   -0.029132   -0.038876
-0.011592    0.032582   -0.046347  -0.0031473      1.2701   -0.026533   -0.028807
-0.007045    0.031607   -0.041475   -0.014191      1.3425   -0.021661   -0.020687
-0.012242    0.029658   -0.044073   -0.032705      1.3695   -0.019712   -0.018738
-0.021337    0.026085   -0.052193    -0.04862      1.3526   -0.020687   -0.017764
-0.026858    0.019589   -0.062587   -0.051544      1.3055   -0.020362   -0.014516
-0.028482    0.013418   -0.072006   -0.044073       1.249   -0.014191  -0.0099683
-0.028807    0.012119   -0.076554   -0.028807      1.1886  -0.0054209  -0.0076946
-0.028482    0.013743   -0.077528  -0.0076946      1.1174   0.0020496   -0.008669
-0.025559    0.015042   -0.077528    0.022837      1.0297   0.0039985   -0.011917
-0.020362   0.0095202   -0.073631    0.058566     0.94269   0.0033489   -0.014191
-0.01614 -0.00087364   -0.062262    0.093645     0.88098   0.0049729   -0.014191
-0.011592  -0.0089938   -0.047646     0.12288     0.84525    0.012443   -0.015165
-0.007045   -0.014191   -0.035628     0.13912     0.78029    0.019264   -0.016464
-0.0031473    -0.01484   -0.027833     0.13879     0.60035     0.01894   -0.018738
-0.0031473   -0.014516   -0.017764      0.1206     0.22162   0.0059473   -0.023935
-0.0063954   -0.016789  -0.0076946    0.089098    -0.39064   -0.017764   -0.028807
-0.010943   -0.021337   0.0023744    0.048172     -1.1448   -0.046022   -0.034654
-0.015815   -0.024909   0.0095202   0.0036737     -1.8653   -0.070382   -0.040825
-0.021661   -0.026858    0.016991   -0.041799      -2.382   -0.090196   -0.048945
-0.026858   -0.026858    0.028034   -0.085324     -2.5873    -0.10838   -0.055441
-0.030106   -0.027833     0.05207    -0.12138       -2.46    -0.12365   -0.059014
-0.028482   -0.030106    0.090397    -0.13989     -2.0712     -0.1334   -0.057065
-0.024909    -0.03238     0.13035    -0.13697     -1.5538    -0.13047    -0.04927
-0.025559   -0.036278     0.15503    -0.11423     -1.0451    -0.11033   -0.039526
-0.03238   -0.044073     0.15373   -0.081101    -0.63717   -0.077528   -0.029457
-0.043423   -0.052518      0.1271   -0.047321    -0.35459   -0.040175    -0.02361
-0.053817   -0.062587    0.082927   -0.019063    -0.16847  -0.0060706   -0.022961
-0.059014   -0.067784    0.033881    0.003024    -0.03303    0.015692   -0.027508
-0.055766   -0.067784   -0.011917    0.018615     0.07708     0.01764   -0.032705
-0.046671   -0.064536   -0.045697    0.024461     0.16153    0.003024    -0.03173
-0.032055   -0.058689   -0.062912     0.01764     0.20993   -0.022961   -0.025234
-0.0067202   -0.052843   -0.064861   0.0020496     0.22097   -0.051868   -0.015165
0.024786   -0.046671   -0.056416   -0.014191     0.19856   -0.076879  -0.0093186
0.045899     -0.0405     -0.0405   -0.025234     0.15763   -0.093769   -0.013216
0.046223   -0.035628   -0.014191   -0.025559     0.12418    -0.10384   -0.025559
0.028034   -0.032705    0.027709   -0.017439     0.12613    -0.10546   -0.040175
-0.0024977   -0.033354    0.086175  -0.0063954     0.16608   -0.094418   -0.051219
-0.029457   -0.036602     0.15471 -0.00022403     0.22552   -0.070707   -0.057065
-0.045372   -0.041475     0.22812 -0.00087364     0.27521    -0.04115   -0.053492
-0.046671   -0.046022     0.30639   -0.010943     0.29275   -0.019388   -0.035628
-0.038876   -0.046996     0.38402    -0.02426     0.27067   -0.011592   -0.008669
-0.026533   -0.040175     0.44996   -0.036927     0.20765   -0.018413    0.020239
-0.010943   -0.025234     0.48829   -0.045047     0.10826   -0.030106    0.043625
0.0062721  -0.0015233     0.48959   -0.046022   -0.027833   -0.039526     0.06084
0.021863    0.026735     0.45905   -0.041475    -0.20778   -0.042449    0.074157
0.037129    0.057592     0.41683   -0.033679    -0.44651   -0.036927    0.082277
0.052395    0.084551     0.37428   -0.026533    -0.74988   -0.031081    0.081627
0.061814     0.10144     0.33823   -0.022311     -1.0789    -0.03173    0.068635
0.054019     0.10404     0.30607   -0.025234     -1.3563   -0.042449    0.045574
0.031282    0.091047     0.27261    -0.03238     -1.4943   -0.059014    0.019264
0.0020496     0.06961     0.23169   -0.036927     -1.4443   -0.072331  -0.0041217
-0.020037    0.046873     0.18427   -0.036927     -1.2257    -0.07493   -0.018738
-0.032055    0.029333     0.12905    -0.03303    -0.91131   -0.063237   -0.025884
-0.03238    0.017965     0.06896   -0.025884    -0.58228   -0.037902   -0.027508
-0.02361    0.014717    0.015042   -0.012892    -0.27858  -0.0089938   -0.025234
-0.013866    0.014717   -0.026209   0.0062721   -0.010943    0.014392   -0.022961
-0.0073698     0.01894   -0.047646    0.029983     0.22357    0.028034   -0.021337
-0.0057458    0.024461   -0.052843     0.05207     0.42073    0.033556   -0.022311
-0.0096434    0.029983   -0.049595     0.06961     0.57274     0.03453   -0.023285
-0.019063    0.031607   -0.048945    0.074157     0.66401     0.03583   -0.022311
-0.034004    0.029333   -0.058689    0.064088     0.69227    0.042001   -0.018413
-0.048296    0.026085   -0.080776    0.046873     0.66791    0.050446   -0.014516
-0.054467    0.023162    -0.11391     0.02706     0.60782    0.056292   -0.010618
-0.047971    0.019914    -0.15516    0.011794     0.53538    0.058891  -0.0034721
-0.029132    0.016991    -0.19446   0.0033489     0.46847    0.058566   0.0059473
-0.0076946    0.011469    -0.22629   0.0023744     0.41358    0.053044    0.013743
0.0039985  0.00042559    -0.24286    0.008221     0.36551    0.040052    0.014068
0.0014   -0.013866    -0.23896    0.017965     0.32004    0.021863   0.0056225
-0.011917   -0.029457     -0.2081     0.02706     0.28366   0.0026992  -0.0076946
-0.025884   -0.044073    -0.14346    0.030633     0.26514   -0.010293   -0.018413
-0.032055   -0.056741   -0.054467    0.025761     0.26872   -0.012892   -0.020362
-0.030756   -0.065835    0.033881    0.014717     0.28788  -0.0044465   -0.010943
-0.023285   -0.069408    0.097868 -0.00022403     0.31159    0.008221   0.0010752
-0.01614   -0.063561     0.12418   -0.017114      0.3327    0.018615   0.0085458
-0.011267   -0.050244     0.11086   -0.034004     0.34212    0.022837   0.0091954
-0.0096434   -0.035953    0.067661   -0.043748      0.3444    0.024137   0.0023744
-0.0096434   -0.021337    0.011144   -0.043423     0.34829    0.025436   -0.007045
-0.0067202  -0.0099683    -0.04115   -0.036278     0.35966    0.028034   -0.012242
-0.0011985  -0.0011985   -0.081426   -0.021337     0.37428    0.028359  -0.0093186
0.0026992   0.0056225    -0.10903   0.0020496      0.3798    0.023812   0.0023744
0.0020496   0.0088706    -0.12463    0.030633     0.36713    0.015367    0.016991
-0.0031473    0.008221    -0.12852    0.058891     0.33465     0.01017    0.028684
-0.0067202   0.0078962     -0.1217    0.082277     0.29697    0.014068     0.03518
-0.0057458    0.010819    -0.10676    0.097218     0.27067    0.029983    0.040052
0.0023744    0.016016   -0.085973     0.10339     0.26774    0.057917      0.0433
0.015042    0.025436   -0.062262     0.10144     0.28463    0.090397    0.045574
0.025436     0.03583   -0.041475    0.093321     0.29795     0.11606    0.046873
0.031932    0.040052   -0.028482    0.080653     0.26612      0.1284    0.048822
0.030957    0.038103   -0.024909    0.066362     0.14789     0.12223    0.046548
0.021538    0.032257   -0.033679    0.055968   -0.071357     0.10112    0.037454
0.0085458    0.026085   -0.047646    0.049796    -0.35524    0.071234     0.02641
0.00042559    0.019589   -0.059664    0.047523    -0.63068    0.038428     0.01764
0.0020496    0.015692    -0.06616    0.049472    -0.82491    0.011144    0.014392
0.011469    0.016991   -0.068758    0.055318    -0.89474  -0.0044465    0.013743
0.028034    0.020888   -0.070058    0.063438    -0.84342   -0.007045    0.015042
0.049472    0.021213   -0.071682    0.067336    -0.71025   0.0010752    0.016666
0.067986    0.016991   -0.075904    0.063113    -0.55012    0.011144    0.018615
0.073832   0.0072465   -0.088572    0.050446    -0.38837     0.01764     0.01894
0.065712  -0.0037969    -0.11358    0.032582    -0.21817    0.016666    0.016341
0.046223   -0.011267    -0.15321    0.014068   -0.015815   0.0056225    0.012443
0.02641   -0.012567    -0.20615   0.0010752     0.23656   -0.010293   0.0072465
0.014392  -0.0076946    -0.26267  -0.0037969     0.53019   -0.018088   0.0056225
0.013743   0.0010752    -0.29482  -0.0028225     0.83096   -0.010943    0.012119
0.021538    0.015042    -0.28281   0.0010752      1.0866   0.0091954    0.029009
0.036154    0.032582    -0.22564   0.0056225      1.2493    0.031932    0.049472
0.054668    0.048822    -0.14411   0.0088706      1.2841    0.044599    0.068635
0.075131    0.061165   -0.060638    0.008221      1.1795    0.041027    0.076431
0.095269    0.065062   0.0017248   0.0049729     0.96445    0.017965    0.071234
0.11183    0.064088     0.02641  0.00042559     0.69909   -0.022961    0.057592
0.11801     0.06084   0.0078962   -0.008669     0.44184   -0.074605    0.040377
0.10859    0.057592   -0.044398   -0.022311     0.21902    -0.12722    0.021863
0.084876    0.058566    -0.11715   -0.036927     0.01829    -0.16718   0.0059473
0.053694    0.062789    -0.17952   -0.049595    -0.19283    -0.18536  -0.0067202
0.01829    0.064737    -0.16945   -0.059664    -0.44229    -0.18114   -0.015165
-0.011267     0.06084   -0.013866   -0.067459    -0.72942    -0.16328   -0.017439
-0.027183    0.050121     0.27684   -0.076229     -1.0286    -0.14152   -0.016464
-0.03173    0.033231      0.5997   -0.087597     -1.3085    -0.13112   -0.018738
-0.031081    0.011794      0.8446    -0.10221     -1.5512    -0.14379   -0.027508
-0.031406  -0.0073698     0.93912    -0.12073      -1.734    -0.17854   -0.042449
-0.034654   -0.022961     0.87838    -0.13989     -1.8217    -0.22174   -0.060963
-0.040175   -0.037577      0.7137    -0.15223     -1.7854     -0.2526   -0.074605
-0.046671   -0.059339     0.48082    -0.15711     -1.6223     -0.2591   -0.079477
-0.051219   -0.084674     0.16965    -0.15353     -1.3608    -0.24318   -0.077203
-0.046347    -0.10903    -0.21687    -0.14249     -1.0513     -0.2107   -0.071682
-0.029132    -0.11813    -0.61476    -0.12398    -0.74046     -0.1701   -0.063886
-0.0054209    -0.10286    -0.92235   -0.096367    -0.45885    -0.12852   -0.050894
0.021538   -0.061288     -1.0562   -0.054142    -0.21232   -0.084999    -0.03238
0.044924  -0.0054209     -1.0029  -0.0037969   0.0023744     -0.0405   -0.012242
0.06084    0.049147    -0.81452      0.0433     0.19693 -0.00054884   0.0049729
0.067011    0.084876    -0.58293    0.077405     0.37103     0.02706    0.012768
0.064413    0.088124    -0.39616    0.089748     0.51492    0.029658   0.0072465
0.05207    0.049147    -0.30359    0.076106     0.61236   0.0075714  -0.0099683
0.032582   -0.035303    -0.29905    0.041027     0.65426   -0.029457   -0.030431
0.0095202    -0.14704    -0.31789  0.00010078     0.64809   -0.064211   -0.051219
-0.01549     -0.2526    -0.26169   -0.028807     0.60489   -0.081101   -0.064861
-0.039526    -0.32048   -0.067134    -0.03238     0.54805    -0.07493   -0.067459
-0.051868     -0.3312     0.23364   -0.008669      0.5029   -0.052518   -0.060963
-0.049595    -0.29255     0.54058    0.028359     0.47464   -0.022636    -0.04927
-0.035953    -0.22434     0.74651    0.054993     0.45223    0.003024   -0.037902
-0.016464    -0.14541     0.79263    0.057267     0.41326    0.016016    -0.03173
-0.00054884   -0.071682     0.68934    0.033556     0.34894     0.01829    -0.03173
0.0078962    -0.01614     0.49088  -0.0031473     0.26807    0.013093    -0.03303
0.0062721    0.016341     0.27132   -0.034654     0.19206   0.0065969   -0.031406
-0.0031473    0.031932    0.088448   -0.047646     0.14496   0.0046481   -0.025234
-0.013866    0.037778   -0.030756    -0.04115     0.13295    0.012443    -0.01484
-0.023285    0.039402   -0.090845   -0.018738     0.14237    0.025761  -0.0018481
-0.03238    0.037778    -0.10968    0.011144     0.14334    0.039078   0.0091954
-0.043423    0.029333    -0.10449     0.03518     0.10664    0.049472     0.01017
-0.055766     0.01764   -0.090196    0.049796    0.015042    0.053044 -0.00054884
-0.065186   0.0056225   -0.073955    0.058891     -0.1217    0.046873   -0.016464
-0.069733 -0.00022403   -0.054142    0.067011    -0.25812    0.033881   -0.027833
-0.072981   0.0023744   -0.014516    0.076106     -0.3403    0.020239   -0.029132
-0.07493    0.014392    0.061165    0.082602    -0.33543    0.012443    -0.02361
-0.075255    0.028359     0.17322    0.081303    -0.24286   0.0085458    -0.01484
-0.067784    0.043625     0.30769    0.073832   -0.097991    0.010495  -0.0089938
-0.053168    0.055318     0.43632    0.063438    0.054019     0.01829  -0.0057458
-0.035628    0.062789     0.53311    0.053694     0.16803    0.033231  -0.0018481
-0.022961    0.066362     0.58216     0.05272     0.22389    0.049472    0.003024
-0.019712    0.070909     0.58475    0.061814     0.22065    0.062464   0.0078962
-0.022636    0.077405     0.55585    0.076755      0.1755     0.06896    0.011144
-0.027508    0.079679     0.51167    0.088448     0.11118    0.067011   0.0095202
-0.028807    0.072533     0.46555    0.091047    0.049472    0.061165   0.0059473
-0.024909    0.059865     0.43307    0.083901   0.0043233    0.055968 -0.00022403
-0.018088    0.051096     0.43047    0.067661   -0.022311    0.054019  -0.0083442
-0.013216    0.048497     0.45093    0.045574   -0.035628    0.054019   -0.012892
-0.012892    0.047523     0.45938    0.023812   -0.045697    0.050771   -0.011267
-0.01614    0.047198     0.43177   0.0075714   -0.063886    0.046223  -0.0076946
-0.020362    0.046223     0.36778  -0.0031473   -0.093769    0.045249  -0.0050961
-0.024909    0.045574     0.26709   -0.012242    -0.13404    0.047847  0.00042559
-0.031081    0.044924    0.096244   -0.020687    -0.19316    0.049796   0.0078962
-0.038876    0.037778     -0.2159   -0.030756    -0.27501    0.049147    0.011794
-0.040825    0.022837    -0.72942   -0.044073    -0.36206    0.042326   0.0072465
-0.037252   0.0052977     -1.4037   -0.060638     -0.4267    0.028034  -0.0047713
-0.026533  -0.0093186     -2.0839   -0.073306    -0.44456     0.01017   -0.017764
-0.011917   -0.013866     -2.5724   -0.079152    -0.40818   -0.007045   -0.024585
0.0020496  -0.0060706     -2.7319   -0.076229     -0.3299    -0.01614   -0.023285
0.015367    0.008221     -2.5276   -0.064536    -0.22597   -0.015815   -0.017114
0.025436    0.028034     -2.0384   -0.044398     -0.1178  -0.0089938  -0.0083442
0.031607    0.048172     -1.4154   -0.015165   -0.022311 -0.00054884   0.0026992
0.032582    0.066037    -0.81094    0.017316    0.053044   0.0026992    0.016666
0.030308    0.076755     -0.3377    0.044275     0.10599   0.0020496    0.029658
0.024461    0.079029   -0.037577    0.059216     0.13132 -0.00022403     0.03583
0.012768    0.075131     0.11054    0.058891      0.1258  0.00042559    0.035505
-0.0024977    0.067336     0.16283    0.048822    0.094295  0.00010078    0.030308
-0.020037    0.056292      0.1729    0.036154    0.059541  -0.0024977    0.023487
-0.033354    0.049147     0.17582    0.027385    0.049147  -0.0044465    0.019589
-0.040825    0.046873     0.18492    0.021213    0.081627  -0.0028225    0.019264
-0.044723    0.047847     0.19856    0.012768     0.15991      0.0014    0.019589
-0.046022    0.050771      0.2109   0.0026992     0.27002   0.0046481    0.020888
-0.041475    0.053369     0.21935  -0.0089938     0.38337   0.0033489    0.020239
-0.036927    0.057267     0.22162   -0.021661     0.46782 -0.00022403    0.018615
-0.029132    0.063113     0.23396   -0.030431     0.49316   0.0017248    0.017965
-0.023935    0.068635     0.28041   -0.034004     0.43339   0.0052977    0.017316
-0.023935     0.06831     0.37428   -0.030431     0.29308    0.003024    0.016016
-0.027508    0.062139     0.50907   -0.015165     0.11638  -0.0093186    0.016016
-0.030431    0.053044     0.64939    0.010819   -0.026858   -0.026533    0.019264
-0.030431    0.044275     0.75235    0.038753   -0.074605     -0.0405    0.024137
-0.028157    0.035505     0.78581     0.06019   0.0010752   -0.046671    0.026085
-0.026533    0.029333     0.74488    0.071558     0.17939   -0.046996    0.021538
-0.027833    0.022188     0.64809    0.077405     0.40091   -0.042774    0.010495
-0.028482    0.012443     0.53019    0.076106     0.60359   -0.039526  -0.0018481
-0.026209  0.00010078     0.42138    0.064413     0.75138   -0.038551   -0.008669
-0.019712   -0.012892     0.34082    0.042001     0.83583   -0.042124  -0.0093186
-0.013541   -0.024585     0.29405   0.0078962     0.85889   -0.046996  -0.0050961
-0.010618   -0.036278     0.27619   -0.032055      0.8381   -0.049595 -0.00022403
-0.0096434   -0.047971     0.26969   -0.071357     0.79068   -0.051544  -0.0021729
-0.011267   -0.060638     0.25865   -0.097666      0.7228   -0.051219   -0.011267
-0.01614   -0.073631     0.23364    -0.11001     0.63607   -0.047321   -0.023285
-0.024585   -0.084674     0.19434    -0.10903     0.52824   -0.038227   -0.035303
-0.03173    -0.09117     0.14691   -0.097017     0.40449   -0.029132   -0.043423
-0.032055   -0.093444    0.099492   -0.078178     0.27554   -0.027183   -0.048296
-0.026858   -0.090521    0.052395   -0.060963     0.15049    -0.03238   -0.050244
-0.020037   -0.085324   0.0036737    -0.04862    0.023487   -0.045047   -0.052193
-0.015815   -0.077203   -0.044723   -0.044073    -0.15483   -0.064536   -0.054792
-0.017114   -0.067134   -0.088572   -0.045372    -0.46665   -0.088896   -0.057715
-0.021986   -0.056091    -0.12333   -0.050894    -0.96328    -0.12203   -0.061613
-0.027508   -0.045697    -0.13859   -0.055766     -1.5963      -0.161   -0.063886
-0.028807   -0.038551    -0.12138   -0.058689     -2.2083    -0.19608   -0.064861
-0.028807   -0.035303   -0.062912   -0.054142     -2.6162     -0.2133   -0.064211
-0.029457   -0.033354    0.030633   -0.046022      -2.701    -0.20128   -0.060313
-0.030756    -0.03173     0.13717   -0.035303     -2.4639    -0.16133   -0.051544
-0.03173    -0.03173     0.22714   -0.028157     -2.0043    -0.10709   -0.036927
-0.029782    -0.03238     0.27424   -0.027183     -1.4599   -0.055116   -0.017764
-0.02361   -0.037577     0.26807    -0.03303    -0.95646   -0.018413   0.0020496
-0.017114   -0.045697     0.23494   -0.041799    -0.57383  -0.0018481     0.01764
-0.011917    -0.05739     0.23818   -0.051544    -0.33023  -0.0037969    0.026085
-0.013216   -0.070058     0.32848   -0.059664    -0.19836   -0.016464    0.023162
-0.020362   -0.079152     0.49706   -0.064861    -0.12203   -0.033354    0.013743
-0.026533   -0.082076      0.6796   -0.060963   -0.036927   -0.046347   0.0023744
-0.02426   -0.076554     0.79718   -0.047646     0.10729   -0.053168  -0.0047713
-0.013216    -0.06616     0.80173   -0.030106     0.33075   -0.050894  -0.0050961
0.003024   -0.056091     0.69292    -0.01549     0.60814    -0.04115   0.0010752
0.01894   -0.046996      0.5146  -0.0037969     0.87935    -0.02361    0.013743
0.031282   -0.040175     0.32816   0.0059473       1.084  -0.0015233    0.028034
0.038428   -0.031081     0.17972    0.015692      1.1873    0.021213    0.038753
0.039727   -0.018738    0.087474    0.028359      1.1895     0.03518    0.042001
0.03453  -0.0060706    0.042326    0.044599      1.1139    0.039078    0.039402
0.02641   0.0075714    0.022512    0.058566     0.99564    0.037129     0.03583
0.023812    0.016016   0.0072465    0.064737     0.86734    0.033881    0.033881
0.030957    0.019589   -0.014516    0.067011     0.74878    0.034206    0.036479
0.0433    0.017965   -0.046347    0.069285     0.64354     0.03453    0.042975
0.053369    0.014392   -0.082725    0.072858     0.54448    0.033556    0.051745
0.058566    0.010819    -0.11261    0.078704     0.44476    0.031932    0.058241
0.059865    0.013093    -0.12625    0.087799      0.3457    0.034206    0.062139
0.059541    0.017965    -0.12333    0.097868     0.24468    0.041027    0.060515
0.054993    0.024786    -0.11683     0.10112      0.1362    0.050446    0.054668
0.048497    0.030633    -0.11943    0.096244   0.0036737    0.058566    0.045249
0.041676    0.031932    -0.13502    0.081303     -0.1701    0.061814    0.031607
0.03453    0.026735    -0.15873    0.056617    -0.39974    0.057267    0.019589
0.025761    0.016016    -0.18179    0.027709    -0.66413    0.047847    0.010495
0.016666   0.0056225    -0.20355  -0.0015233    -0.90676    0.041676   0.0091954
0.008221 -0.00087364    -0.22337   -0.023285     -1.0653    0.042001    0.016991
0.0026992  -0.0028225    -0.23961   -0.031081      -1.102    0.046873    0.026735
-0.0024977  -0.0031473    -0.24903   -0.024585     -1.0055    0.048497    0.030633
-0.0063954  -0.0018481    -0.25098  -0.0060706    -0.79145    0.042651    0.028359
-0.0083442   0.0023744    -0.24448    0.016341    -0.50757    0.031282    0.024786
-0.0096434   0.0091954    -0.23409    0.035505    -0.22661    0.020239    0.025436
-0.0080194    0.016016    -0.22434    0.047847   -0.016789     0.01017    0.029009
-0.0047713    0.020564    -0.22044    0.049147    0.098842  -0.0031473    0.029983
-0.0021729    0.017965    -0.22532    0.038103     0.15146   -0.021661    0.024786
-0.00022403    0.011144    -0.23344    0.022512     0.19661   -0.037577    0.013743
0.0017248   0.0036737    -0.24026    0.010819     0.26774   -0.041475  0.00075039
0.0039985  -0.0015233    -0.23961   0.0056225     0.34602   -0.032055   -0.007045
0.0069217  -0.0018481    -0.22921   0.0017248      0.3759   -0.021661   -0.008669
0.011794   0.0020496    -0.21914  -0.0044465     0.31874   -0.021661  -0.0083442
0.016991    0.010495     -0.2159   -0.014191     0.20376   -0.036927   -0.010618
0.018615    0.021538    -0.22077   -0.022636     0.11346   -0.058365   -0.016789
0.013743    0.031932    -0.22661    -0.02361     0.12125   -0.070707   -0.023285
0.0046481    0.036154    -0.22759   -0.019063     0.24598   -0.069408   -0.029132
-0.0063954    0.033556    -0.22239   -0.011917     0.44606    -0.05804   -0.030431
-0.017439    0.024461    -0.21135   -0.011267     0.65102   -0.043748   -0.030106
-0.026209    0.011144    -0.19933   -0.018738      0.7962   -0.037252   -0.034004
-0.030756  -0.0024977    -0.19121    -0.03173     0.85987   -0.042124   -0.042124
-0.031081   -0.016464    -0.19056   -0.046671     0.85207   -0.054142    -0.04862
-0.030756   -0.031081    -0.19738    -0.05739     0.79133   -0.064211   -0.050894
-0.030106   -0.039851     -0.2094   -0.060638     0.69551    -0.06551   -0.046671
-0.029132   -0.039201    -0.21882   -0.052843     0.57404   -0.056091   -0.039851
-0.026858   -0.030106    -0.21785   -0.034329     0.43502   -0.043099    -0.03173
-0.02361   -0.020687    -0.20518   -0.010293     0.29925   -0.028807   -0.027833
-0.018088   -0.011917    -0.18894    0.015367     0.18719   -0.011592   -0.027183
-0.0073698  -0.0044465    -0.17075    0.035505     0.11378   0.0095202   -0.026533
0.0088706   0.0010752    -0.14736    0.055318    0.083901    0.033881   -0.022961
0.028359   0.0072465    -0.12105    0.072208    0.091047    0.059865   -0.018088
0.046548    0.014068   -0.098316    0.082927     0.12385    0.082927   -0.011592
0.055968     0.01829   -0.084674    0.079354      0.1638    0.097868  -0.0047713
0.054668     0.01764   -0.080776     0.06084     0.18037     0.10144 -0.00087364
0.044924    0.012443   -0.083375    0.033231     0.13977    0.087149  -0.0018481
0.029658   0.0020496    -0.09182  -0.0024977    0.023162    0.054019  -0.0089938
0.015042  -0.0099683    -0.10156   -0.039526    -0.16035   0.0085458   -0.017439
0.0046481   -0.019388    -0.10774   -0.070058    -0.36433   -0.034654   -0.025559
-0.0018481   -0.022961    -0.10936   -0.084349    -0.50173   -0.063237    -0.03303
-0.0031473   -0.019712    -0.10774   -0.075904    -0.47899   -0.068434    -0.03238
-0.00022403   -0.010943    -0.10351   -0.047321    -0.25422   -0.057715   -0.025559
0.0026992  0.00010078   -0.096042   -0.010943     0.12743   -0.043423   -0.012567
0.0056225   0.0091954   -0.086298    0.019589     0.54448   -0.029132 -0.00054884
0.0075714    0.011469   -0.074605    0.034206     0.84687   -0.015815   0.0046481
0.0056225   0.0078962   -0.061613    0.031932     0.91638  -0.0028225   0.0039985
0.0046481   0.0023744   -0.050244    0.015692     0.70201   0.0072465  -0.0018481
0.0091954  -0.0018481   -0.045047   -0.007045     0.23721    0.011794  -0.0060706
0.017316  -0.0047713   -0.047321   -0.028157    -0.36856   0.0059473  -0.0073698
0.025111  -0.0076946   -0.050569   -0.041475    -0.94801   -0.013541  -0.0047713
0.028034   -0.010618   -0.050894   -0.044073     -1.3563     -0.0405 -0.00054884
0.020888   -0.015165   -0.043748   -0.034978     -1.5193   -0.064536   0.0036737
0.0065969   -0.019388   -0.032055   -0.021661     -1.4466   -0.079477   0.0062721
-0.0063954   -0.023935   -0.020362   -0.012242     -1.2079   -0.075904   0.0049729
-0.018088   -0.026533   -0.012242  -0.0099683    -0.90124   -0.056741  0.00042559
-0.028807   -0.025559   -0.010618   -0.015815    -0.61119   -0.033354  -0.0031473
-0.038227   -0.026209   -0.014516   -0.029132    -0.38642   -0.014516  -0.0060706
-0.046347   -0.025559   -0.018088   -0.046671    -0.23993  -0.0050961  -0.0093186
-0.050569   -0.020362    -0.01549   -0.065835    -0.16295  -0.0015233   -0.010618
-0.050894  -0.0096434  -0.0011985   -0.081101    -0.13599 -0.00054884  -0.0083442
-0.049595    0.003024    0.020564   -0.086298    -0.13145  -0.0037969  -0.0021729
-0.046347    0.011469    0.040702   -0.078178    -0.10968   -0.010293   0.0036737
-0.036278    0.015367     0.05207   -0.057715   -0.034004   -0.020037   0.0078962
-0.016789    0.017965    0.056292   -0.025884     0.11508   -0.025559   0.0072465
0.0069217    0.022188    0.055968    0.013418     0.32069   -0.020687   0.0043233
0.025111    0.025111    0.053694    0.049472     0.52077   -0.011267  0.00010078
0.027385    0.023812    0.048822    0.073507      0.6377  -0.0063954  -0.0054209
0.011144    0.016341    0.040702    0.086175     0.62113  -0.0080194   -0.010943
-0.017764   0.0069217    0.030633    0.092346     0.48406  -0.0093186   -0.018088
-0.045697   0.0017248     0.01829    0.098517      0.2908  -0.0041217   -0.024909
-0.055441   0.0062721   0.0036737     0.10469     0.10566    0.011144   -0.027833
-0.043099    0.016666   -0.011917     0.11054   -0.034004    0.030633   -0.024585
-0.016789    0.027385   -0.029782     0.11183    -0.12625    0.042975   -0.017114
0.012119    0.036479   -0.044723     0.10339    -0.18699    0.042326  -0.0083442
0.033231    0.042651   -0.055116    0.084876    -0.23376    0.030957 -0.00022403
0.041027    0.042975   -0.057065    0.061814    -0.27566    0.019264   0.0085458
0.036479    0.039078    -0.04862    0.044275    -0.31594   0.0095202    0.021213
0.02641    0.033231   -0.034654    0.036154    -0.35751   0.0046481     0.03518
0.020239     0.02706   -0.023935    0.038103     -0.4137   0.0036737    0.044275
0.01894    0.021863   -0.015815    0.040377    -0.49263   0.0088706    0.040702
0.019589    0.017316   -0.008669    0.039078    -0.59462    0.015042    0.029009
0.01764    0.012443  -0.0024977    0.029658    -0.69596    0.016666    0.016991
0.013743   0.0075714   0.0046481    0.016016    -0.75962    0.014392    0.011794
0.0091954    0.003024    0.019914  -0.0018481    -0.75378   0.0075714     0.01017
0.0043233   0.0017248    0.055318   -0.022311     -0.6729   0.0020496   0.0091954
0.0026992   0.0039985     0.13457     -0.0405    -0.53973  -0.0047713   0.0075714
0.0085458   0.0085458     0.27359    -0.04862    -0.38739  -0.0083442   0.0056225
0.019589    0.013093     0.45223   -0.041799    -0.23766   -0.007045   0.0049729
0.029009    0.012768     0.61431   -0.019388    -0.10644  -0.0031473    0.009845
0.033231   0.0078962     0.70461    0.016016 -0.00087364   0.0033489    0.021863
0.031282   0.0036737     0.70169    0.060515    0.081303    0.016666    0.033556
0.022837   0.0020496     0.61724     0.10404     0.14756    0.031607    0.041351
0.01017      0.0014     0.48049      0.1336     0.19986    0.040377    0.040052
-0.0080194 -0.00087364     0.32556     0.13977     0.23754    0.038103    0.027385
-0.030106  -0.0031473     0.18362     0.11736      0.2619    0.022837   0.0065969
-0.049595  -0.0063954    0.072533    0.075456     0.27944  -0.0018481   -0.016464
-0.061288   -0.012567 -0.00054884    0.024786     0.30022   -0.029132   -0.038227
-0.061613   -0.020687   -0.039851   -0.021661      0.3314    -0.04862   -0.050569
-0.054792   -0.027508   -0.055766   -0.053817     0.37265   -0.051868   -0.054467
-0.047646   -0.030756    -0.05804   -0.067134     0.41683   -0.039201   -0.048296
-0.045047   -0.029132   -0.053492   -0.061937     0.45158   -0.022636    -0.03303
-0.046022   -0.022636   -0.051219   -0.046347     0.46782   -0.014191   -0.015165
-0.048945    -0.01484   -0.054792   -0.029782      0.4597   -0.018738      0.0014
-0.051219  -0.0073698   -0.062262   -0.016789     0.42105   -0.034978    0.008221
-0.048296  -0.0015233   -0.073631   -0.013541     0.34829   -0.056091  0.00010078
-0.04115   0.0017248   -0.092145   -0.020687      0.2463   -0.076879   -0.018413
-0.03173   0.0023744     -0.1204   -0.034978     0.12353   -0.094743   -0.034654
-0.021986   0.0020496    -0.15483   -0.045047  0.00075039    -0.10644   -0.038551
-0.012567   0.0036737    -0.18699   -0.044723    -0.10903    -0.10774    -0.03303
-0.0073698   0.0088706      -0.212   -0.032705    -0.20875   -0.097666   -0.025884
-0.0054209    0.017316    -0.22759   -0.016789    -0.32698   -0.081426   -0.018738
-0.0080194    0.025761    -0.23376  -0.0011985     -0.4962   -0.068758   -0.011917
-0.012242    0.032257    -0.23376    0.011469    -0.70538   -0.064211  -0.0050961
-0.018088    0.033231    -0.23441    0.016016    -0.90059   -0.068434  0.00075039
-0.023285    0.029333    -0.23733    0.015692     -1.0104   -0.073955      0.0014
-0.025559    0.022837    -0.24448    0.016666    -0.98309   -0.075255  -0.0037969
-0.024585     0.01894     -0.2539    0.025111    -0.80899    -0.06551   -0.012242
-0.019388    0.017316    -0.26039    0.034206    -0.52934   -0.045047   -0.018088
-0.014191    0.018615    -0.24708    0.033881    -0.21232   -0.015815   -0.015815
-0.013216    0.016991    -0.17822    0.023487    0.072208    0.012443  -0.0073698
-0.019388    0.015367   -0.011267     0.01017     0.27684    0.027385  0.00042559
-0.029132    0.011794     0.24825  -0.0057458      0.3863    0.025111   0.0059473
-0.034004   0.0059473     0.53116    -0.02361      0.4152    0.010819   0.0062721
-0.029782  -0.0028225     0.74716   -0.038876     0.40091  -0.0044465  0.00075039
-0.018088   -0.011592     0.83096   -0.045697     0.38695   -0.011917  -0.0044465
-0.00022403   -0.015815     0.76535   -0.044398     0.41196   -0.010618  -0.0028225
0.019589    -0.01484     0.58313   -0.030431     0.48991  -0.0021729   0.0065969
0.034855   -0.011592     0.34797  -0.0076946     0.60944   0.0078962    0.019589
0.039727  -0.0099683      0.1245    0.015692     0.73676    0.016991    0.027709
0.036479  -0.0089938    -0.04992    0.030957     0.84103    0.019264     0.02641
0.02641   -0.010943    -0.17627     0.03583     0.91054    0.016991    0.018615
0.015042    -0.01614    -0.27534    0.031932     0.94464    0.013093   0.0052977
0.0026992    -0.02426    -0.35914    0.022512     0.93555    0.013743   -0.008669
-0.0080194   -0.030106    -0.42832    0.012443     0.85467    0.015042   -0.019063
-0.012892   -0.029457    -0.47704   0.0056225     0.65784   0.0085458   -0.021986
-0.010943   -0.020687    -0.50075   0.0043233     0.31419  -0.0093186   -0.021986
-0.010293  -0.0096434     -0.5001   0.0046481     -0.1204   -0.039851   -0.025884
-0.014191  -0.0021729    -0.48159   0.0046481    -0.51147   -0.076879   -0.036278
-0.024585  -0.0011985    -0.45236   0.0017248    -0.72617    -0.10709   -0.051544
-0.038551  -0.0054209    -0.41793  -0.0060706    -0.71025    -0.12203   -0.062262
-0.052843  -0.0096434     -0.3783   -0.020037    -0.51017    -0.12657   -0.065835
-0.066485   -0.011592    -0.33543   -0.039201    -0.25065    -0.13177   -0.064536
-0.076879  -0.0096434    -0.28735   -0.059664   -0.059664    -0.14054   -0.059664
-0.0837  -0.0054209    -0.23149   -0.077853  -0.0050961    -0.14574   -0.051868
-0.08305  -0.0011985    -0.16068   -0.088896   -0.064861    -0.14444   -0.046022
-0.075255  -0.0011985   -0.063561   -0.092145    -0.15386    -0.13502   -0.043099
-0.061937  -0.0080194    0.070909   -0.094743    -0.19673     -0.1217   -0.040825
-0.045697   -0.018738     0.23461    -0.10091    -0.16555    -0.10838   -0.040175
-0.03173    -0.03238     0.40449    -0.10806   -0.078178   -0.094093   -0.037902
-0.022311   -0.042449     0.54773    -0.11163    0.027709   -0.077528    -0.03303
-0.012892   -0.042124     0.63445    -0.10644    0.099817   -0.058689   -0.025559
0.00010078   -0.034004     0.64907   -0.093769    0.090397   -0.039851   -0.016464
