-0.021012   -0.014191   -0.020037   -0.007045     0.48666   -0.059014   -0.059664
-0.013216   -0.020362   -0.018413    -0.01549     0.47594   -0.067134   -0.051219
-0.0076946   -0.030106   -0.017764   -0.020037     0.40254   -0.078503   -0.042124
-0.007045   -0.042124   -0.020687   -0.020362     0.28333   -0.088247   -0.032705
-0.011917   -0.049595   -0.027183   -0.015165     0.14334    -0.09182   -0.021986
-0.020687   -0.048945   -0.036278   -0.010618  -0.0011985   -0.083375   -0.014191
-0.025559   -0.040175   -0.050244  -0.0099683    -0.14964   -0.067134   -0.010943
-0.02426   -0.023935   -0.069408   -0.013866    -0.30717   -0.051544   -0.012892
-0.016464  -0.0073698   -0.092145   -0.022636    -0.48484   -0.046671   -0.016464
-0.0080194   0.0056225     -0.1178   -0.034978    -0.69304   -0.056741   -0.018413
-0.0011985    0.013743    -0.14249   -0.042774    -0.91651   -0.082076   -0.016464
0.0046481    0.016341    -0.15938   -0.043099     -1.1023    -0.11358   -0.012242
0.0049729    0.013093     -0.1623   -0.039851     -1.1783    -0.13534  -0.0076946
0.003024    0.011794    -0.15126   -0.035303     -1.1013    -0.13827  -0.0034721
0.00010078    0.017316    -0.13112    -0.03303    -0.89247      -0.123   0.0010752
-0.0011985    0.029009    -0.11326   -0.030431    -0.63652   -0.094743   0.0075714
0.003024      0.0433    -0.10774   -0.028807    -0.43644   -0.060963    0.015692
0.011469    0.051745    -0.11131    -0.03238    -0.36044   -0.031406    0.026085
0.016991     0.05207    -0.11488   -0.044723    -0.40753    -0.01484     0.03583
0.020239    0.046223    -0.11521   -0.063886    -0.52901   -0.011917    0.042326
0.021538    0.038753    -0.11488   -0.081101    -0.66608   -0.013216      0.0433
0.019914    0.033881    -0.11813     -0.0837    -0.77424   -0.012567    0.038103
0.016991    0.034206     -0.1282    -0.06616    -0.82004  -0.0099683    0.030633
0.013093    0.036804    -0.14249   -0.030431    -0.78366  -0.0060706    0.023162
0.0062721    0.037129    -0.15646   0.0085458    -0.66673  -0.0015233    0.022188
-0.0080194    0.031282    -0.16718    0.041351    -0.49588   0.0065969    0.025761
-0.028157    0.023812    -0.16782    0.059541    -0.31334    0.016016    0.030633
-0.04927     0.01829    -0.15841     0.06084    -0.15776    0.024461    0.031932
-0.066485     0.01894    -0.14314    0.050121   -0.046347    0.032582    0.029983
-0.073631    0.029658    -0.12722    0.037129    0.021538    0.037129    0.022188
-0.067784    0.046548    -0.11423     0.03453    0.059216    0.041027    0.012768
-0.050894    0.065062    -0.10351    0.045574    0.081952    0.048497    0.003024
-0.027833    0.076431    -0.10189    0.061489     0.10242    0.058241  -0.0034721
-0.007045    0.075781    -0.11553     0.06831      0.1232    0.065712  -0.0041217
0.0023744    0.058241    -0.14964    0.059216     0.14237    0.065387   0.0039985
-0.00087364    0.028684    -0.18634    0.033556     0.15081    0.058241    0.015042
-0.0099683  -0.0028225    -0.17887      0.0014     0.14496    0.044924    0.022188
-0.021337   -0.027508   -0.069083   -0.027183     0.12613    0.030957    0.023162
-0.031406   -0.042774     0.15081   -0.044073    0.093645    0.020564    0.019914
-0.034004   -0.045697     0.41326   -0.047646    0.056292    0.015042    0.019264
-0.026858   -0.036927     0.62828   -0.038551    0.021863    0.014392    0.029333
-0.010293   -0.011267     0.72052   -0.025884  -0.0018481    0.020888    0.046223
0.010495    0.023812     0.66173   -0.013216   -0.010293    0.031607    0.065062
0.028034    0.058891     0.48341  0.00010078  -0.0037969    0.042975    0.076755
0.033881    0.086824     0.26384     0.01829   0.0075714     0.05272    0.080003
0.028359     0.10371      0.0852    0.041676    0.008221    0.061165    0.079354
0.020888     0.10859   0.0026992    0.071558   -0.014191    0.065712    0.074806
0.017316     0.10469    0.029983     0.10501   -0.055441    0.062789    0.063438
0.016016    0.092996     0.14334      0.1336   -0.095393    0.050771    0.045249
0.011794    0.061814     0.29373     0.14529    -0.11033    0.031932    0.024461
0.0020496  -0.0024977     0.41261     0.13295   -0.085324    0.012768   0.0069217
-0.014516   -0.098316     0.44671    0.095919   -0.021337 -0.00054884  -0.0015233
-0.03173     -0.2042     0.38272    0.047198    0.070584  -0.0034721  -0.0031473
-0.044073    -0.28378     0.24858  -0.0011985     0.16965  0.00075039  -0.0037969
-0.046996    -0.30977    0.090397   -0.042124     0.25475   0.0069217  -0.0099683
-0.041799    -0.27793   -0.055441    -0.07428     0.30574   0.0078962   -0.025234
-0.03173    -0.20583    -0.17659   -0.097341     0.31809  0.00042559   -0.043099
-0.021012    -0.11878    -0.27956    -0.11033     0.30672   -0.010943   -0.056741
-0.010293   -0.040175    -0.37862    -0.11098     0.30217   -0.021012   -0.058365
0.003024    0.017316    -0.47867   -0.098641     0.32946   -0.022311   -0.047321
0.016991    0.046548    -0.57091   -0.075904     0.40449   -0.012242   -0.028482
0.025436    0.052395    -0.64139   -0.047646     0.52499   0.0010752   -0.008669
0.027385      0.0433    -0.70018   -0.023935     0.66888    0.010495   0.0072465
0.024137    0.023162    -0.78366   -0.011917     0.80432    0.010495    0.016991
0.017316  -0.0021729    -0.91066   -0.012242     0.90242   0.0039985    0.020564
0.0078962   -0.021661     -1.0497   -0.017439     0.93977  -0.0044465    0.019914
-0.00087364   -0.028482     -1.1377   -0.013866     0.88942   -0.010293    0.016991
-0.008669   -0.018088     -1.1231   0.0026992     0.73449   -0.013216    0.013418
-0.012892   0.0078962     -1.0042    0.025761      0.4701   -0.014191    0.013093
-0.014516    0.038103    -0.82036     0.04395     0.11086   -0.020362    0.010819
-0.014191     0.06084    -0.60177    0.047847    -0.29288   -0.033354   0.0078962
-0.014516    0.069934    -0.35167    0.029983    -0.66575   -0.051868   0.0010752
-0.018088    0.064737   -0.076879  -0.0067202    -0.94541   -0.068434  -0.0080194
-0.02426    0.051096     0.18394   -0.052843     -1.1195   -0.079802   -0.014516
-0.031081    0.037129     0.37233   -0.097017     -1.2215   -0.086298   -0.018738
-0.036927     0.02706     0.44119    -0.12885     -1.2962    -0.09182   -0.024585
-0.037902    0.023487      0.3824    -0.14801     -1.3722    -0.10416    -0.03173
-0.034654    0.022512     0.22552    -0.15873     -1.4401     -0.1295   -0.041475
-0.034654    0.020239     0.05207    -0.17172     -1.4242    -0.16847   -0.051219
-0.042774    0.015042   -0.012242    -0.18796      -1.241     -0.2159   -0.062587
-0.055766   0.0075714     0.12548     -0.2068    -0.86031    -0.26007   -0.070707
-0.068434 -0.00087364     0.44216    -0.22109    -0.32016     -0.2867   -0.071357
-0.075904  -0.0063954     0.81309    -0.22304     0.26547    -0.28703   -0.063237
-0.076554  -0.0093186      1.1018    -0.21395     0.73514    -0.26657   -0.052193
-0.072656  -0.0089938      1.2087    -0.19576     0.94172    -0.23571   -0.045372
-0.065186  -0.0089938      1.1074    -0.17205     0.81017     -0.2094   -0.043423
-0.050894  -0.0080194      0.8433    -0.14444     0.40806    -0.19316   -0.046996
-0.032705   -0.007045     0.50485    -0.11586    -0.08305    -0.18569   -0.053168
-0.015815  -0.0050961     0.18069   -0.086623    -0.46437    -0.17984   -0.059989
-0.0011985  -0.0015233    -0.06551   -0.060313    -0.62288    -0.16523   -0.061288
0.011144   0.0017248    -0.21167   -0.034004    -0.56019    -0.13664   -0.055766
0.024137   0.0049729    -0.26884  -0.0089938    -0.35751   -0.095717   -0.045047
0.037129    0.010819    -0.26884    0.016016    -0.12398    -0.04927   -0.032055
0.044275    0.019264    -0.23701    0.042975    0.056292   -0.010618   -0.019388
0.044275     0.02641    -0.17822    0.069285     0.13457    0.014717   -0.011267
0.040702    0.029658   -0.085973    0.091372     0.11476    0.028034  -0.0096434
0.038428    0.029658    0.021213     0.10242    0.044275    0.031932    -0.01484
0.036479    0.029009     0.10339     0.10339   -0.023935    0.031607   -0.021986
0.033881    0.029658     0.13035    0.098842   -0.043099    0.026735   -0.027183
0.027385    0.034206    0.098842     0.09397   0.0052977    0.022837   -0.027508
0.019914    0.039078    0.032257    0.095594     0.11378    0.028359   -0.022311
0.015042    0.042651   -0.042449     0.10242      0.2567    0.049147   -0.014191
0.013093    0.043625    -0.10384     0.11216     0.40059    0.081303  -0.0054209
0.012443    0.044924    -0.13567     0.12645     0.51654     0.11671  0.00042559
0.014392    0.047847    -0.13957     0.14496     0.58313     0.14691   0.0039985
0.022837    0.054344     -0.1269     0.16088     0.59775     0.16478    0.003024
0.034855    0.062464    -0.11098     0.17127     0.57533     0.16738  -0.0031473
0.044924    0.069285    -0.10091     0.17225     0.53506     0.15991   -0.011267
0.051096    0.070584    -0.09994     0.16185     0.50615     0.14886   -0.019388
0.050446    0.062464    -0.10384     0.14691      0.5081     0.13782    -0.02426
0.039727    0.050771    -0.11066     0.13555     0.54253     0.12515    -0.02426
0.023812    0.039727    -0.11845     0.13067     0.58313     0.10761   -0.021012
0.010495    0.031607    -0.12722     0.12807     0.61269    0.083901    -0.01549
0.0010752    0.025761    -0.13859     0.12353      0.6325    0.060515  -0.0073698
-0.0050961    0.021538    -0.15451     0.11931     0.65296    0.043625   0.0033489
-0.010618    0.016991     -0.1714     0.11638     0.69227    0.032906    0.015367
-0.015815    0.011794    -0.18764     0.11346     0.75398    0.023812    0.024461
-0.020362    0.003024     -0.2042     0.10534     0.82154    0.013418    0.028034
-0.027508  -0.0083442    -0.22142    0.089748     0.85824  0.00010078    0.021213
-0.036927   -0.021337    -0.23668    0.062789     0.82381   -0.018413   0.0059473
-0.046022   -0.032055    -0.24805    0.024786     0.69389   -0.041475    -0.01549
-0.051219   -0.035953    -0.25098   -0.019063     0.48406   -0.065186   -0.033679
-0.050569   -0.034329    -0.24188   -0.059339     0.24208   -0.081426   -0.042774
-0.044398   -0.030756    -0.21622   -0.085324    0.020888   -0.080776   -0.040175
-0.035303   -0.028157    -0.16815   -0.088247    -0.14964   -0.061613   -0.029132
-0.025559   -0.028807    -0.10189   -0.070382    -0.28248   -0.035953   -0.016464
-0.017114   -0.029132   -0.029132   -0.039526     -0.4241   -0.011917  -0.0044465
-0.0096434   -0.026858    0.032257  -0.0063954      -0.631   0.0052977   0.0059473
-0.0024977   -0.021661    0.066037    0.020564     -0.9269    0.013743    0.012119
0.0033489   -0.017439    0.067011    0.031282     -1.2712    0.011794    0.014392
0.0075714   -0.013541     0.05207     0.02706     -1.5824   0.0010752    0.015367
0.0065969    -0.01484    0.055318    0.016991     -1.7714   -0.014191    0.016341
-0.00022403   -0.021012     0.11151   0.0075714     -1.7818    -0.03173    0.015692
-0.0093186   -0.030756     0.22584   0.0059473     -1.6126   -0.046671    0.016666
-0.017114   -0.038551     0.36096    0.012768     -1.3118   -0.053817    0.016666
-0.022636   -0.040175     0.46425    0.026085    -0.95841   -0.046996    0.015692
-0.02361   -0.035303     0.49836    0.037129    -0.62483   -0.023935    0.012119
-0.021661   -0.027183      0.4584    0.036804    -0.35491   0.0091954    0.011794
-0.01549   -0.018088     0.36778    0.026085    -0.15776    0.039078    0.015367
-0.0044465   -0.011592     0.26027    0.014392    -0.01484    0.057592    0.021213
0.011794  -0.0089938     0.16315   0.0072465    0.092021    0.063763    0.028034
0.030633   -0.008669     0.09462   0.0085458     0.16835     0.06019    0.030633
0.047847  -0.0089938    0.058241    0.014068     0.21415    0.050771    0.028684
0.059865  -0.0057458    0.055318    0.018615     0.23331    0.040702    0.025761
0.065712   0.0017248    0.084876    0.021538     0.23786    0.035505    0.023162
0.067661    0.012119     0.15114    0.022837     0.23916    0.032906    0.019589
0.062464     0.01894     0.24241    0.025111     0.24208    0.023812    0.014392
0.048822    0.020564     0.32231    0.022837     0.24208   0.0052977   0.0078962
0.02706    0.017316     0.35414    0.012768     0.23786   -0.018738   0.0010752
0.003024   0.0091954     0.32231  -0.0060706     0.22714   -0.042124  -0.0047713
-0.01484  0.00042559     0.23721   -0.024585     0.20603   -0.056741  -0.0076946
-0.024909  -0.0050961     0.13132   -0.035953     0.17127   -0.059664   -0.010618
-0.028807  -0.0076946    0.031932   -0.034329     0.11866   -0.055116   -0.011267
-0.027833   -0.011267   -0.043748   -0.024585    0.054344   -0.050569  -0.0096434
-0.029132   -0.017114   -0.092145   -0.014516  -0.0037969   -0.047321  -0.0076946
-0.037252   -0.023935    -0.12073  -0.0099683   -0.035628   -0.042449  -0.0060706
-0.050569   -0.031081    -0.13827  -0.0099683   -0.029782   -0.034329  -0.0054209
-0.061613   -0.037577    -0.15126   -0.011267   0.0095202   -0.024585  -0.0057458
-0.062587   -0.044398    -0.16035   -0.013216    0.062789   -0.012567  -0.0054209
-0.049595   -0.048296    -0.16718   -0.015815     0.10956   0.0023744  -0.0011985
-0.026209   -0.047971    -0.18342   -0.013216     0.13749    0.020239   0.0039985
0.00010078   -0.042124    -0.21655  -0.0028225     0.14464    0.037454   0.0075714
0.021538   -0.034978    -0.26916    0.014068      0.1336    0.050446   0.0088706
0.032582   -0.027833     -0.3299    0.030957     0.10989     0.06019     0.01017
0.031607   -0.020687    -0.38057    0.037129    0.071558    0.058566    0.013743
0.022837    -0.01484    -0.40363    0.027709    0.016991    0.041351    0.020564
0.013093  -0.0093186    -0.38739   0.0043233   -0.044073    0.014717    0.028034
0.0085458  -0.0044465    -0.32276   -0.021337   -0.093444   -0.012892    0.030308
0.0091954  0.00042559    -0.21037   -0.038551    -0.11293   -0.034654    0.026085
0.010495   0.0039985   -0.072331     -0.0405   -0.096692   -0.047971    0.017316
0.0059473   0.0072465    0.057917   -0.023935   -0.052193   -0.048945   0.0091954
-0.0041217   0.0069217     0.14561   0.0065969   0.0043233   -0.043099   0.0072465
-0.013216    0.003024     0.17647    0.037129    0.059216   -0.039201   0.0075714
-0.018413 -0.00087364     0.15893    0.055643     0.10631   -0.044723   0.0052977
-0.018413  -0.0031473     0.11931    0.057267     0.14432   -0.059989   0.0010752
-0.013866  -0.0076946    0.082602    0.046223     0.17745   -0.073955  -0.0028225
-0.0047713   -0.014516    0.064088     0.02706      0.2161    -0.07493  -0.0063954
0.0043233   -0.024909    0.071883   0.0062721     0.26839   -0.059339  -0.0060706
0.011144   -0.030431     0.11054  -0.0099683     0.33563   -0.030431  -0.0031473
0.017316   -0.027508     0.18167   -0.018088     0.41098  -0.0011985 -0.00022403
0.020888    -0.01549     0.28041    -0.01549     0.48406    0.017965   0.0043233
0.025436   0.0046481     0.39831  -0.0063954     0.54935    0.023162    0.010495
0.027709     0.02706     0.52369   0.0049729     0.60132    0.016341     0.01764
0.029009    0.047847     0.63315    0.017965      0.6364   0.0065969    0.023812
0.031607    0.065062     0.70591    0.033231     0.65589   0.0010752    0.028684
0.030633    0.074482     0.73741    0.049472     0.67018  0.00075039    0.028034
0.025436    0.074157     0.73611    0.062139     0.68772   0.0023744    0.019914
0.018615    0.065712     0.71728    0.070909     0.70851   0.0046481     0.01017
0.0091954    0.052395     0.69876     0.06831     0.72117   0.0052977  0.00075039
-0.00022403    0.039078     0.69681    0.053044     0.70493  0.00075039  -0.0024977
-0.010618    0.028684     0.72442    0.028034     0.62698   -0.008669 -0.00054884
-0.022636     0.02706     0.77704  -0.0018481     0.45353   -0.022961   0.0036737
-0.036927    0.034855     0.82479   -0.031406     0.18946   -0.038227   0.0056225
-0.046347    0.048172     0.81569   -0.056741    -0.10644   -0.050569    0.003024
-0.045697    0.057267     0.68544   -0.077853    -0.36433   -0.059989  -0.0034721
-0.034329     0.05207     0.39019   -0.098316    -0.55792   -0.067784   -0.011267
-0.020362    0.025761   -0.047646    -0.11943    -0.70798   -0.080127   -0.018413
-0.014516   -0.021337    -0.54947    -0.14087    -0.86096    -0.10026   -0.029782
-0.023935   -0.079802     -1.0604      -0.161     -1.0481    -0.12527    -0.04115
-0.046022    -0.13469     -1.5739    -0.17757     -1.2426    -0.15353   -0.051219
-0.067134    -0.17042     -2.0602    -0.18666     -1.3807    -0.17659    -0.05804
-0.077853    -0.17952     -2.4337    -0.18894     -1.4076    -0.18894   -0.060963
-0.078178     -0.1623     -2.5938    -0.18796     -1.3053    -0.18699   -0.057715
-0.069408    -0.12982     -2.4837    -0.18699     -1.0874    -0.17432   -0.047321
-0.056416    -0.09182     -2.1336    -0.18179    -0.76709    -0.15451   -0.034329
-0.038876   -0.059989     -1.6434    -0.16782    -0.36985    -0.12852   -0.022636
-0.017114   -0.036602     -1.1332    -0.13989    0.059865    -0.10221    -0.01614
0.0010752   -0.024585    -0.69239    -0.10124     0.45646   -0.081426   -0.014516
0.0085458   -0.020687    -0.36628   -0.062262      0.7621   -0.063886   -0.016789
0.0010752   -0.023285    -0.15126   -0.026209     0.94432    -0.04862   -0.018088
-0.01549   -0.025559   -0.019712   0.0010752      1.0054   -0.031081   -0.021012
-0.034978   -0.023935    0.060515    0.015692       0.969   -0.007045   -0.026533
-0.051544   -0.021012     0.10956     0.01894     0.86734     0.01829   -0.035303
-0.059339    -0.01484     0.14302    0.016341     0.73546    0.039078   -0.043423
-0.055441  -0.0073698      0.1703    0.014392     0.60879    0.054668   -0.044073
-0.041475   0.0023744     0.19921    0.016341     0.51102    0.070584   -0.034654
-0.019388    0.011794     0.22844    0.025111     0.45126    0.083901   -0.015815
0.0052977     0.01894     0.25605    0.042001     0.41975    0.092346   0.0078962
0.026085    0.023162     0.27716    0.064413     0.39312    0.096244    0.031932
0.037778    0.026085     0.29048    0.084876     0.34602    0.099492    0.048497
0.038103    0.028034     0.29438    0.099167      0.2567    0.099492    0.055643
0.029658    0.029333     0.29113     0.10014     0.11021    0.093321    0.051096
0.018615    0.030308     0.28626      0.0865   -0.085648    0.075781    0.037129
0.011144    0.031932     0.28561     0.06084     -0.2997    0.050121    0.021863
0.010819     0.03583     0.29015    0.031932    -0.48516    0.023162    0.013093
0.016991    0.038753     0.30412   0.0059473    -0.60891   0.0039985    0.013093
0.028684    0.041027     0.32328  -0.0080194    -0.66965  -0.0057458    0.017316
0.042326    0.041676      0.3418  -0.0096434    -0.69304   -0.008669    0.020888
0.05142    0.039727     0.35284  -0.0031473    -0.72519  -0.0063954    0.023162
0.05142     0.03583     0.35187   0.0033489    -0.79633  -0.0028225    0.022188
0.045249    0.029983     0.33758   0.0039985    -0.89832  -0.0015233    0.020888
0.03518    0.022188     0.31581   0.0017248    -0.97757  -0.0057458     0.01764
0.022188    0.009845     0.29795    0.003024    -0.98147   -0.018088    0.011144
0.0033489  -0.0044465     0.29535    0.012443    -0.89702   -0.037252   0.0039985
-0.017764   -0.015165     0.31062    0.026735    -0.75605    -0.05739  -0.0028225
-0.034978   -0.018413     0.33043    0.039727    -0.60144   -0.071357  -0.0089938
-0.045372   -0.016464     0.33887    0.044275    -0.45366   -0.078503   -0.015815
-0.051219    -0.01484     0.32328     0.03583    -0.31009   -0.079152   -0.022311
-0.053492   -0.012567     0.28106    0.016341    -0.16523   -0.073955   -0.029782
-0.052193   -0.008669     0.22324   -0.008669   -0.014191   -0.062262   -0.036602
-0.044073  -0.0060706     0.16965   -0.025884      0.1323   -0.044723   -0.040825
-0.033679  -0.0050961      0.1362   -0.031081     0.24858   -0.026209   -0.041799
-0.026209  -0.0050961      0.1219   -0.030431     0.30477   -0.012242   -0.038551
-0.025884  -0.0060706     0.11151   -0.035303     0.28528  -0.0024977   -0.029782
-0.030756  -0.0044465    0.097218   -0.046671     0.19271   0.0043233   -0.020362
-0.033679  -0.0021729    0.084551    -0.05804    0.049796    0.009845   -0.014516
-0.031081   0.0026992    0.083901   -0.060963    -0.10903    0.015042   -0.010943
-0.02426   0.0085458    0.098193   -0.052193     -0.2565    0.020239  -0.0076946
-0.014191    0.015367     0.12093   -0.035628    -0.38187    0.026735  -0.0047713
-0.0018481    0.019589     0.14302   -0.016789    -0.49198    0.034206 -0.00054884
0.010819    0.021863     0.15568  0.00042559     -0.5956    0.042326   0.0049729
0.020239    0.019589     0.15049    0.014392    -0.67875    0.045899   0.0088706
0.023812    0.012768     0.12678    0.021213    -0.70376    0.036479    0.009845
0.018615   0.0072465    0.092021    0.019264    -0.63327    0.012443   0.0062721
0.0036737   0.0036737    0.054993    0.012119    -0.44943   -0.018738 -0.00087364
-0.014191    0.003024    0.023162   0.0049729    -0.16588   -0.046996  -0.0080194
-0.028807   0.0069217  -0.0028225   0.0052977     0.16705   -0.065835   -0.013541
-0.031081    0.014392   -0.024585    0.016341     0.47984   -0.071682   -0.014516
-0.024585    0.022188   -0.046996    0.032582     0.71468   -0.062912   -0.010618
-0.014516    0.027709   -0.072656     0.05142     0.84005   -0.041475  -0.0018481
-0.0047713    0.028034   -0.097017    0.070909     0.85629   -0.014516    0.008221
0.0026992     0.02641    -0.11748    0.088124     0.79718   0.0091954    0.014392
0.0075714    0.022188     -0.1308    0.097218     0.70981    0.024137    0.015692
0.01017    0.015367    -0.13632    0.096893     0.61594    0.031282    0.011144
0.0095202    0.010495    -0.14087    0.090722     0.49543     0.03453   0.0059473
0.0036737   0.0091954    -0.14801    0.083576     0.28918     0.03518   0.0020496
-0.0057458    0.011144    -0.16068    0.075781   -0.058689    0.028684 -0.00054884
-0.012242    0.013093    -0.17205     0.06831    -0.51212    0.012119 -0.00087364
-0.0067202    0.014717     -0.1688     0.06084    -0.93599  -0.0099683  0.00010078
0.0085458    0.014392    -0.13794     0.05207     -1.1958   -0.033354 -0.00022403
0.021213    0.013418    -0.06616    0.044924      -1.227   -0.048945  -0.0034721
0.023162   0.0069217    0.079679    0.040052     -1.0568   -0.051219   -0.012567
0.012768  -0.0031473     0.31549    0.033231    -0.77619   -0.041799   -0.022311
-0.0018481   -0.015165     0.59677    0.023487    -0.48354   -0.028157   -0.030431
-0.013866   -0.025559     0.83226    0.011469     -0.2435   -0.019712   -0.036602
-0.019063    -0.03303     0.94497  -0.0018481   -0.076879   -0.021986   -0.043099
-0.020037   -0.035303     0.89917   -0.016789    0.011144   -0.033354   -0.049595
-0.017114    -0.03173     0.71435   -0.029782    0.024786    -0.04862    -0.05804
-0.012892   -0.025234     0.44963   -0.038227   0.0020496   -0.059014   -0.067134
-0.008669   -0.017439     0.18004   -0.035628   0.0043233   -0.059989    -0.06681
-0.0050961   -0.011917   -0.030756   -0.020037    0.074157   -0.054142   -0.057065
-0.0015233  -0.0080194    -0.15711    0.012768     0.20668   -0.046671   -0.040175
-0.00022403  -0.0047713    -0.20745    0.056617     0.37136   -0.039201   -0.021986
-0.0034721   0.0033489     -0.2081    0.096893     0.52921   -0.027833  -0.0044465
-0.0076946    0.013418    -0.18991     0.12223     0.65037   -0.012892   0.0056225
-0.0073698    0.022837    -0.17562     0.13002      0.7176   0.0052977    0.010819
0.0010752    0.028684    -0.17367     0.12548     0.72864     0.01829    0.016016
0.013093    0.029009    -0.18082     0.11378     0.69681    0.022188    0.024461
0.02706    0.025761    -0.19024    0.094945     0.64549    0.019589     0.03583
0.042326    0.021863    -0.19608    0.073832     0.58963    0.017965    0.047523
0.059216    0.017965    -0.19738    0.051096     0.53766    0.025761    0.054019
0.072858    0.011794    -0.19868     0.03453     0.48926    0.043625    0.055643
0.079354   0.0052977    -0.20193    0.029333     0.43957     0.06896    0.054993
0.078704   0.0056225    -0.21037    0.033881     0.38272    0.093645    0.051096
0.074157    0.012119    -0.22954    0.039727     0.31224     0.11508    0.041027
0.067661    0.021538    -0.26624    0.037454        0.22     0.12905    0.025436
0.058566    0.028034    -0.31983    0.025111     0.10859     0.13067    0.008221
0.042975    0.028359    -0.38057   0.0020496  -0.0096434     0.11118  -0.0063954
0.025761    0.022512    -0.43709   -0.026209    -0.11423    0.071558   -0.016789
0.013743    0.013743    -0.47802   -0.055766    -0.18212    0.022188   -0.025884
0.0059473   0.0049729    -0.49718   -0.079802    -0.19608   -0.021012   -0.033679
-0.0015233  -0.0015233    -0.49815    -0.09182    -0.14801   -0.047321   -0.040175
-0.0093186  -0.0067202    -0.48711   -0.087597   -0.044723   -0.058365   -0.043748
-0.019388   -0.011917    -0.47444   -0.068758    0.091047   -0.062912   -0.040175
-0.029132   -0.016789    -0.46405   -0.046022     0.23721   -0.062912   -0.032705
-0.033679   -0.020362    -0.45625   -0.026209     0.37103   -0.055766   -0.025884
-0.033679   -0.021337    -0.44489   -0.010943     0.47594   -0.041799   -0.023285
-0.029132   -0.017764    -0.42507 -0.00087364      0.5461   -0.028482    -0.02426
-0.020037   -0.010293    -0.39779   0.0052977     0.58475   -0.021986   -0.022636
-0.010618  -0.0044465     -0.3705   0.0056225     0.60782   -0.018738   -0.018088
-0.0047713  -0.0037969    -0.35167  -0.0018481      0.6273   -0.017114   -0.011592
-0.0034721   -0.010943    -0.33965   -0.012892     0.64484   -0.018413  -0.0057458
-0.008669   -0.023935    -0.30489    -0.02426     0.64127   -0.021661   0.0026992
-0.016789   -0.038876    -0.18764   -0.035303      0.5971   -0.021012    0.015367
-0.028157   -0.050569    0.063113   -0.042774     0.49836   -0.015165    0.028034
-0.038876   -0.054792     0.43632   -0.043099       0.347   -0.011917    0.033881
-0.048945   -0.051868      0.8498   -0.030106     0.15211   -0.019712     0.02641
-0.057715   -0.047646        1.21  -0.0083442   -0.081751   -0.041799   0.0095202
-0.064861   -0.048945      1.4442    0.010495    -0.35524   -0.074605   -0.010293
-0.069408   -0.053817       1.503    0.015367    -0.66835    -0.11066   -0.029132
-0.071032   -0.059339      1.3727   0.0062721    -0.98829    -0.14216   -0.045372
-0.069733   -0.059339       1.084  -0.0076946     -1.2504    -0.16165   -0.054467
-0.064861   -0.050894      0.7111   -0.020362     -1.3923     -0.1649   -0.054142
-0.056091   -0.034004     0.34115   -0.029457     -1.3872    -0.15191   -0.043423
-0.050244   -0.017764    0.047847   -0.032055     -1.2459    -0.12203   -0.026533
-0.052843  -0.0047713    -0.13924   -0.027508     -1.0071   -0.083375  -0.0083442
-0.056416   0.0036737    -0.22467   -0.017439    -0.72552   -0.044723   0.0072465
-0.055766    0.008221    -0.23571  -0.0054209    -0.44716   -0.012242    0.017316
-0.04992    0.012119    -0.20583   0.0059473    -0.19738    0.010495    0.020564
-0.039851    0.016341    -0.16912    0.013093    0.013093    0.025436    0.019589
-0.027183    0.019264    -0.15321    0.012443     0.16998     0.03453    0.013093
-0.012567    0.020564    -0.16555   0.0033489     0.25215    0.036479   0.0049729
0.0023744    0.020564    -0.20193  -0.0073698      0.2541    0.033231   0.0023744
0.015367    0.023162     -0.2461   -0.013866     0.20083     0.02706    0.009845
0.024137    0.028034    -0.27923   -0.010618     0.13197    0.024137    0.019914
0.02706    0.033231    -0.29158  0.00042559    0.082602    0.027709    0.026735
0.024786    0.032582     -0.2854    0.014068    0.072858    0.035505    0.025436
0.017965    0.028359    -0.27014    0.030957     0.10631    0.042326    0.016991
0.01017    0.022512    -0.26072    0.046873     0.15991    0.043625   0.0023744
0.0065969    0.019589    -0.26039     0.05142     0.19953    0.038428   -0.007045
0.008221    0.021538    -0.27144    0.040052     0.20181    0.027385  -0.0018481
0.013743    0.025761    -0.29028    0.023162     0.16608    0.013743    0.013093
0.022188    0.032582    -0.30717   0.0091954      0.1245   0.0023744    0.028359
0.031932    0.039402    -0.31431    0.003024     0.10956  -0.0021729    0.037129
0.036154     0.04395    -0.31171   0.0088706     0.13587 -0.00054884    0.038103
0.032906    0.044599    -0.30652    0.021863     0.19499   0.0059473    0.036154
0.024786    0.041676    -0.30165    0.032257     0.26255    0.016666    0.032582
0.01764    0.038103     -0.2958    0.032906     0.31549    0.027385    0.024786
0.015042    0.036154    -0.28833    0.021538     0.33952    0.033556    0.016016
0.012119     0.03453    -0.27566   0.0036737     0.33335    0.033556    0.010819
0.0088706    0.034206    -0.26332   -0.013866     0.30412    0.029658    0.010495
0.0052977    0.034206    -0.25292   -0.024585     0.26027    0.023487    0.013418
0.00042559    0.035505     -0.2448   -0.031081     0.20343    0.014068    0.015042
-0.0060706    0.034855    -0.23701   -0.034978     0.12645   0.0036737    0.013743
-0.013866    0.031607    -0.23181   -0.037252    0.016016  -0.0044465   0.0088706
-0.021661    0.029009    -0.23311   -0.035628    -0.12755   -0.012892  0.00010078
-0.028157    0.029009    -0.23896    -0.03173    -0.28053   -0.024585   -0.011917
-0.033679    0.029658    -0.23571   -0.029132    -0.40948   -0.041475   -0.022636
-0.036278    0.028684    -0.19803   -0.030756    -0.48906   -0.061613   -0.027508
-0.036927    0.022837   -0.098316   -0.031081    -0.51147   -0.080776   -0.025884
-0.032055    0.013743    0.070909   -0.032055    -0.48614    -0.10059   -0.020687
-0.02426   0.0026992     0.27164    -0.03303    -0.43774    -0.12008   -0.016464
-0.01614  -0.0060706     0.43599   -0.033679    -0.39487    -0.13697   -0.011267
-0.011267  -0.0080194     0.51622   -0.035628    -0.37343    -0.14509  -0.0021729
-0.0054209  -0.0037969     0.50063   -0.038227    -0.36693    -0.14541    0.011469
0.0039985   0.0023744     0.41131   -0.039851    -0.35037    -0.13437     0.02641
0.017965   0.0078962     0.28398   -0.039526    -0.29158    -0.11423    0.039727
0.033231    0.011794     0.16056   -0.040825    -0.17237   -0.090521    0.048497
0.043625    0.012119    0.067336   -0.047646 -0.00087364   -0.073955    0.050446
0.044599    0.012119    0.012768   -0.059014     0.18881   -0.068109    0.044275
0.036154    0.010495   -0.012242   -0.069733     0.34505   -0.072331    0.030633
0.020564   0.0062721   -0.022311    -0.07428     0.40579   -0.081751    0.013743
-0.0024977  -0.0015233   -0.030756    -0.07428     0.33823   -0.095068  -0.0034721
-0.028157  -0.0083442   -0.045372    -0.07428     0.15698    -0.10676   -0.021337
-0.051219   -0.013541   -0.069408   -0.077853   -0.094418    -0.11228   -0.042449
-0.068758   -0.018088    -0.10059     -0.0824    -0.34874    -0.11228   -0.062262
-0.075579   -0.022961     -0.1295   -0.088896     -0.5394    -0.10903    -0.07493
-0.071682   -0.025884    -0.15158   -0.095068    -0.62743    -0.10481   -0.074605
-0.05739   -0.027833    -0.16425    -0.10091    -0.61411   -0.097666   -0.059014
-0.038876   -0.026858    -0.16718    -0.10124    -0.52479   -0.085648   -0.035953
-0.021661   -0.026533    -0.16295   -0.091495    -0.38382   -0.069408    -0.01549
-0.01549   -0.026858    -0.15418   -0.075904    -0.21687   -0.056091   -0.007045
-0.020362   -0.031406    -0.14379   -0.059664   -0.044723    -0.04992   -0.013216
-0.025234   -0.039851    -0.13599   -0.041475     0.11346   -0.050894   -0.028157
-0.024585   -0.048945    -0.13145   -0.025884     0.23494   -0.054142   -0.042774
-0.021337   -0.053817    -0.12787   -0.019388      0.3051   -0.056741    -0.04992
-0.016464   -0.053168    -0.12365   -0.018738     0.31451   -0.057065   -0.045697
-0.012567   -0.045697    -0.11748   -0.019388     0.27229   -0.055116   -0.032705
-0.008669   -0.033679    -0.10936   -0.016464     0.19466   -0.046022   -0.017114
-0.0057458   -0.021337    -0.10091  -0.0099683     0.10859   -0.028157  -0.0073698
-0.00054884   -0.012242   -0.092794  -0.0037969    0.041027  -0.0044465  -0.0057458
0.0095202  -0.0096434   -0.088247  -0.0021729    0.011144     0.01894  -0.0083442
0.021863   -0.012892   -0.089546  -0.0050961    0.020564     0.03453  -0.0076946
0.033556   -0.019063   -0.090521  -0.0054209    0.059865    0.042975  -0.0021729
0.042001   -0.026209   -0.067134  0.00010078     0.10891    0.046223   0.0036737
0.045899   -0.030756    0.009845    0.016991     0.14789     0.05142   0.0078962
0.044275   -0.031081     0.15016     0.04395      0.1638    0.057917    0.010819
0.040052   -0.029457     0.32101    0.074157     0.14626     0.06084    0.013093
0.039078   -0.025234     0.46295    0.094945     0.10177    0.056942    0.016016
0.038103   -0.019063     0.53279     0.10469    0.048822     0.05207     0.01894
0.033556   -0.012242     0.51752     0.10306   0.0085458    0.052395    0.021863
0.02641  -0.0024977     0.43404    0.099817  -0.0011985    0.065387    0.026085
0.01764   0.0069217     0.31906     0.10242    0.028034    0.083901    0.029333
0.012119    0.011469     0.21317     0.11443    0.093645     0.10209    0.029983
0.012443    0.011144     0.14334     0.13197      0.1768     0.11411     0.02641
0.014068    0.011144     0.11216     0.14886       0.258     0.11638     0.01894
0.01894     0.01764     0.10469     0.15731     0.32263     0.11411    0.011794
0.028359    0.024137     0.10631     0.15666     0.36811     0.11151   0.0062721
0.041351    0.025436     0.10306     0.15081     0.39734     0.11021      0.0014
0.05272     0.01829    0.093321     0.14107     0.41131     0.10924  -0.0044465
0.057267   0.0069217    0.082927       0.131     0.40903     0.10566   -0.012242
0.057917  -0.0034721     0.07708     0.12028     0.37623    0.095919   -0.018413
0.056292  -0.0076946    0.076106     0.10859      0.3012    0.081952   -0.022636
0.052395  -0.0041217    0.078379    0.095594     0.18329    0.069285   -0.027183
0.0433   0.0039985    0.093645    0.079679     0.05207    0.059865    -0.03173
0.030633    0.011794     0.13035    0.067011   -0.056416    0.054993    -0.03303
0.019914    0.015367     0.18362    0.061165    -0.11586    0.055968   -0.028482
0.013418    0.015367     0.23916    0.063113    -0.12463    0.061814   -0.020687
0.01017    0.016016     0.27684    0.070259   -0.097666    0.072858   -0.011917
0.003024    0.019914     0.28398     0.07708   -0.051219    0.084876  -0.0060706
-0.0067202    0.026735     0.25832    0.077405  -0.0076946    0.094295  -0.0024977
-0.012892    0.033881     0.20473    0.070259    0.010819    0.099167  0.00075039
-0.011267    0.041676     0.13327    0.065062  -0.0028225     0.10242   0.0088706
-0.00087364    0.047523    0.058566    0.064413   -0.042449     0.10469    0.020888
0.01017    0.047847   -0.008669    0.067661    -0.10579     0.10242    0.033881
0.016341    0.046548   -0.068758    0.070909    -0.19511    0.090397    0.044599
0.016991    0.041676    -0.13275    0.064413    -0.30814    0.068635    0.046548
0.011794    0.033231    -0.21297    0.041027    -0.42085    0.039402    0.041027
0.0046481    0.022188    -0.32048  0.00042559    -0.49653   0.0046481    0.032906
-0.0024977   0.0095202    -0.44716    -0.04992    -0.50205   -0.030431    0.025761
-0.010618  -0.0015233    -0.56182    -0.09929      -0.428   -0.059989    0.021213
-0.02361   -0.014191     -0.5917    -0.14216    -0.28313   -0.080776     0.01894
-0.042124   -0.034978    -0.46145    -0.17302   -0.098965   -0.092145    0.015042
-0.05804   -0.065835    -0.20518    -0.19316    0.097543   -0.094743    0.011469
-0.068109    -0.10026    0.050771    -0.19966     0.30445    -0.09117   0.0095202
-0.07493     -0.1282     0.20181    -0.18699     0.51492   -0.085973    0.012768
-0.079152    -0.13762     0.22682    -0.15743     0.68317   -0.081751    0.022188
-0.084349    -0.12203     0.16705    -0.11878     0.71403   -0.082076    0.035505
-0.084349   -0.087272    0.079354   -0.084674     0.51979   -0.089871    0.046223
-0.072981   -0.047646   0.0020496   -0.059339     0.12483    -0.10546    0.053369
-0.050244   -0.013866   -0.047971   -0.045372    -0.32633    -0.12073    0.053369
-0.024585    0.011469   -0.073306   -0.036278    -0.66121    -0.13112    0.047198
-0.0028225    0.029658   -0.080451   -0.028482    -0.77944    -0.13242    0.036479
0.0088706    0.044924    -0.07493   -0.019063    -0.68492    -0.12333    0.024461
0.011144    0.058241   -0.058689  -0.0063954     -0.4608   -0.099615    0.014392
0.009845    0.067336   -0.036278    0.010495     -0.2133   -0.063886   0.0069217
0.0072465    0.071234   -0.013541    0.031607    -0.03303   -0.025884   0.0020496
0.0033489    0.071558   0.0046481    0.051745    0.043625   0.0036737   0.0010752
-0.00022403    0.072533    0.018615    0.067986    0.025111     0.01894   0.0046481
-0.0037969    0.074482    0.029983    0.075131   -0.059014    0.021213   0.0085458
-0.0047713    0.071558    0.036804    0.072208    -0.17627    0.017316    0.012119
-0.0050961    0.045899    0.020564    0.059865     -0.2984    0.014068    0.012119
-0.0050961   -0.017764   -0.030431    0.040377     -0.4202    0.012768    0.008221
-0.0054209    -0.11131    -0.11391    0.021863    -0.55175   0.0088706    0.003024
-0.0067202    -0.20745    -0.20355   0.0091954    -0.70246  0.00075039  -0.0054209
-0.0076946    -0.27404    -0.26657   0.0046481    -0.86129  -0.0073698   -0.012567
-0.012242    -0.29255    -0.27566   0.0062721     -1.0036   -0.012242   -0.018088
-0.018738    -0.26592     -0.2172    0.008221     -1.0929   -0.015165    -0.02426
-0.026533     -0.2081    -0.10286   0.0085458     -1.0945   -0.019388   -0.034329
-0.030106    -0.13827    0.031282   0.0046481    -0.99219   -0.027833   -0.049595
-0.032705   -0.072981     0.13814  -0.0015233    -0.80152   -0.041799   -0.065186
-0.03173   -0.021012     0.18751  -0.0096434    -0.55824    -0.05804   -0.073631
-0.028807    0.012443     0.17257    -0.01614     -0.2971   -0.069408   -0.075579
-0.027508    0.029009     0.10534   -0.018413    -0.04927   -0.071682   -0.072331
-0.027508    0.032582    0.015367   -0.013216      0.1638   -0.064536   -0.067134
-0.029457    0.030633   -0.060963 -0.00054884     0.33335   -0.052843   -0.060638
-0.03303    0.029333    -0.10384    0.013743      0.4584   -0.042449   -0.056416
-0.034654    0.031932    -0.10968    0.022837      0.5448   -0.036602   -0.054467
-0.029782    0.037454   -0.083375    0.028684     0.60392   -0.035953   -0.053817
-0.023935    0.044924   -0.038876    0.031607     0.64939   -0.042449   -0.055441
-0.021661    0.050121     0.01764     0.03453     0.69227   -0.056416   -0.058689
-0.027508    0.048172    0.083251    0.033881     0.72799   -0.076879   -0.063561
-0.039851    0.040377     0.15633    0.024137     0.74261    -0.09929   -0.071682
-0.053817    0.030308     0.22422   0.0026992     0.72994    -0.11943   -0.081101
-0.063237    0.025111     0.26969   -0.025234     0.69162     -0.1334   -0.092469
-0.064861    0.029658     0.28301   -0.052193     0.62341    -0.13989   -0.097017
-0.060638    0.040052     0.25962   -0.070707     0.52109    -0.13859   -0.095068
-0.051544    0.050771     0.20376   -0.075904     0.39474    -0.13275   -0.087597
-0.0405    0.058241     0.12807   -0.069408     0.27521     -0.1217   -0.078827
-0.03303    0.062464    0.050121   -0.051219     0.20278    -0.10871   -0.068758
-0.028807    0.061814   -0.013866   -0.021986      0.2096   -0.094418   -0.056091
-0.029132    0.058241   -0.057065   0.0069217      0.2934   -0.079802   -0.042449
-0.029457    0.055643   -0.078503    0.024786     0.40286   -0.067784    -0.03173
-0.027183    0.054668   -0.080127    0.031932     0.47172   -0.058689   -0.027508
-0.019388    0.054993   -0.054142    0.030957     0.46523   -0.052193   -0.027508
-0.0080194    0.054668      0.0014    0.024137     0.39442   -0.050569   -0.028807
-0.0021729    0.054019    0.076431   0.0095202     0.28983   -0.054467   -0.025234
-0.0057458    0.053369     0.14691   -0.013216     0.18914   -0.062912   -0.014516
-0.019388    0.052395     0.19109   -0.042449     0.11411   -0.073306  -0.0076946
-0.034978    0.050446     0.19628   -0.073306    0.048172   -0.083375  -0.0073698
-0.046671    0.047198      0.1664    -0.10124   -0.047321   -0.092794  -0.0099683
-0.046022      0.0433     0.11281    -0.11943    -0.20063   -0.098965  -0.0096434
-0.034329    0.041676    0.045249    -0.12105    -0.40071    -0.09994  -0.0021729
-0.017764    0.040702   -0.026209    -0.10741    -0.58195   -0.092469    0.012119
0.00075039    0.042001   -0.085973   -0.079152    -0.66446    -0.07428    0.028684
0.016991     0.04395     -0.1269   -0.045047    -0.59722   -0.046022    0.041027
0.033881    0.046223    -0.15061   -0.014191     -0.3796   -0.010293    0.047198
0.047847    0.047847    -0.16815   0.0069217   -0.056091    0.022512    0.045899
0.056942    0.049147    -0.19154    0.016341       0.296    0.044924    0.040702
0.056617    0.048822    -0.21947     0.01829     0.60782    0.054019    0.033556
0.049796    0.047523    -0.23246    0.020564     0.84038    0.055643     0.03453
0.038753    0.047198    -0.18796    0.031932     0.98654    0.055643    0.044924
0.027385     0.05142   -0.030431    0.054993      1.0525    0.059216    0.058566
0.01764    0.059216     0.27359    0.086824      1.0395    0.071558    0.067011
0.015367    0.069934     0.68285     0.12223     0.92678    0.091372    0.066686
0.022188    0.079029      1.0869     0.15438     0.69909     0.10696    0.057267
0.036154    0.083576       1.374      0.1742      0.3811     0.10729    0.042001
0.048172    0.083901      1.4695     0.17582    0.035505    0.088773    0.029333
0.046223    0.075781      1.3675     0.16056    -0.25975    0.061489    0.023487
0.033231    0.062789      1.1226     0.13067    -0.44424    0.038753    0.025111
0.017965    0.046873     0.81829    0.094945    -0.49783    0.031282    0.029658
0.0052977    0.028684     0.52921    0.056617    -0.44391    0.033556    0.031932
-0.007045   0.0088706     0.30737     0.01829    -0.34062    0.036479    0.030308
-0.020037   -0.012567     0.16315   -0.024585     -0.2565     0.02706    0.020564
-0.037902   -0.031406    0.062464   -0.072006    -0.24675  -0.0037969 -0.00087364
-0.056091   -0.046996   -0.039201    -0.12657    -0.35102   -0.054142   -0.027508
-0.071682   -0.056741    -0.16588    -0.18439    -0.57351    -0.11066   -0.053168
-0.079477   -0.065186    -0.31269    -0.23668    -0.89312      -0.161   -0.066485
-0.082076   -0.076229    -0.48451    -0.26981     -1.2702    -0.19576   -0.060313
-0.077853   -0.087597    -0.72454    -0.27436     -1.6187    -0.20908   -0.041475
-0.061288   -0.094743      -1.101    -0.24968     -1.8299     -0.2016   -0.020687
-0.041475   -0.094418     -1.6308     -0.2042     -1.8289    -0.17789  -0.0054209
-0.022311   -0.090845     -2.2226    -0.15061     -1.6074    -0.14411   0.0020496
-0.0034721   -0.087272     -2.7094   -0.098965     -1.2296    -0.10351   0.0026992
0.01764   -0.086948     -2.9306   -0.054467     -0.7986   -0.059989   0.0026992
0.037129   -0.095393     -2.8147   -0.018088     -0.4189   -0.020362   0.0072465
0.049147    -0.10871     -2.4019   0.0088706    -0.16165   0.0078962    0.013743
0.051096    -0.11748     -1.8175    0.029009   -0.042124    0.025761    0.018615
0.044599    -0.11715     -1.2014    0.046223    -0.02426    0.037129    0.017965
0.031607    -0.10709    -0.66868    0.061814   -0.053817    0.044275    0.016016
0.014717   -0.088572    -0.28476    0.068635   -0.086623    0.046873    0.015042
-0.0034721   -0.064211   -0.054467    0.063438    -0.10059    0.044599    0.014392
-0.016464   -0.043099    0.061814    0.042326    -0.10351    0.035505    0.011794
-0.022961    -0.03238     0.11281    0.008221    -0.11748    0.016341   0.0036737
-0.026533   -0.034004     0.14009   -0.032055    -0.14769   -0.010618  -0.0089938
-0.034004   -0.041799      0.1742   -0.069083     -0.1701   -0.042449   -0.019063
-0.048296   -0.046671     0.22682   -0.095393    -0.14834   -0.067459   -0.022311
-0.063561   -0.046996     0.29665    -0.10903   -0.057715   -0.079802   -0.018088
-0.072006   -0.038551     0.37558    -0.11001    0.098517    -0.07493  -0.0099683
-0.06616   -0.025234     0.46555    -0.09994     0.28626   -0.053817   0.0026992
-0.04927   -0.010618     0.56721   -0.080127      0.4662   -0.019712    0.016016
-0.029782   0.0020496     0.66596   -0.054467     0.60879    0.022512    0.025436
-0.012242    0.010495     0.74229   -0.024909     0.70461    0.063113    0.030957
0.003024    0.020564     0.78094    0.003024     0.75853    0.091047    0.031932
0.015367    0.031607     0.78126     0.02706     0.78516     0.10306    0.029009
0.022188    0.045574     0.75268    0.044599     0.79945     0.10047    0.026085
0.028684    0.060515     0.71273    0.058891     0.80985    0.086824    0.024137
0.038103    0.072533     0.67538    0.071883     0.81991    0.071883    0.024461
0.045574    0.080653     0.64874    0.080978     0.82544    0.066362    0.024786
0.04395    0.087474     0.62341    0.086824     0.81667    0.071883    0.021538
0.032582    0.092996     0.58638    0.091047     0.78711    0.083251     0.01764
0.012768    0.095594     0.52921    0.092346     0.73546    0.095269    0.015367
-0.0093186    0.093321     0.45353    0.090072     0.66011     0.10989     0.01764
-0.026858    0.082927     0.36973    0.088773     0.56332     0.12158    0.022512
-0.036278    0.067336     0.28983    0.088124     0.45126     0.12645    0.028359
-0.034329    0.049147     0.22714    0.091047     0.32978     0.12548     0.03453
-0.021012    0.032906     0.18557    0.094945     0.19823     0.12515    0.042001
-0.0018481    0.021213     0.16153    0.099167    0.044275     0.12678    0.046223
0.017965    0.013743     0.14432     0.10079    -0.14574     0.12743     0.04395
0.03518    0.010495      0.1284    0.097543    -0.35232     0.12385    0.038103
0.05142    0.012768     0.11606     0.09462    -0.52609     0.11606    0.032582
0.065712    0.018615     0.10891    0.094945    -0.61833     0.10826    0.030308
0.076431     0.02706     0.10339     0.10014    -0.60274     0.10047    0.031932
0.081303    0.036479    0.097543     0.10112    -0.49133     0.09397     0.03453
0.082277    0.045574     0.08585    0.096244    -0.32828    0.090072    0.037778
0.083251    0.048822    0.064413    0.088773     -0.1636     0.08585    0.041027
0.082602    0.046223    0.028684    0.082927   -0.027183    0.080653    0.046548
0.080003    0.042001   -0.015815    0.082277    0.069285    0.073182     0.05142
0.075131    0.037129   -0.063561    0.087799     0.11963    0.063113     0.05207
0.072208    0.033556    -0.10741     0.10014     0.12418     0.05272    0.048822
0.073832    0.029009    -0.14541     0.11346     0.09397    0.042326    0.045574
0.07773    0.021538     -0.1753     0.12255    0.055968    0.033556    0.046223
0.079354    0.010819    -0.20485     0.12353     0.03453    0.025436    0.046873
0.072858 -0.00087364    -0.23409     0.11443    0.038428     0.01829    0.044599
0.057267   -0.011267    -0.25975    0.095269    0.062139   0.0056225    0.037778
0.038753   -0.017114    -0.26657    0.072533    0.095594   -0.011592    0.028359
0.024786   -0.020362    -0.22629     0.05272     0.13782   -0.033354     0.01764
0.019589   -0.021337    -0.10676    0.040377     0.18427   -0.054142    0.010495
0.021538   -0.021337    0.078379    0.037454     0.23039   -0.065186    0.011144
0.026085   -0.022311     0.26319    0.041027     0.26839    -0.06551    0.012768
0.029658   -0.025884     0.37038    0.043625      0.2895   -0.061288    0.009845
0.026085   -0.028482     0.36941    0.043625     0.28203   -0.057065   0.0017248
0.014392   -0.027508     0.28171    0.044924     0.23331   -0.055441  -0.0076946
-0.0015233   -0.020362      0.1638    0.044275     0.13717   -0.060638   -0.017764
-0.014191   -0.013541    0.097868    0.038103   0.0043233   -0.075579   -0.027508
-0.023285   -0.010943     0.14919    0.021213     -0.1282   -0.097017   -0.038876
-0.027508   -0.013216     0.32263  -0.0063954    -0.21785    -0.11293   -0.050894
-0.027508   -0.020362     0.54968    -0.04115    -0.24221    -0.11943   -0.059664
-0.022961   -0.030106     0.73027   -0.072981    -0.20713     -0.1204   -0.061937
-0.01614   -0.042774     0.79101    -0.09117    -0.13794    -0.12008   -0.060638
-0.01549   -0.055441     0.71565   -0.094743    -0.06681    -0.11878    -0.05804
-0.020037   -0.065186     0.53863   -0.088247   -0.022636    -0.11391   -0.055441
-0.027833   -0.072006     0.32101   -0.077528   -0.022636    -0.10611   -0.056741
-0.038227   -0.072656     0.11898    -0.06616   -0.059014   -0.096367   -0.062912
-0.053168    -0.06616   -0.030756   -0.053168    -0.11358   -0.084349   -0.071032
-0.070058   -0.059014    -0.12203   -0.040175    -0.16458   -0.072656   -0.076554
-0.081751   -0.053492    -0.16782   -0.032055     -0.2042   -0.061613   -0.078178
-0.084999   -0.053492    -0.18634    -0.03238    -0.23279   -0.056091   -0.076554
-0.082076   -0.054792    -0.19413   -0.034978    -0.25552   -0.054467   -0.073631
-0.072006   -0.054792    -0.19836   -0.033354    -0.28378   -0.053817   -0.071032
-0.056091   -0.048296    -0.20355   -0.025234    -0.33218   -0.055116   -0.069083
-0.038551   -0.038876     -0.2107   -0.010943    -0.39876   -0.056091   -0.067784
-0.022961   -0.030431    -0.21947   0.0056225     -0.4608   -0.052518   -0.062912
-0.013866   -0.025234    -0.22337    0.021213    -0.48776   -0.045372   -0.055766
-0.011592   -0.022636    -0.21817    0.035505     -0.4621   -0.035628    -0.04927
-0.016464   -0.020362    -0.20453    0.050121    -0.38967   -0.030431   -0.046347
-0.02426    -0.01549    -0.18894     0.06019     -0.2893   -0.029782   -0.046022
-0.028157   -0.012242    -0.17822    0.063763    -0.18796   -0.028482   -0.046347
-0.021337   -0.014191    -0.17757    0.056617    -0.10351   -0.023935   -0.044073
-0.0096434   -0.020037    -0.18764    0.034855   -0.042774    -0.01549   -0.037902
0.0026992   -0.024909    -0.20388   0.0020496   0.0033489   -0.007045   -0.027183
0.0091954   -0.027183    -0.22207   -0.031406     0.04395  -0.0031473   -0.022961
0.0065969   -0.027508    -0.23928   -0.055116    0.080978  -0.0054209   -0.027508
-0.0031473   -0.028482    -0.25455   -0.062912     0.12418   -0.013541   -0.035628
-0.016789   -0.032055    -0.26104   -0.054792     0.18264   -0.025559   -0.041799
-0.027833   -0.035953    -0.25877   -0.037902     0.25702   -0.039851   -0.045047
-0.03238   -0.037252     -0.2474   -0.025234     0.33433   -0.051219   -0.045372
-0.028807   -0.034654    -0.23279   -0.022636     0.40091   -0.055766   -0.042449
-0.018413   -0.028807    -0.22174   -0.027183     0.45516   -0.059989   -0.038876
-0.0037969   -0.021986    -0.21947   -0.034329     0.50095   -0.065186   -0.037252
0.0059473   -0.016464    -0.22207   -0.035953     0.54058   -0.069083   -0.038551
0.0046481   -0.011917    -0.22337   -0.031081     0.56137   -0.070707   -0.039851
-0.0037969   -0.011592    -0.21849   -0.020362      0.5487   -0.071682     -0.0405
-0.017764   -0.011267    -0.20778  -0.0099683     0.49153   -0.071357    -0.04115
-0.031406  -0.0099683    -0.19413  -0.0034721     0.39149   -0.071357   -0.043748
-0.043748   -0.010618    -0.18277  -0.0083442     0.26579   -0.073631   -0.047321
-0.050894   -0.016464     -0.1714   -0.029782     0.13944   -0.076879   -0.048296
-0.047971   -0.023285    -0.15938   -0.067459    0.033881   -0.078503   -0.044398
-0.0405   -0.030106    -0.14606    -0.11131   -0.038876    -0.07428   -0.034329
-0.036278   -0.033679    -0.12365    -0.14639   -0.093769   -0.066485   -0.021986
-0.036927   -0.033354   -0.088247    -0.16263    -0.15061   -0.053168  -0.0050961
-0.036602   -0.031081   -0.049595    -0.15353    -0.21947   -0.038876    0.012119
-0.032055   -0.027508   -0.021012      -0.123    -0.29612   -0.023285    0.027385
-0.02426   -0.018738  -0.0083442   -0.081751    -0.36271  -0.0080194    0.036154
-0.012242  -0.0050961  -0.0076946   -0.044398    -0.42182  0.00042559    0.039402
0.0010752    0.009845   -0.012567   -0.019712    -0.50595 -0.00022403    0.038428
0.011794    0.024461   -0.019063  -0.0067202    -0.65406  -0.0080194     0.03583
0.012443    0.032582   -0.027183  -0.0037969    -0.85999   -0.018738    0.033881
0.0043233    0.032582   -0.035628  -0.0073698     -1.0545   -0.027508    0.034206
-0.007045    0.029333   -0.046022   -0.012242     -1.1604   -0.032705     0.03583
-0.015815     0.02706   -0.053168    -0.01484     -1.1211   -0.036278    0.036479
-0.01614    0.028359   -0.056091   -0.013541    -0.93047   -0.035303     0.03453
-0.0073698    0.033231   -0.054142  -0.0050961    -0.64172   -0.028807    0.031282
0.0046481    0.039402   -0.046996   0.0075714    -0.33348   -0.014516    0.026085
0.013743    0.042975   -0.034329    0.023487   -0.080451   0.0039985    0.021538
0.01829      0.0433   -0.019712    0.036154    0.074806    0.020564    0.018615
0.017316    0.042975  -0.0083442    0.041351     0.12548    0.026735     0.01764
0.013743    0.041676  -0.0011985    0.037778    0.098517    0.021538    0.019914
0.0065969    0.041676   0.0056225    0.032906    0.041351   0.0069217    0.028684
-0.0041217    0.044924    0.014068    0.031932   -0.015815   -0.010943    0.035505
-0.014191    0.053044    0.025436    0.033556   -0.072006   -0.026858    0.033881
-0.020037    0.064413    0.036479    0.037778     -0.1334   -0.038227    0.022188
-0.020037    0.074157    0.042326    0.040052    -0.18471   -0.045372    0.009845
-0.01549    0.078055    0.042975    0.040702    -0.18861   -0.050244  -0.0021729
-0.013216    0.072208    0.042651    0.038103    -0.11326   -0.054467   -0.013216
-0.014191    0.059865    0.038753    0.028359    0.028359   -0.061613    -0.02361
-0.018088    0.045249     0.02641    0.009845     0.16315   -0.068758   -0.034654
-0.021986    0.033231   0.0059473   -0.015165      0.2057   -0.073955   -0.045047
-0.021986    0.025436   -0.019063   -0.038876     0.13457   -0.075255   -0.052518
-0.02426    0.021538   -0.037902    -0.05739   0.0095202   -0.076879    -0.05804
-0.030106    0.017965   -0.044398   -0.071357    -0.07428   -0.084674   -0.061937
-0.037902    0.013093   -0.038551   -0.081101   -0.050569   -0.095068   -0.063886
-0.043099    0.008221   -0.026858   -0.084024    0.095919    -0.10156   -0.062587
-0.041475   0.0046481   -0.012892   -0.077853     0.32848   -0.096367   -0.056741
-0.035953    0.003024  -0.0015233   -0.062587      0.5893   -0.077528   -0.046996
-0.033679  0.00042559   0.0069217   -0.043423     0.83713   -0.052518   -0.035953
-0.034978  -0.0018481    0.011144   -0.028807       1.044   -0.033354   -0.021337
-0.035953  -0.0041217    0.010495    -0.02426       1.183   -0.028807  -0.0096434
-0.03238  -0.0080194   0.0043233   -0.030106      1.2224   -0.043423   -0.008669
-0.02426   -0.011917  -0.0093186   -0.043748      1.1424   -0.072656   -0.020037
-0.017114   -0.014516   -0.028157   -0.065186     0.94789    -0.10514   -0.039526
-0.016464    -0.01484   -0.049595   -0.090196     0.66726    -0.12982   -0.057715
-0.023935   -0.017114   -0.064861    -0.11293     0.32588    -0.14574   -0.068434
-0.034004   -0.021337    -0.06681    -0.12527   -0.052843    -0.15029   -0.070707
-0.041475    -0.02361   -0.051544    -0.12268    -0.43741    -0.14444   -0.063237
-0.043748   -0.022636   -0.021986    -0.10416    -0.78886     -0.1295   -0.044398
-0.0405   -0.017764   0.0075714   -0.072331     -1.0656    -0.10871   -0.021337
-0.030756  -0.0089938    0.023487   -0.035303      -1.228   -0.086298  -0.0024977
-0.018413   0.0010752     0.02641  -0.0015233      -1.264   -0.068434    0.010495
-0.0054209   0.0062721    0.024461    0.017965     -1.1978    -0.05739    0.016991
0.00042559   0.0069217    0.027385    0.018615     -1.0662   -0.051868    0.020239
-0.00087364   0.0043233     0.03518   0.0056225    -0.89832    -0.04927    0.020888
-0.0041217  0.00075039    0.040702   -0.011267    -0.72097   -0.044723    0.023812
-0.0050961 -0.00087364    0.041351   -0.025234    -0.55012   -0.036927    0.029009
-0.0018481   0.0010752    0.040052   -0.028807    -0.39519   -0.027183    0.035505
0.0023744   0.0095202    0.042001   -0.023285     -0.2578   -0.017114      0.0433
0.0039985    0.020239    0.051096   -0.016789    -0.13145  -0.0054209    0.049472
0.0036737    0.029658    0.063763    -0.01614   -0.017439   0.0091954    0.053044
0.0026992    0.036154    0.079029   -0.016464    0.077405    0.023487    0.050771
0.00075039    0.036804    0.089423   -0.013216     0.15568    0.039078    0.048172
0.0023744    0.032906    0.090397  -0.0044465     0.22617    0.058891    0.047847
0.012768    0.024461    0.081952    0.012768     0.29665    0.081303     0.05207
0.030957    0.017965    0.075781    0.042326     0.37006     0.10047    0.058241
0.05142    0.016991    0.075781    0.078704     0.43729     0.11736    0.066686
0.067661    0.019264    0.079029     0.10956     0.48861     0.13522    0.074157
0.075781    0.022512    0.083251     0.12645     0.52174     0.15406    0.080003
0.076431     0.02706    0.081303      0.1284     0.53961     0.16705    0.085525
0.072533    0.030633     0.06896     0.11801     0.54805     0.17517    0.090072
0.065387    0.029333    0.047847     0.10566      0.5474     0.18004    0.089098
0.057267    0.024137    0.025436     0.10112     0.53863     0.18362    0.080653
0.049147    0.016016    0.013418     0.10631     0.52726     0.19011    0.065387
0.043625    0.011144    0.016016     0.11541     0.51979     0.19921    0.051096
0.040377    0.014068    0.031607      0.1258     0.52012      0.2044    0.042326
0.039402    0.032257    0.053044     0.13295     0.52499     0.20051    0.036154
0.038103     0.06019    0.071558     0.13425     0.52889     0.18557    0.027709
0.03583    0.086175    0.080653      0.1297     0.52142     0.16218    0.016016
0.032906     0.10014    0.081303     0.12125     0.49251     0.13684   0.0023744
0.030957    0.095269    0.075781     0.10631     0.44704     0.11508  -0.0096434
0.025436     0.06896    0.066362    0.084226     0.40124    0.096893   -0.018413
0.016341    0.030633    0.051096    0.056292     0.37265    0.083576   -0.020362
0.0078962  -0.0076946    0.023812    0.029333     0.36324    0.075131   -0.015165
0.0043233   -0.034329   -0.021661    0.012443     0.36226    0.072208  -0.0089938
-0.00022403   -0.049595     -0.0837   0.0046481     0.35641    0.070584  -0.0060706
-0.0054209    -0.05739    -0.15613   0.0065969     0.33173    0.065712   -0.011592
-0.0093186   -0.060638    -0.22467    0.013093     0.27716    0.057267   -0.023285
-0.0067202   -0.059339    -0.27339     0.01894     0.18751    0.045899   -0.032055
0.00042559    -0.04992    -0.30035    0.019914     0.07773    0.033556    -0.03173
0.0056225   -0.034978    -0.31074     0.01894   -0.033354    0.020564   -0.024585
0.0049729   -0.021337    -0.30977    0.022837    -0.13827    0.012443    -0.01549
0.0010752   -0.012892    -0.29905    0.032257    -0.24188    0.012119   -0.007045
0.00010078  -0.0093186    -0.27793    0.046548    -0.36303     0.01764  -0.0021729
-0.00054884  -0.0073698    -0.25033    0.062464    -0.51439    0.024786  0.00075039
-0.0024977  -0.0050961    -0.23701    0.079029    -0.71188    0.032906   0.0069217
-0.0054209  -0.0018481     -0.2552    0.087149    -0.96815    0.040052    0.017965
-0.0076946   0.0039985    -0.28898    0.083576     -1.2527    0.043625    0.031607
-0.0063954     0.01017     -0.2971    0.067986     -1.4833    0.042326    0.041676
-0.0021729    0.016016    -0.23409    0.047847     -1.5651    0.039402    0.045249
0.0062721    0.020239   -0.057065    0.030957     -1.4453     0.03583    0.042001
0.014717    0.025111     0.23396    0.019589     -1.1416    0.029983    0.042326
0.01894    0.030633     0.55747    0.014068    -0.73202    0.023812    0.047198
0.016991    0.036154     0.80725   0.0075714    -0.31659    0.017965    0.053369
0.010819    0.039402     0.91703  -0.0011985    0.031607    0.016016    0.057917
0.0069217      0.0433     0.88618   -0.011917     0.28138    0.019914     0.06019
0.0088706    0.044275      0.7621   -0.018738     0.44216    0.030308    0.062789
0.016666    0.041027     0.59125    -0.01484     0.53701    0.044599    0.065387
0.027709    0.034855     0.40708  0.00075039     0.58573     0.06019    0.065712
0.035505    0.026735     0.26027    0.025111      0.5932     0.06961    0.063438
0.03518    0.016666     0.22032    0.050771     0.56104    0.065387    0.055643
0.029333   0.0036737     0.31874     0.06831     0.48991    0.045249      0.0433
0.020239   -0.012242     0.51557     0.07708     0.38078    0.012768    0.028034
0.008221    -0.03173     0.74001    0.078055     0.22682   -0.029132    0.010819
-0.0047713   -0.055116     0.90631    0.071234    0.032906   -0.079802  -0.0093186
-0.019063   -0.081101     0.92483    0.051745    -0.16782     -0.1282   -0.030106
-0.035303    -0.10774      0.7202    0.019589    -0.32698    -0.16133   -0.051544
-0.050894    -0.13437      0.2921   -0.016464    -0.40623    -0.16815   -0.065186
-0.059339    -0.15386     -0.2474   -0.046996    -0.39811    -0.14834   -0.064211
-0.053817     -0.1597    -0.71448   -0.059014    -0.32893    -0.11131   -0.051868
-0.036602    -0.14606    -0.95906   -0.052518    -0.24968   -0.077528   -0.036278
-0.016464    -0.11715    -0.92982   -0.042449    -0.19998   -0.062912   -0.028157
-0.0047713   -0.085324    -0.67842   -0.047971    -0.20096   -0.078178    -0.03173
-0.0073698   -0.062262    -0.31496   -0.072331    -0.25162    -0.11391   -0.045697
-0.021661   -0.053817    0.042975    -0.10546    -0.33153    -0.15223   -0.063237
-0.04115    -0.05739     0.31874    -0.13177    -0.40851    -0.17237   -0.076229
-0.055116   -0.063561     0.46717    -0.14411    -0.45593    -0.16912   -0.075255
-0.060963   -0.063237     0.45158    -0.14379    -0.45983    -0.15093   -0.059339
-0.059989   -0.054792     0.26514    -0.13794    -0.42377    -0.12917   -0.040825
-0.056416   -0.041799   -0.014516    -0.12527    -0.36661    -0.11423   -0.030756
-0.053168   -0.028807    -0.24935    -0.10514    -0.30684    -0.10774   -0.031406
-0.048945   -0.018088    -0.34322   -0.078827    -0.25585    -0.10611   -0.030431
-0.043099  -0.0054209    -0.29872   -0.051544    -0.21687    -0.10286   -0.020687
-0.034004    0.011794    -0.19056   -0.029782    -0.18536   -0.093444  -0.0018481
-0.018088    0.031607    -0.10189   -0.015165    -0.15256   -0.078827    0.021213
-0.0034721    0.050771    -0.07493  -0.0080194    -0.10644   -0.063886    0.040702
0.0010752    0.064088    -0.10903  -0.0047713   -0.044073   -0.051868    0.049472
-0.0041217    0.070909    -0.17335  -0.0034721    0.037454   -0.043099    0.043625
-0.012567    0.071234    -0.23766 -0.00087364     0.13912   -0.034329    0.027385
-0.01484     0.06961    -0.27664   0.0065969     0.25605   -0.025884   0.0078962
-0.011917    0.068635    -0.28833    0.020888     0.38078   -0.018738  -0.0083442
-0.0076946    0.070584    -0.28118    0.034855     0.49998   -0.019063   -0.017114
-0.0015233    0.073507    -0.26689    0.041027     0.59677   -0.032705   -0.022961
0.0023744    0.075131    -0.25455     0.03518     0.66563   -0.057065   -0.030756
0.0033489    0.074806    -0.24513    0.019914     0.71175   -0.084999   -0.038227
0.0020496    0.074482    -0.23636   0.0017248     0.74748    -0.10903   -0.044723
-0.0011985    0.073832    -0.22402   -0.012567     0.79133    -0.12365   -0.051544
-0.0083442    0.070909    -0.21102   -0.021986     0.85337     -0.1269   -0.058689
-0.017439    0.066362     -0.2068   -0.032055     0.92158    -0.12138   -0.061937
-0.022961    0.059865    -0.21622   -0.040175     0.97712    -0.11488   -0.059014
-0.023935    0.048822    -0.23149   -0.041799      1.0141    -0.11326   -0.054792
-0.024585    0.032582    -0.23993   -0.033679      1.0392     -0.1204   -0.050569
-0.030106    0.015042    -0.23181   -0.016464       1.058    -0.12852   -0.049595
-0.040825  -0.0028225    -0.20972   0.0043233      1.0648     -0.1321   -0.052193
-0.04862   -0.030431    -0.19738     0.01764      1.0473    -0.12755   -0.056091
-0.048296   -0.081426    -0.22304    0.019589     0.99076    -0.11683   -0.053492
-0.041475    -0.15808    -0.29775   0.0069217     0.89657    -0.10254   -0.044073
-0.028482    -0.24415    -0.40656   -0.011592     0.77931   -0.086623   -0.028807
-0.015815    -0.31106     -0.5105   -0.026858     0.65849   -0.072006   -0.013216
-0.008669    -0.33672    -0.55889   -0.031081      0.5435   -0.061288  -0.0015233
-0.007045    -0.31269    -0.52544   -0.023285     0.43339   -0.056741   0.0020496
-0.0099683    -0.24935     -0.4163   -0.008669     0.31646   -0.058689  0.00075039
-0.01614    -0.16945    -0.26559   0.0085458     0.17842   -0.061288 -0.00054884
-0.021986   -0.095393    -0.11521    0.025111    0.010495   -0.059989   0.0026992
-0.027183   -0.043099  -0.0057458    0.032257    -0.17822   -0.055766    0.008221
-0.027833   -0.014516    0.041676    0.024137     -0.3705   -0.051868    0.012443
-0.026209  -0.0011985    0.032582   0.0059473     -0.5511   -0.046671    0.016991
-0.021986   0.0046481  -0.0083442   -0.014516     -0.7213   -0.037252    0.023812
-0.016789   0.0085458   -0.056091    -0.03173    -0.89085   -0.026533    0.029009
-0.012892    0.013743   -0.088896   -0.038551      -1.061   -0.018088    0.030633
-0.0083442    0.023487    -0.10026   -0.035303     -1.2101  -0.0099683    0.027385
-0.0031473    0.038103   -0.094743   -0.022961     -1.2855   0.0020496    0.020239
0.0043233    0.052395   -0.080776  0.00075039     -1.2277    0.022837     0.01017
0.012443    0.065712   -0.062912    0.039402     -1.0094    0.048822   0.0017248
0.019914    0.074482   -0.036927    0.083576    -0.66316    0.074482  0.00042559
0.028359    0.078704    0.012119      0.1206    -0.27534    0.095269   0.0072465
0.034855    0.075131     0.09397     0.13944    0.040377     0.10794    0.016991
0.041027     0.06831      0.2044     0.13717     0.18167     0.10956    0.021863
0.043625    0.060515     0.32198     0.11768     0.11541    0.096569     0.01829
0.039078    0.053694     0.41943    0.085525    -0.10254    0.070909   0.0046481
0.02706     0.05207     0.48731    0.048822    -0.37018    0.041027   -0.012242
0.011794    0.054344     0.53214    0.014717    -0.60274    0.015367   -0.029132
0.00042559    0.057267     0.57891   -0.014516    -0.77262  -0.0021729   -0.039526
-0.00087364    0.058566     0.66498   -0.039201    -0.88208  -0.0099683   -0.043099
0.00075039    0.054993     0.80173   -0.056091    -0.92463  -0.0060706   -0.041475
0.00042559    0.050121     0.94854   -0.060963     -0.8889   0.0046481   -0.039851
-0.00022403    0.045249      1.0489   -0.052843    -0.78204     0.01764   -0.036602
0.0020496    0.044924      1.0759   -0.028482    -0.63457    0.032257   -0.030106
0.0078962    0.047523      1.0281     0.01017    -0.48646    0.050446   -0.024585
0.010495    0.051096     0.92125     0.05142     -0.3757    0.067011   -0.024585
0.0072465    0.053694     0.77412    0.080003    -0.32958    0.071883   -0.029132
0.00042559    0.051096     0.60099    0.084876    -0.37375    0.056617   -0.036278
-0.0089938    0.040377     0.39377    0.060515    -0.54363    0.016016   -0.042124
-0.019063    0.017965     0.11248    0.011794    -0.84245   -0.047646    -0.04927
-0.030431   -0.010943    -0.31366   -0.049595     -1.2023    -0.12495   -0.059014
-0.040825   -0.039526    -0.92722    -0.10903     -1.5164    -0.19706   -0.069083
-0.051219   -0.059339     -1.6548    -0.15613     -1.6954    -0.25065   -0.072656
-0.059014   -0.063237     -2.3096    -0.19089     -1.7035    -0.27761   -0.069408
-0.05804   -0.052843     -2.6942    -0.20972     -1.5505    -0.27826   -0.062587
-0.048945   -0.033679     -2.6867     -0.2133     -1.2741    -0.25812   -0.056416
-0.034004   -0.012567     -2.3012    -0.20225    -0.92138    -0.22759   -0.050894
-0.016464   0.0065969     -1.6671    -0.17594    -0.54168    -0.19576   -0.044723
-0.0024977    0.021863    -0.96165    -0.13697    -0.17822    -0.16393   -0.039526
0.0023744    0.030957    -0.33932   -0.091495      0.1284    -0.12722   -0.035953
-0.0037969    0.034855     0.10924   -0.046347     0.34764   -0.085648   -0.030106
-0.013216    0.032257     0.36713   -0.010293     0.46977   -0.038876   -0.018738
-0.021012    0.022512     0.45808    0.014068     0.50485   0.0065969   -0.008669
-0.025884   0.0039985     0.40221     0.02706     0.48049    0.042651  -0.0028225
-0.030106   -0.022961     0.20505    0.026735     0.42235    0.062789 -0.00087364
-0.037252   -0.054792    -0.10709    0.015042     0.35674    0.069934    0.003024
-0.043423   -0.083375     -0.4608  -0.0057458     0.30282    0.075456    0.008221
-0.046996   -0.098641    -0.74761   -0.029132     0.28008     0.08585    0.011794
-0.043099   -0.090521    -0.87071   -0.044073     0.29957     0.10339    0.012443
-0.029132   -0.054467    -0.76709   -0.042774     0.34797     0.12515    0.014392
-0.011917 -0.00022403     -0.4241   -0.024585     0.39572     0.14724    0.015692
0.00042559    0.056942    0.095919   0.0056225     0.42268     0.16218    0.016991
0.009845     0.10177     0.66043    0.040052     0.44216      0.1638    0.021538
0.015042     0.12775      1.1269    0.068635     0.49478     0.15309    0.029333
0.019589     0.13425      1.4003    0.080653     0.61301     0.13587    0.036154
0.022512     0.12613      1.4536    0.075781     0.80432     0.11866    0.040702
0.022188     0.10696      1.3331    0.059541      1.0333     0.10859    0.042975
0.021538    0.084226      1.1324    0.042975      1.2448     0.10794    0.042651
0.024461    0.062789     0.94107     0.03518      1.3909     0.11508    0.039402
0.030957    0.044924     0.80725    0.039727       1.439      0.1245    0.036479
0.039078    0.033556     0.73157    0.053369      1.3822      0.1323    0.036154
0.044924    0.029658     0.68707    0.073182      1.2331     0.13132    0.039727
0.043625    0.030308     0.64257    0.093321      1.0262     0.12515    0.042975
0.036804    0.032906     0.58216     0.10729     0.81212     0.11476    0.045899
0.024461    0.034206     0.50388     0.11378     0.64354     0.10079    0.047847
0.012119     0.03453     0.41585     0.11151     0.52337    0.079354    0.046223
0.0010752    0.029983     0.33108    0.096893     0.40156    0.048172    0.040377
-0.0076946    0.021538     0.25507    0.072208     0.19596   0.0085458    0.025761
-0.013866    0.013093     0.19369     0.04395    -0.13924   -0.036927   0.0059473
-0.019388   0.0043233     0.14951    0.017965    -0.53551   -0.081101   -0.014516
-0.021661  -0.0031473      0.1206  -0.0021729    -0.84342    -0.11423   -0.029782
-0.020687   -0.007045     0.10112   -0.014191    -0.93275    -0.12787   -0.034978
-0.014516  -0.0060706    0.087149   -0.017439    -0.78009    -0.11943   -0.029782
-0.010618  -0.0011985    0.076755   -0.012242    -0.47607   -0.092469   -0.018088
-0.010293   0.0056225    0.069934   0.0033489    -0.16003   -0.053168  -0.0031473
-0.0096434    0.009845    0.064088    0.023487    0.069285   -0.013541   0.0072465
-0.0083442    0.010819    0.056942    0.039078     0.19141    0.016666    0.011794
-0.0034721   0.0088706    0.049147    0.042975      0.2463    0.034206    0.013418
0.0033489   0.0085458    0.041676    0.037778     0.28918    0.039402    0.015367
0.0085458    0.010819    0.035505    0.030633     0.35479    0.036479    0.016991
0.010495    0.016341    0.031932    0.022188     0.44736    0.028684    0.016016
0.0065969    0.022512    0.028034    0.017316     0.54903    0.020239    0.013093
-0.0018481    0.027385    0.021213     0.01764      0.6299    0.012443    0.010495
-0.013866    0.026735   0.0052977    0.022512     0.66855   0.0052977    0.008221
-0.025884    0.019914    -0.01484    0.027709     0.66855  -0.0031473   0.0075714
-0.032055     0.01017   -0.034329    0.030308     0.65556   -0.010943   0.0062721
-0.031081 -0.00022403   -0.051544    0.027709     0.64387   -0.013216    0.003024
-0.02426  -0.0083442   -0.067134    0.021863     0.63088  -0.0073698   0.0036737
-0.012567  -0.0080194   -0.076879    0.015042     0.60067   0.0069217    0.010495
0.0043233  0.00042559   -0.080776   0.0072465     0.54285    0.023487    0.020239
0.023487    0.015042   -0.081426  0.00042559     0.45418    0.034855    0.027709
0.037129    0.027385   -0.082076  -0.0057458     0.34277    0.039727    0.031932
0.0433    0.036479   -0.083375   -0.012242     0.23364    0.039078    0.030633
0.041351    0.040702   -0.086298   -0.019712     0.15244     0.03583    0.022188
0.034855    0.042975   -0.089546   -0.025234     0.11216    0.032257   0.0091954
0.026085    0.046548   -0.093444   -0.025234     0.10891    0.027709  -0.0041217
0.016341     0.05207   -0.095068   -0.021337     0.12905    0.020888   -0.011267
0.0026992    0.055968   -0.093769   -0.013866     0.14854    0.010495    -0.01614
-0.012567    0.054668   -0.093119  -0.0037969     0.15568  -0.0018481   -0.020037
-0.025884    0.047847   -0.093769   0.0036737     0.15503   -0.012567   -0.020362
-0.036278    0.039727   -0.090196   0.0075714     0.16153   -0.018413   -0.015165
-0.045047    0.031282   -0.076879   0.0065969     0.18427   -0.015815  -0.0063954
-0.04992    0.024461   -0.045372  -0.0011985      0.2187  -0.0073698  0.00042559
-0.045047    0.020239   -0.007045  -0.0089938     0.24468   0.0033489   0.0020496
-0.029132    0.016666    0.025111    -0.01484     0.24046   0.0091954    0.003024
-0.008669    0.011144    0.046223   -0.016464     0.19986   0.0075714   0.0059473
0.0078962   0.0052977    0.059865    -0.01614     0.12288   0.0023744     0.01017
0.015042  -0.0018481    0.073182   -0.012892    0.010495 -0.00022403    0.011794
0.013093   -0.010943    0.089423  -0.0050961    -0.12073   0.0020496   0.0088706
0.0062721   -0.026858     0.10534   0.0062721    -0.24773   0.0056225   0.0026992
-0.0041217   -0.050894     0.10566    0.021213    -0.35296   0.0033489  -0.0041217
-0.014516     -0.0837    0.080003    0.032582    -0.43059  -0.0089938   -0.012242
-0.022311     -0.1178    0.027385    0.034855    -0.48971    -0.03303   -0.021012
-0.032705    -0.14574   -0.039851    0.028359    -0.53843   -0.062912   -0.027833
-0.047321      -0.161    -0.10546    0.016666    -0.58195   -0.087272    -0.03238
-0.062587     -0.1597    -0.15548   0.0056225    -0.61281    -0.10124    -0.03173
-0.071032    -0.14249    -0.18277  0.00075039    -0.62028    -0.10254   -0.026858
-0.069408    -0.11358    -0.19056   0.0026992    -0.60209   -0.095068   -0.018413
-0.058365   -0.082076    -0.18731   0.0075714    -0.56896     -0.0824  -0.0067202
-0.041799   -0.053817    -0.17692    0.009845    -0.53453   -0.069408   0.0052977
-0.024585   -0.033679    -0.16555    0.010819    -0.50985   -0.057715    0.013743
-0.011592   -0.020037    -0.15678    0.009845    -0.49198   -0.046022    0.016016
-0.0011985   -0.011917    -0.14899   0.0095202    -0.47932   -0.034654    0.013418
0.0065969  -0.0089938    -0.14216    0.012443     -0.4699   -0.021986    0.011794
0.013093  -0.0099683    -0.13469    0.016341    -0.46665   -0.010293    0.013093
0.022512   -0.011917    -0.12592    0.015042    -0.47249  -0.0037969    0.017316
0.030957   -0.011267    -0.11683   0.0062721    -0.48419  -0.0063954    0.025111
0.03518   -0.012242    -0.10481  -0.0044465    -0.49458   -0.018738    0.034206
0.034206    -0.01484   -0.083375   -0.011592    -0.49783   -0.035953    0.035505
0.030957   -0.018738   -0.053492   -0.015815    -0.49361   -0.051544     0.02641
0.030308   -0.022636    -0.01549   -0.021012    -0.48386   -0.061288    0.012119
0.030633   -0.025884    0.024137   -0.029457    -0.46697   -0.059989   0.0010752
0.028034   -0.028482    0.048822   -0.036278    -0.43806   -0.050569  -0.0044465
0.024786   -0.030106     0.05207   -0.037577    -0.39357     -0.0405  -0.0050961
0.020239   -0.030756    0.034855    -0.03303    -0.33607   -0.035303  -0.0024977
0.019264    -0.02426      0.0014   -0.021661    -0.27209    -0.03303   0.0036737
0.022188   -0.013866   -0.042774  -0.0063954    -0.20972   -0.030106    0.013418
0.02706  -0.0015233   -0.086948    0.012443     -0.1649   -0.024909    0.021213
0.031932    0.011469    -0.12105    0.032906    -0.14281   -0.017439    0.022837
0.03583    0.020239    -0.14736    0.056942    -0.14736  -0.0093186     0.01829
0.036804    0.025111    -0.17237    0.078055    -0.17627  -0.0050961    0.009845
0.029658    0.024461    -0.20128    0.087474    -0.22726   -0.007045    0.003024
0.015692    0.020239    -0.24318    0.080328    -0.28995   -0.015815  0.00010078
0.0020496     0.01829    -0.29775    0.065387    -0.35589   -0.028482  0.00010078
-0.00087364    0.018615    -0.35589     0.05142    -0.41923   -0.039201   0.0052977
0.0085458    0.023487    -0.40753    0.046223    -0.47704   -0.044723    0.012768
0.025111    0.029983    -0.43644    0.047198    -0.52674   -0.045047    0.021538
0.040377    0.036154    -0.43839     0.05142    -0.56279     -0.0405    0.032906
0.050771    0.039402    -0.40201    0.056292    -0.58163   -0.030431    0.042651
0.059216     0.03453    -0.30229     0.06084    -0.58585   -0.017114    0.045899
0.067011    0.020239    -0.10546    0.059541    -0.57773  -0.0047713    0.042651
0.06961 -0.00022403     0.18524    0.045899    -0.54525   0.0039985    0.029333
0.061489   -0.019388     0.49673    0.021538    -0.48191   0.0069217   0.0085458
0.04395   -0.035303     0.73546  -0.0080194    -0.38545      0.0014   -0.010293
0.023487   -0.046671     0.83258   -0.037577    -0.26657   -0.012242   -0.020687
0.0072465   -0.053492     0.77184   -0.064211    -0.14216   -0.032055   -0.025559
-0.0011985   -0.056416       0.588   -0.082076   -0.033354    -0.04927   -0.028157
-0.0041217   -0.057065     0.35024    -0.09182    0.041351   -0.059664   -0.029782
-0.0067202   -0.056741     0.12613   -0.096692    0.070259   -0.064536   -0.031081
-0.013541    -0.05739   -0.043423   -0.097666    0.062139   -0.069733   -0.037252
-0.026533   -0.059664    -0.14834   -0.095393    0.051096   -0.078178   -0.046996
-0.042124   -0.062262    -0.20031    -0.09117    0.082602   -0.089871   -0.061613
-0.060313   -0.065186    -0.21785   -0.090845     0.19141    -0.10416    -0.07428
-0.076879    -0.06551    -0.21752   -0.092469     0.37525    -0.12008   -0.080451
-0.086948   -0.064536    -0.21135   -0.091495     0.58898    -0.13177   -0.077528
-0.089221   -0.061937    -0.20518   -0.085324     0.77379    -0.13502   -0.065186
-0.084999   -0.056741    -0.19771   -0.075579     0.88812    -0.12917    -0.04927
-0.075579   -0.050244    -0.18926   -0.063886     0.91963    -0.11618   -0.037577
-0.060313   -0.040825    -0.18082    -0.04927     0.88325   -0.095068   -0.032705
-0.037252   -0.028157    -0.17172   -0.032055      0.8027   -0.069083   -0.029782
-0.012242   -0.013216    -0.16133   -0.014516     0.70461   -0.044398   -0.027183
0.0069217   0.0052977    -0.15029   0.0023744     0.60392   -0.020687   -0.021661
0.016991    0.023162    -0.13762    0.016016      0.5029  -0.0015233   -0.013866
0.014717    0.036154    -0.12657    0.026735     0.39734    0.011794  -0.0037969
0.00010078    0.039727    -0.11943     0.03518     0.27261    0.013093   0.0043233
-0.021661     0.03453    -0.12235    0.038103     0.11476  0.00075039    0.008221
-0.041799    0.024461    -0.13957    0.038753   -0.077203   -0.019712   0.0072465
-0.053168    0.017965    -0.16847    0.038753    -0.28638   -0.042124  0.00075039
-0.04992    0.017965    -0.20096    0.037454    -0.49296   -0.059989   -0.011592
-0.037577    0.022512    -0.22791    0.033556     -0.6781   -0.074605   -0.027183
-0.023285    0.027709    -0.24708    0.024461    -0.82264   -0.088247     -0.0405
-0.015165    0.030633    -0.25747    0.012119    -0.89929    -0.10059    -0.04992
-0.016464    0.031932     -0.2591 -0.00054884     -0.8837    -0.11033   -0.052193
-0.025234    0.031607     -0.2552  -0.0096434    -0.77327    -0.11261   -0.048945
-0.036602    0.027709     -0.2487    -0.01484    -0.58098    -0.10514   -0.043099
-0.046671    0.021538     -0.2435   -0.021012    -0.33575   -0.091495   -0.038227
-0.046022     0.01764    -0.23863   -0.028807   -0.073306   -0.073955   -0.036927
-0.034004    0.017316    -0.23084   -0.034654      0.1677   -0.051868   -0.034978
-0.017439    0.020888    -0.22304   -0.036927     0.36453   -0.027183   -0.029782
0.0014    0.026085     -0.2172   -0.032055     0.51005  -0.0024977   -0.024585
0.015692    0.033881     -0.2159   -0.018088     0.61074    0.023812   -0.020037
0.016991    0.042326     -0.2159  0.00075039     0.67473    0.047847   -0.015165
0.0062721    0.047198    -0.21232    0.019914     0.71273    0.072533  -0.0080194
-0.0031473    0.044599     -0.2029    0.037129     0.72929    0.092996  -0.0031473
-0.0054209    0.037454     -0.1753    0.046548      0.7228     0.10826  -0.0024977
0.0026992    0.027709    -0.10903    0.045899     0.69292     0.12028  -0.0044465
0.015042    0.020239    0.014068    0.035505     0.63835     0.12678  -0.0034721
0.029983    0.017316     0.19596    0.017965      0.5565     0.12872   0.0026992
0.039078    0.017965      0.4256  -0.0018481     0.44898      0.1271   0.0095202
0.036154     0.01764      0.6692   -0.021986     0.32361      0.1206    0.013743
0.023812    0.010495     0.85987   -0.039526     0.19531     0.10924    0.012443
0.0078962  -0.0018481     0.92255   -0.051219    0.083901    0.090397   0.0059473
-0.0037969   -0.010943     0.81537   -0.054467 -0.00022403    0.066362  -0.0015233
-0.008669  -0.0096434     0.56462    -0.04862   -0.050894     0.04395   -0.008669
-0.007045   0.0017248     0.25085   -0.038227   -0.081101    0.028034   -0.013866
-0.0021729    0.017316   -0.038876   -0.025234     -0.1191    0.019914   -0.017114
0.0023744    0.029009    -0.24773   -0.013541    -0.19154    0.017316   -0.019712
0.0039985    0.031607    -0.36368  -0.0060706    -0.30489    0.017316   -0.020037
0.0052977    0.025761    -0.40948  0.00042559    -0.45463    0.015042   -0.020037
0.010495    0.015692    -0.41598   0.0056225    -0.62256   0.0065969   -0.018738
0.021863   0.0062721    -0.41403    0.010819    -0.78528   -0.012892   -0.018088
0.033556   0.0039985     -0.4241    0.013418    -0.90676   -0.038551   -0.020687
0.039727   0.0065969    -0.45203    0.015692    -0.95678   -0.061937   -0.024909
0.03518    0.010819    -0.49588    0.015692    -0.92657   -0.076229   -0.028157
0.025111     0.01017    -0.54428    0.013418    -0.81582   -0.081101   -0.024585
0.016016   0.0046481    -0.56766   0.0062721    -0.63945   -0.078827    -0.01484
0.012119  -0.0024977    -0.48808  -0.0080194    -0.42052   -0.069083  -0.0028225
0.010819  -0.0099683    -0.22532   -0.027833    -0.19024   -0.051868   0.0072465
0.0072465   -0.017439     0.21415   -0.046671    0.021538    -0.03238    0.014068
0.003024   -0.022311     0.74294   -0.058365     0.18816   -0.012892    0.017965
-0.0044465   -0.021986      1.2561   -0.051868     0.29568  0.00042559     0.01894
-0.017764   -0.021337      1.6475   -0.032705      0.3444   0.0039985    0.012768
-0.036602   -0.023285      1.8327   -0.012892      0.3418  -0.0076946  0.00075039
-0.054792    -0.03173      1.7784  -0.0018481      0.2947   -0.032055   -0.013866
-0.062912   -0.043423      1.5173 -0.00022403     0.22844   -0.060963   -0.023935
-0.059989   -0.054792      1.1343  -0.0044465     0.19271   -0.085324   -0.028807
-0.049595   -0.059989     0.72247  -0.0034721     0.22357    -0.10026   -0.030756
-0.035628   -0.054467     0.36096   0.0046481     0.31646    -0.10838   -0.029457
-0.026858   -0.037577    0.094295     0.01764     0.44509    -0.11261   -0.026533
-0.026533   -0.015815   -0.067134    0.032906     0.57274    -0.11163   -0.024585
-0.034329   0.0039985    -0.14704    0.048822     0.66498    -0.10546   -0.021661
-0.040175    0.015042    -0.18179    0.065062     0.70558   -0.089871    -0.01614
-0.039201    0.017965    -0.20193    0.073182     0.68837   -0.069083   -0.010943
-0.03173    0.020564    -0.22142    0.072858     0.61269   -0.047646  -0.0041217
-0.020687    0.021863    -0.24188    0.062789     0.48439   -0.028807   0.0059473
-0.010618    0.022837     -0.2591    0.046873     0.31127   -0.012242     0.01829
-0.0063954    0.022188    -0.27111    0.027709    0.098517   0.0033489    0.029009
-0.0089938    0.019914    -0.27826    0.010495    -0.14216    0.023162    0.036154
-0.015815     0.01829    -0.28346  0.00042559     -0.3861    0.049472    0.040702
-0.017114    0.016991     -0.2867   0.0072465    -0.59202    0.079029    0.041027
-0.013541    0.016991    -0.28768    0.029009    -0.72649     0.10436    0.039078
-0.0089938    0.016991    -0.28443    0.056942    -0.78723     0.12613    0.038103
-0.007045    0.015692    -0.27696    0.079679    -0.81549     0.13652    0.040052
-0.0076946    0.015367    -0.26819    0.089748    -0.88175     0.12645    0.046548
-0.0096434    0.016666    -0.26039    0.081952     -1.0123    0.093645    0.055643
-0.011267    0.021863    -0.25098    0.064413     -1.1526    0.048497    0.063113
-0.010618    0.028359     -0.2461    0.042975     -1.2114   0.0095202    0.065062
-0.007045    0.030957    -0.25033    0.019914     -1.1205  -0.0096434    0.062464
-0.0021729     0.02641    -0.25942  -0.0044465    -0.86454  -0.0047713    0.056617
0.0023744    0.017316    -0.27209   -0.027833    -0.47996    0.017316    0.048822
0.0069217    0.009845    -0.28248    -0.04992   -0.031081    0.042651    0.040377
0.0088706   0.0075714    -0.29158   -0.069408     0.42787    0.054344     0.03518
0.0095202   0.0091954    -0.29937   -0.081426     0.87026    0.045574    0.032906
0.0072465    0.012768    -0.30392   -0.079802      1.2737     0.01894    0.031282
-0.0011985    0.017316    -0.30392   -0.063886       1.616   -0.013541    0.025436
-0.018088    0.019264      -0.301   -0.038551      1.8612     -0.0405    0.013093
-0.039851    0.015042    -0.29807    -0.01484      1.9613   -0.055441  -0.0050961
-0.059664   0.0065969    -0.29872  0.00075039      1.8561   -0.059339   -0.022311
-0.070707  -0.0024977     -0.2997   0.0069217      1.5092   -0.055766    -0.03238
-0.069408   -0.008669    -0.29742   0.0095202     0.96348   -0.053817   -0.034004
-0.05739  -0.0083442     -0.2932    0.012443     0.35966   -0.059339    -0.03173
-0.038551  -0.0037969    -0.28735    0.020239     -0.1282   -0.068758   -0.028157
-0.017764   0.0026992    -0.28378    0.029333    -0.38642   -0.076229   -0.021337
-0.0011985    0.008221    -0.28735    0.031282    -0.41111   -0.078503   -0.011592
0.0088706   0.0088706    -0.29255    0.022837    -0.27339   -0.075579  -0.0028225
0.012119   0.0026992     -0.2932   0.0075714   -0.075579   -0.069083  -0.0024977
0.008221  -0.0050961    -0.29158  -0.0057458     0.10112   -0.060313   -0.010293
-0.0018481   -0.011592    -0.28768   -0.014191        0.22   -0.051544   -0.021012
-0.011917    -0.01549    -0.28053   -0.023285     0.27781   -0.043099   -0.029457
-0.01549   -0.018413    -0.26851   -0.031081     0.29178   -0.034329   -0.034654
-0.013541   -0.019063    -0.25227   -0.038227     0.28723   -0.023285    -0.03238
-0.007045    -0.01614    -0.22012    -0.04115     0.27879  -0.0089938   -0.020362
-0.00087364   -0.011267    -0.14996   -0.037902     0.27196   0.0026992  -0.0021729
0.0039985  -0.0057458   -0.019388   -0.030431     0.26969    0.012768    0.016666
0.0075714 -0.00087364     0.16413   -0.019712     0.28171    0.016991    0.031282
0.0072465   0.0046481     0.36096  -0.0060706     0.30932    0.013093    0.038103
0.0065969   0.0075714     0.51395   0.0036737     0.34245   0.0017248    0.039402
0.0059473    0.009845     0.58995     0.01017     0.36583   -0.011592    0.037454
0.0056225    0.012443     0.58898    0.010819     0.37038   -0.017114    0.033881
0.003024    0.014392      0.5422    0.008221     0.35609   -0.008669    0.029333
-0.0011985    0.011469     0.48861   0.0065969     0.32686    0.009845     0.02641
-0.0067202   0.0039985     0.45321   0.0088706     0.27911    0.023812    0.024786
-0.0099683   -0.008669     0.43697    0.015367     0.19856    0.023812    0.022512
-0.0099683   -0.021661     0.42105    0.027709    0.078704   0.0072465    0.019914
-0.0083442   -0.030756     0.39767    0.046223   -0.068758   -0.014191    0.019589
-0.0047713   -0.033679     0.38078     0.06961    -0.22629   -0.024585    0.019914
-0.00054884   -0.027508     0.38467    0.092671    -0.37992   -0.021661    0.016016
0.0033489   -0.014191     0.40968     0.11151    -0.51634   -0.012242   0.0072465
0.0033489   0.0023744     0.44314     0.12288    -0.61184  -0.0031473  -0.0054209
-0.0028225     0.01764      0.4675     0.12028    -0.64821   0.0017248   -0.016464
-0.0099683    0.025111     0.47107     0.10144    -0.62126   0.0026992   -0.023935
-0.010618    0.025111     0.44963    0.071883    -0.54525    0.003024   -0.022961
-0.0018481    0.024137     0.40676      0.0433    -0.44131   0.0056225   -0.013541
0.012443    0.026735       0.347    0.025111    -0.33478    0.013418  -0.0044465
0.02706    0.032257     0.28333    0.020239    -0.23896     0.02641   0.0039985
0.033231    0.039402     0.22454    0.023487    -0.15905    0.042975    0.011794
0.029658    0.045249     0.16673    0.025761   -0.099615     0.06019    0.017316
0.022188    0.044599    0.090722    0.027709   -0.064536    0.073182    0.018615
0.018615    0.036479   -0.025234    0.029658   -0.051544    0.079679    0.019589
0.023487    0.021538    -0.18407    0.028684   -0.057065    0.081952    0.022837
0.03583   0.0072465    -0.36628    0.025111   -0.076229    0.085525    0.029333
0.054668  -0.0024977    -0.53291    0.015042    -0.10709    0.092346     0.03453
0.072533  -0.0099683    -0.65179  -0.0018481    -0.14379     0.10112    0.034855
0.08585   -0.021661    -0.73981   -0.023935    -0.18049     0.11248    0.029983
0.091047   -0.041799    -0.85219   -0.044723    -0.21849     0.11801    0.022188
0.080003   -0.068434     -1.0185   -0.058365    -0.26916     0.11151   0.0095202
0.05142   -0.089871      -1.204   -0.061613    -0.33932    0.087799  -0.0093186
0.013093   -0.097017     -1.3254   -0.052843    -0.41858    0.051745   -0.032055
-0.023285   -0.085648     -1.3095   -0.034978    -0.48679    0.009845   -0.052518
-0.043099   -0.059339     -1.1426   -0.017439    -0.53161   -0.028807   -0.064861
-0.044073   -0.030756    -0.87103  -0.0076946    -0.54785   -0.059989   -0.066485
-0.031081  -0.0067202    -0.57968  -0.0099683    -0.53746   -0.079152   -0.057715
-0.013541   0.0069217    -0.33802   -0.021012     -0.5092   -0.084674     -0.0405
-0.0021729    0.013418    -0.17984   -0.030756    -0.47347   -0.078503    -0.02426
-0.0024977    0.016991    -0.09117   -0.027833    -0.43579    -0.06551   -0.017114
-0.013541     0.01894   -0.016464   -0.011267    -0.39324    -0.04862   -0.017439
-0.026209     0.01764     0.11833    0.011794    -0.34387   -0.029132   -0.018413
-0.032055    0.013743     0.34797    0.032582    -0.29223   -0.011267   -0.011592
-0.024585   0.0075714     0.63413    0.048172    -0.24188      0.0014   0.0039985
-0.0096434   0.0017248     0.89105    0.059541    -0.19738    0.010495    0.020564
0.0078962  0.00075039      1.0405    0.066686    -0.15938    0.013418    0.031282
0.01894   0.0043233      1.0424     0.06831     -0.1256    0.011794    0.036479
0.023162    0.010495     0.91573    0.058891   -0.097991   0.0049729    0.037454
0.020564    0.014068     0.72897    0.039727   -0.079152  -0.0083442     0.03518
0.012768    0.013093     0.56559    0.016666   -0.072331   -0.028482    0.031282
0.0046481    0.009845     0.48439  -0.0044465    -0.08305   -0.049595    0.021538
0.00010078   0.0069217     0.49251   -0.025884    -0.11066   -0.065186   0.0065969
-0.00087364   0.0026992     0.55715   -0.046347    -0.14736   -0.073306  -0.0099683
-0.00087364  -0.0024977      0.6312   -0.059989    -0.18569   -0.076879   -0.020037
-0.0037969  -0.0083442     0.67732   -0.058689    -0.22174   -0.073306    -0.02426
-0.01549  -0.0099683     0.67992   -0.041475    -0.25487    -0.06681   -0.023935
-0.030106   -0.008669     0.64582   -0.016789     -0.2919   -0.060963    -0.02361
-0.041475  -0.0021729     0.59417   0.0056225     -0.3364   -0.059339   -0.028157
-0.045697   0.0072465     0.53896    0.019914    -0.38804   -0.064536   -0.038876
-0.043423    0.015692     0.48764    0.023812    -0.42215    -0.07428   -0.047321
-0.036602    0.019589     0.44054    0.015692    -0.39616   -0.081751   -0.048296
-0.030106    0.018615     0.39896 -0.00087364    -0.27014   -0.081751   -0.043748
-0.027183    0.013418     0.35187    -0.01614   -0.040175   -0.075255   -0.041799
-0.031081   0.0065969     0.28788   -0.027508     0.26644   -0.065835   -0.045047
-0.038876   0.0020496     0.20505   -0.033354     0.59385   -0.056091   -0.052193
-0.044723  -0.0015233     0.11151   -0.034978     0.88163   -0.048945   -0.056741
-0.046022  -0.0080194   -0.015815   -0.029132      1.0824   -0.042774   -0.055116
-0.042124    -0.02361    -0.24545   -0.020037      1.1785   -0.036278   -0.045372
-0.035303   -0.046671    -0.65861   -0.011592      1.1856   -0.031081   -0.031081
-0.027183   -0.069083     -1.2569  -0.0047713      1.1386   -0.028807    -0.01484
-0.01484   -0.084999     -1.9133  -0.0015233      1.0736   -0.026209  -0.0018481
0.0014   -0.085973      -2.434  -0.0057458      1.0151   -0.017764   0.0059473
0.019589   -0.075255      -2.649   -0.013216      0.9716  -0.0021729   0.0069217
0.032582   -0.053492     -2.4889   -0.018413     0.93425    0.013093   0.0023744
0.03453   -0.030106     -2.0105    -0.01614     0.88228    0.022188  -0.0015233
0.024461   -0.011592     -1.3742  -0.0073698     0.79166    0.021538  -0.0028225
0.0078962   0.0010752    -0.75962  -0.0011985     0.63672    0.012443  0.00010078
-0.0083442   0.0046481    -0.28995  -0.0011985     0.40059  -0.0057458   0.0056225
-0.017439   0.0026992  -0.0057458  -0.0063954     0.08585   -0.029132    0.011144
-0.013541  0.00075039     0.12483   -0.017764    -0.29482   -0.052843    0.012443
-0.0024977   0.0020496      0.1677   -0.032055    -0.72065   -0.073955    0.009845
0.0062721   0.0049729     0.18232   -0.047321     -1.1679   -0.094743   0.0033489
0.0088706   0.0075714     0.20668   -0.065186     -1.6168    -0.11878  -0.0063954
0.0056225    0.009845      0.2502   -0.084674       -2.04    -0.15191   -0.019388
-0.0044465   0.0095202     0.30282    -0.10709     -2.3918    -0.19251   -0.035303
-0.020037   0.0046481     0.35252    -0.12592     -2.6188    -0.22791    -0.04862
-0.038876  -0.0047713     0.39182    -0.13599     -2.6792    -0.24675   -0.056091
-0.057715   -0.020037     0.42527    -0.13404     -2.5509    -0.24188   -0.059014
-0.071357   -0.035628     0.46652    -0.11651     -2.2534    -0.21979   -0.059339
-0.077203    -0.04862     0.52596   -0.088896     -1.8552    -0.19089   -0.056091
-0.076229   -0.054792     0.59125   -0.062912     -1.4349    -0.16295    -0.04992
-0.069083   -0.052193     0.63055   -0.050244     -1.0416    -0.13762   -0.041799
-0.054792     -0.0405     0.62341   -0.055766    -0.69824    -0.11683    -0.03303
-0.035953   -0.020037     0.58248    -0.06681    -0.40558   -0.098316   -0.026858
-0.016464   0.0075714     0.53896   -0.073306    -0.15483   -0.082076   -0.025559
0.00075039    0.038428     0.52174   -0.064536    0.066037   -0.068109   -0.026858
0.010495    0.066362     0.53473   -0.041799      0.2606   -0.059339   -0.026209
0.011469    0.086824     0.56007   -0.012567     0.41293   -0.050569   -0.022636
0.0049729    0.095269     0.57209    0.012768     0.51654   -0.039851   -0.013216
-0.00022403    0.091696     0.55065    0.026735     0.57371   -0.026209  -0.0018481
-0.0015233    0.080653     0.49316    0.028034      0.5919   -0.012567   0.0033489
0.0026992    0.065712     0.41261    0.022188     0.57793  -0.0041217    0.003024
0.0062721    0.047847     0.32198     0.01829     0.54091  -0.0050961   0.0017248
0.0095202    0.036479     0.22844    0.016341     0.49251   -0.018413   0.0026992
0.010819    0.042326     0.13717     0.01764     0.45223   -0.038551    0.003024
0.0078962    0.063763    0.059541    0.029333     0.43437   -0.054467  -0.0031473
0.00042559    0.090072    0.014717     0.05207     0.43794   -0.061613   -0.011592
-0.0083442     0.11281     0.02706    0.083251     0.45516   -0.057065   -0.018088
-0.010618     0.12483    0.099817     0.11183     0.48114   -0.041475   -0.021337
-0.0054209     0.12028     0.20148     0.13132     0.52174   -0.015815   -0.023285
0.0069217     0.10306     0.27684     0.13847     0.58151    0.011469   -0.022636
0.022188    0.079029     0.28626     0.13327     0.66108    0.031932   -0.018088
0.03453    0.055643     0.22032     0.11995     0.74748    0.042651   -0.013216
0.043625    0.039402    0.097543    0.099492     0.82836    0.050121  -0.0050961
0.046873    0.031282   -0.044723    0.078379     0.89689     0.06084   0.0069217
0.049472    0.029658    -0.15451    0.067011     0.94854    0.080003    0.023162
0.049472    0.030633    -0.17659    0.073182     0.98005     0.10989    0.042001
0.048822    0.029333   -0.060313     0.10014     0.98784     0.14432    0.059216
0.048497    0.022837     0.19109     0.13879      0.9638      0.1703    0.072858
0.048497   0.0056225     0.49543     0.17225     0.89462     0.17874    0.079029
0.041676   -0.030431     0.72994     0.18264     0.76535     0.16218    0.070259
0.028684   -0.095068      0.8027     0.16933     0.58216     0.12158    0.044599
0.015692    -0.18114     0.68902     0.14074     0.38305    0.064088    0.013093
0.0075714    -0.26624     0.43729     0.10664      0.2044   0.0059473   -0.013866
0.003024    -0.32146     0.13652    0.073182    0.066686   -0.035628   -0.027508
0.0017248    -0.32731    -0.12138    0.039402   -0.025559   -0.054467   -0.025559
0.0020496    -0.28865    -0.28183   0.0059473     -0.0824   -0.057065   -0.012892
0.0033489    -0.22207    -0.33932   -0.025234    -0.12527   -0.051868   0.0043233
0.0056225    -0.14346    -0.32438   -0.050244    -0.19641   -0.044723    0.021863
0.0046481   -0.071682    -0.28053   -0.071357     -0.3442   -0.035953    0.029333
0.0014   -0.021986    -0.24415   -0.090845    -0.58163   -0.029457    0.024786
-0.0011985   0.0033489    -0.22824    -0.11163    -0.86649   -0.029132    0.011144
-0.0050961     0.01017    -0.22791    -0.13145     -1.1189     -0.0405   -0.007045
-0.013216   0.0052977    -0.23246    -0.14736     -1.2468   -0.058689   -0.023285
-0.020362  -0.0011985    -0.23961    -0.15418     -1.1874   -0.077203    -0.03238
-0.020362  -0.0024977     -0.2474    -0.14346    -0.93892   -0.084999   -0.034654
-0.01549   0.0056225     -0.2526    -0.11488    -0.55662   -0.075255   -0.034654
-0.011917    0.022188    -0.25292   -0.075255    -0.11845   -0.045697   -0.038227
-0.013541    0.041351    -0.24838    -0.03303     0.29048  -0.0054209   -0.042774
-0.016464    0.058566    -0.24026   0.0020496     0.60392    0.033231   -0.041475
-0.017114     0.06831    -0.22791    0.026735     0.79198    0.064737   -0.031406
-0.008669    0.069934    -0.21557    0.040702     0.85694    0.083251   -0.015815
0.0075714    0.068635    -0.20908    0.040377     0.82219    0.087474      0.0014
0.018615    0.066362    -0.20875    0.024461     0.72475    0.077405    0.017316
0.01894    0.063113      -0.212  -0.0015233     0.60002     0.06019    0.027385
0.008221    0.060515    -0.21622   -0.026209     0.48309    0.040702    0.031932
-0.0047713    0.060515    -0.21752   -0.039526     0.39831    0.026735    0.031282
-0.012892    0.064413     -0.2146   -0.035628     0.35641    0.022188    0.022837
-0.011917    0.067661    -0.20745   -0.019388     0.35284    0.025111    0.010495
-0.0047713    0.066686    -0.20063  -0.0011985     0.36453    0.031282  -0.0024977
-0.0021729    0.063113    -0.19706   0.0062721     0.35739    0.031932  -0.0083442
-0.0060706    0.059216    -0.19446 -0.00087364     0.31029    0.023812  -0.0076946
-0.013216    0.055643    -0.19056   -0.015165     0.23591    0.009845  -0.0044465
-0.017764    0.054019    -0.18244   -0.024585     0.18557  -0.0021729  -0.0018481
-0.019388    0.055643    -0.16815   -0.022961     0.20408  -0.0047713  -0.0015233
-0.019388    0.059865    -0.14996    -0.01484      0.3025   0.0023744  -0.0021729
-0.021012    0.059216     -0.1334  -0.0089938     0.44574    0.009845  -0.0047713
-0.022636     0.05142     -0.1204   -0.012242     0.57566    0.012119  -0.0057458
-0.024909    0.037129    -0.11131   -0.024585     0.64484    0.010495  -0.0057458
-0.027508    0.019589    -0.10546    -0.04115      0.6364   0.0065969  -0.0063954
-0.030106 -0.00022403   -0.096367   -0.055441     0.56851   0.0017248  -0.0073698
-0.029782   -0.016464   -0.084674   -0.060963     0.48017 -0.00022403  -0.0057458
-0.027833   -0.025234   -0.078178   -0.058365     0.39929   0.0069217  0.00010078
-0.028807    -0.02426   -0.087922   -0.050894     0.33205    0.016666   0.0049729
-0.033354   -0.013541    -0.11521   -0.034654     0.26904    0.022512   0.0075714
-0.037577   0.0010752    -0.15061   -0.013216     0.19953    0.021863   0.0069217
-0.041475    0.011469    -0.18536      0.0014     0.12613    0.016991   0.0043233
-0.04115    0.012443     -0.2107   0.0026992    0.056617   0.0072465  -0.0011985
-0.0405    0.008221    -0.22012  -0.0060706   0.0017248  -0.0034721  -0.0044465
-0.042449   0.0010752    -0.21297   -0.012567   -0.034329   -0.011592  -0.0037969
-0.045372 -0.00087364    -0.19641  -0.0076946   -0.046996   -0.012242   0.0017248
-0.043423   0.0010752    -0.18147   0.0091954   -0.042449  0.00010078    0.008221
-0.034329    0.003024    -0.17465    0.034855   -0.030756    0.017965    0.013093
-0.020037   0.0039985    -0.17757    0.058241   -0.025234    0.034855    0.016666
-0.0044465   0.0033489    -0.18309    0.070584   -0.033354    0.047523    0.022837
0.0085458   0.0049729    -0.18309    0.068635   -0.056741     0.05272    0.028684
0.014717   0.0072465    -0.17659    0.062464   -0.093119    0.044924    0.029658
0.014392   0.0078962    -0.16653    0.055318    -0.14444    0.023162    0.025111
0.012119   0.0052977    -0.15743    0.046223    -0.20323  -0.0067202     0.01894
0.013743      0.0014    -0.15256    0.037778     -0.2578   -0.027508    0.014717
0.016341  -0.0024977    -0.15873     0.03518    -0.29872   -0.030106    0.013093
0.021213  -0.0024977    -0.17822    0.041676     -0.3286   -0.016464    0.016991
0.028034   0.0036737    -0.21395    0.056942    -0.35719    0.003024    0.029009
0.032257    0.017316    -0.25845     0.07773    -0.39259    0.021213     0.04395
0.031932    0.035505    -0.28768    0.096893    -0.42637    0.036154    0.058566
0.027709    0.054668    -0.26787     0.10144      -0.428    0.048497    0.069934
0.024461     0.06961      -0.174    0.086175    -0.36011    0.056942    0.074157
0.023812    0.072533  0.00075039    0.057592     -0.2081    0.057267    0.069285
0.024461    0.062464     0.22129    0.024786 -0.00087364    0.050446    0.058566
0.023812    0.042651      0.4269  -0.0018481     0.20733    0.042001    0.045249
0.020564    0.019914     0.56397    -0.01549     0.35804    0.034206    0.032582
0.014068   0.0023744     0.61691   -0.017439     0.41878    0.028684    0.026735
0.0065969   -0.008669     0.60814   -0.014516     0.38825    0.023812    0.027709
0.00010078   -0.013541     0.57209   -0.010943      0.2986    0.022188    0.027385
-0.0063954   -0.012567     0.54643  -0.0080194     0.18589    0.022512    0.020239
-0.011267  -0.0083442     0.55032  -0.0054209    0.081952    0.023487   0.0085458
-0.013866  -0.0034721     0.57663  -0.0028225  -0.0024977     0.01894  -0.0034721
-0.0096434  0.00075039     0.57956  -0.0047713   -0.070058    0.003024   -0.015165
0.00042559   0.0020496     0.48666   -0.013216    -0.12495   -0.020037   -0.026533
0.011469 -0.00022403     0.24955   -0.023935    -0.17659   -0.042449   -0.035303
0.014068  -0.0037969   -0.067784   -0.033354    -0.23701   -0.056416   -0.038551
0.0049729  -0.0073698    -0.31561   -0.038876    -0.31918   -0.062262   -0.037902
-0.01614   -0.015165    -0.38869   -0.039201    -0.42085   -0.063561   -0.037902
-0.041799   -0.029457    -0.30197   -0.029457    -0.52966   -0.064536   -0.038227
-0.063237   -0.051219    -0.14964   -0.010943    -0.63003   -0.064211   -0.035628
-0.071682   -0.079802   -0.035628    0.008221     -0.7135    -0.06681   -0.030106
-0.06681    -0.10903   -0.012567    0.019264    -0.76742   -0.072656   -0.021986
-0.055766    -0.13404   -0.069083    0.019914    -0.77814   -0.081426   -0.012242
-0.044073    -0.15061    -0.15093    0.012119    -0.74176   -0.089871  -0.0037969
-0.037252    -0.15678    -0.19706   0.0023744    -0.66186   -0.093119      0.0014
-0.035953    -0.15386    -0.16847  0.00010078    -0.55532   -0.086298   0.0020496
-0.038876    -0.14379   -0.061288   0.0046481    -0.44716    -0.06681  -0.0024977
-0.042124     -0.1256    0.091047    0.011469    -0.35524   -0.041799   -0.012567
-0.044073    -0.09994     0.24598    0.020239    -0.29028   -0.016789   -0.023935
-0.043748   -0.073631     0.36389    0.029009    -0.25033   0.0059473   -0.032705
-0.038876   -0.052843     0.42397    0.035505    -0.22564    0.025436   -0.034654
-0.027183   -0.035628      0.4217     0.03583    -0.19771    0.041027   -0.028157
-0.012567    -0.02361     0.36356    0.031282    -0.15061    0.049796   -0.016464
0.0039985   -0.012892     0.27196    0.022512   -0.087272    0.048172  -0.0063954
0.020564  -0.0015233       0.169    0.014068   -0.023935    0.041351  -0.0028225
0.037454    0.011794    0.074806   0.0095202    0.024137    0.033881  -0.0063954
0.047198    0.025436  0.00042559   0.0088706    0.058241    0.030957   -0.014516
0.045249    0.034206   -0.054467   0.0072465     0.10112    0.030957   -0.026533
0.032257     0.03518   -0.094743 -0.00022403       0.169    0.025761   -0.038551
0.012768    0.029009    -0.12592   -0.010943     0.24143    0.010819    -0.04862
-0.0073698    0.020239    -0.14801   -0.022636     0.25735   -0.016464   -0.054467
-0.022311   0.0095202    -0.15905   -0.037902     0.13327   -0.052843   -0.059664
-0.029132  -0.0018481    -0.15841   -0.054142    -0.16815   -0.093119   -0.060638
-0.030106  -0.0076946    -0.14801   -0.068109    -0.56409    -0.12722    -0.05739
-0.027833   -0.007045    -0.13372   -0.070382    -0.89767    -0.14639   -0.045697
-0.022311    0.003024    -0.12008   -0.054467     -1.0406    -0.14541   -0.025234
-0.013866     0.01829    -0.10741   -0.022961    -0.96685    -0.12625  -0.0054209
-0.0018481    0.032257   -0.095717    0.010495    -0.75443   -0.096692   0.0078962
0.0072465    0.038428   -0.084024    0.033556    -0.52251   -0.068758     0.01017
0.010495    0.037129    -0.07493    0.039078    -0.35946   -0.054467  -0.0024977
0.0069217    0.029658   -0.073631    0.029658     -0.2906   -0.063237    -0.02361
-0.0015233     0.01894   -0.082725   0.0095202    -0.28638   -0.091495    -0.04927
-0.016789   0.0075714   -0.096367   -0.014191      -0.301    -0.12982   -0.071682
-0.039201  -0.0024977    -0.11228   -0.034654    -0.29255    -0.16328   -0.084999
-0.062587   -0.012567     -0.1269   -0.048945    -0.24578    -0.18017   -0.083375
-0.081101   -0.023285    -0.13762   -0.058689     -0.1649    -0.17822   -0.072331
-0.089871   -0.032705    -0.13957   -0.067134    -0.05804    -0.16198   -0.060313
-0.090845   -0.039851    -0.13567   -0.076554    0.063438    -0.13859   -0.052843
-0.087597     -0.0405     -0.1308   -0.086298     0.19076    -0.11358   -0.050569
-0.081101   -0.034329    -0.13567   -0.094418     0.31224   -0.090521   -0.053492
-0.072331   -0.023285    -0.15646    -0.10059     0.40903   -0.073306   -0.055116
-0.061937   -0.010943    -0.18991   -0.099615     0.46587    -0.05804   -0.050569
-0.047971  0.00075039    -0.23019   -0.086298     0.47205   -0.038227   -0.038876
-0.034329    0.009845    -0.26559   -0.063561     0.42787   -0.010943   -0.024909
-0.020037    0.017316    -0.28865   -0.037902     0.33758    0.019589   -0.011917
-0.0044465    0.023487    -0.30035   -0.017764     0.20083    0.045574  -0.0011985
0.014717    0.024786    -0.30879  -0.0067202     0.04395     0.06019   0.0078962
0.032582    0.019589    -0.31561  -0.0011985   -0.092794    0.061165    0.016016
0.042001    0.013743    -0.32243   0.0049729    -0.18569    0.049147    0.020888
0.043625    0.012119    -0.32925    0.012768    -0.23571    0.026735    0.021538
0.038428    0.017316    -0.34095    0.021863    -0.25747      0.0014     0.01894
0.028359    0.028684     -0.3718    0.028034    -0.28086    -0.02426    0.012768
0.016341    0.039727    -0.43059    0.024137    -0.33153   -0.050894   0.0065969
0.0075714    0.046548    -0.49523    0.009845    -0.40786   -0.080451   0.0043233
0.0039985    0.048172    -0.48971   -0.012242    -0.47932    -0.11163   0.0088706
0.0062721    0.044924    -0.31334   -0.035953    -0.50757    -0.13859    0.016666
0.015042    0.037454    0.071883   -0.053168    -0.46925    -0.15353    0.024461
0.028034    0.028359     0.57533   -0.053492    -0.37635    -0.15548    0.026735
0.040377    0.020564      1.0525   -0.034004    -0.26364    -0.14769    0.018615
0.046873     0.01894      1.3786  -0.0015233     -0.1636    -0.13469   0.0056225
0.047523    0.025436      1.4806     0.03518   -0.085324    -0.12008  -0.0063954
0.044599    0.034855      1.3584    0.066037   -0.029457    -0.09994   -0.011917
0.045574    0.042326      1.0749    0.083901    0.008221   -0.074605   -0.007045
0.054019    0.047198     0.73157    0.086175    0.031607   -0.044073   0.0085458
0.068635    0.050771      0.4217    0.075456    0.044599   -0.013866    0.028684
0.082927    0.052395     0.20798    0.059216     0.06084    0.011469    0.044924
0.089748    0.051096     0.10631    0.045899    0.091372    0.033231    0.053044
0.088124    0.046873    0.075781    0.041676     0.14594    0.055968    0.054344
0.078704    0.042001    0.067986    0.047198     0.22357    0.077405    0.049796
0.065712    0.038428    0.054019    0.064088     0.31614    0.091696    0.041676
0.053044    0.031282    0.036479    0.079029     0.40871    0.096244    0.030957
0.042326    0.020239    0.046223    0.081627     0.48341    0.092346    0.022188
0.032257   0.0010752    0.095269    0.069285     0.53343    0.084551    0.016991
0.023162   -0.028482     0.15763    0.048822     0.56884     0.07708    0.014392
0.014068   -0.059014      0.2161    0.031607     0.60457    0.067986    0.013093
0.0069217   -0.082725     0.27651    0.026735     0.64809    0.055643    0.011144
0.0026992   -0.089871     0.34602    0.030957     0.69486    0.039727   0.0078962
0.003024   -0.082076     0.40221    0.038103     0.73287    0.025761   0.0043233
0.0062721   -0.068758     0.38695    0.037454     0.74294    0.009845   0.0043233
0.0095202   -0.059989      0.2148    0.022512     0.70753  -0.0057458   0.0059473
0.0088706   -0.064861    -0.15126  -0.0054209     0.61788   -0.019712   0.0046481
0.0033489   -0.079152    -0.64334   -0.036278     0.48601   -0.028157 -0.00054884
-0.0031473   -0.092794     -1.1088   -0.057065     0.32621   -0.027508  -0.0063954
-0.008669   -0.096692     -1.3914   -0.056416     0.14302   -0.016464  -0.0083442
-0.013866   -0.086623     -1.4177   -0.037577   -0.070382   0.0049729  -0.0050961
-0.016789   -0.068109     -1.2153  -0.0096434    -0.33413    0.030308   0.0033489
-0.017439   -0.047971    -0.88825    0.015367    -0.64269     0.05142    0.013743
-0.015815   -0.033679    -0.55759    0.029658    -0.94736    0.062464    0.024461
-0.013216   -0.023285    -0.30652    0.035505     -1.1757    0.062139    0.032257
-0.0089938   -0.014191     -0.1623    0.039078      -1.266    0.051096    0.032582
-0.0054209  -0.0044465    -0.10351    0.046873     -1.2186     0.03453    0.026085
-0.0057458   0.0078962   -0.088247    0.054019      -1.064    0.019264    0.018615
-0.010943    0.020239   -0.084024    0.057267    -0.83498   0.0052977    0.015367
-0.017114    0.032582   -0.074605    0.051096    -0.56799  -0.0041217    0.014717
-0.020687    0.044275   -0.050569    0.036154    -0.30359  -0.0047713    0.013093
-0.022311    0.055318   0.0085458    0.023812   -0.072981   0.0017248    0.011144
-0.022636    0.061814     0.11151     0.01894     0.11281    0.011794    0.008221
-0.022636    0.062789      0.2476    0.020239     0.25443    0.023487 -0.00022403
-0.018738    0.059216     0.39019    0.019589     0.36194    0.036479  -0.0096434
-0.012892    0.051745     0.51102    0.015367     0.45256    0.049796   -0.013541
-0.0060706    0.047198     0.59255    0.010495     0.53733     0.06084   -0.012892
-0.0018481    0.048497      0.6351    0.010495     0.61659    0.065062  -0.0083442
-0.0037969    0.055643     0.64777    0.018615     0.66888    0.064088  0.00075039
-0.011592    0.062789     0.63997    0.032257     0.66368    0.061165   0.0085458
-0.024585    0.064737     0.61529    0.047198     0.58605    0.054993    0.010495
-0.034978    0.061165     0.57209     0.06019     0.46035    0.050446   0.0046481
-0.037252    0.054993     0.52077    0.069934     0.33303    0.051096  -0.0054209
-0.031081    0.050446     0.47205    0.072858     0.24208    0.055968  -0.0096434
-0.018738    0.046223     0.42625    0.066037     0.18589    0.063438  -0.0031473
-0.0024977    0.042326     0.37201    0.051745     0.15731    0.066037    0.012443
0.012443    0.039078     0.30769    0.037454     0.16121    0.062464     0.02706
0.020239    0.033231     0.23266     0.02641     0.19304    0.053694     0.03518
0.019914    0.023812     0.13132    0.019264     0.24533    0.043625    0.038428
0.015042    0.011794   -0.060638   0.0095202      0.2999     0.03453    0.037454
0.0085458  -0.0034721     -0.4228  -0.0060706       0.334    0.027709    0.033881
0.0056225   -0.021661    -0.98147   -0.026533     0.33498    0.025111    0.028684
0.0020496   -0.035953     -1.6363   -0.045697     0.30542    0.025761    0.023487
-0.00087364     -0.0405     -2.1956   -0.054467     0.25313    0.029658    0.024137
0.00075039   -0.030431     -2.4788   -0.049595     0.19369    0.038103    0.028684
0.0046481   -0.012242     -2.3967   -0.032705     0.14139    0.047198    0.030308
0.0069217   0.0046481     -1.9893   -0.008669     0.10242    0.057267    0.028684
0.0046481    0.011794     -1.3966    0.018615     0.08585    0.060515    0.024461
0.00042559   0.0078962    -0.78106    0.045574     0.11313    0.055968    0.021538
-0.0063954  0.00042559    -0.27144    0.069285     0.19596    0.043625    0.020564
-0.01484  -0.0047713    0.070909    0.082927     0.32069    0.029009    0.020564
-0.023285  -0.0057458     0.25507    0.078379     0.45256    0.015367    0.016341
-0.030431  -0.0054209     0.33011    0.059216      0.5578   0.0046481   0.0088706
-0.035628  -0.0034721     0.34602    0.031932     0.61788   -0.007045   0.0033489
-0.039201 -0.00022403     0.34277   0.0043233     0.62893   -0.021986  0.00042559
-0.042449   0.0059473     0.33465   -0.017114     0.59742   -0.038551  -0.0018481
-0.043099     0.01017     0.32101   -0.034329     0.53701   -0.058365   -0.007045
-0.042774     0.01017     0.29503   -0.050894     0.46133   -0.084999   -0.018738
-0.046671   0.0036737      0.2619   -0.070058     0.38792    -0.11683   -0.036927
-0.053817  -0.0050961     0.22974   -0.087922     0.33465    -0.14769   -0.059014
-0.061288   -0.015815     0.20863   -0.097341     0.31386    -0.17075   -0.076879
-0.067134   -0.021661     0.20733   -0.096367     0.31062    -0.17919   -0.085324
-0.070382   -0.021337     0.22324   -0.091495     0.28853    -0.17302   -0.085324
-0.072656   -0.013866      0.2476   -0.087922      0.2161    -0.15808   -0.079477
-0.07428  -0.0047713     0.27002   -0.085648    0.092671    -0.14152   -0.072656
-0.076229   0.0039985     0.27944   -0.082076   -0.062587    -0.12787   -0.062262
-0.075579     0.01017     0.26937   -0.075255    -0.22174    -0.11683   -0.050244
-0.070707    0.009845     0.25572   -0.063886    -0.36596    -0.10676   -0.037902
-0.061937   0.0043233     0.27424   -0.048945    -0.48711    -0.10026   -0.026858
-0.051868  -0.0015233     0.37525    -0.03303    -0.58001   -0.097341   -0.020037
-0.042124  -0.0054209       0.588   -0.016789    -0.64107   -0.094743    -0.01484
-0.036278   -0.008669     0.86831   -0.007045    -0.65958   -0.086298   -0.013216
-0.034978   -0.011267       1.121  -0.0041217    -0.62256   -0.070382   -0.011267
-0.034654   -0.012892      1.2555   -0.007045    -0.52901   -0.050569  -0.0067202
-0.032055    -0.01484      1.2272   -0.012892    -0.39162   -0.034329  -0.0011985
-0.025234   -0.017764      1.0531   -0.018088    -0.23474   -0.023935   0.0033489
-0.017439    -0.02361     0.79685   -0.021337   -0.079802   -0.021986   0.0056225
-0.0089938   -0.029457     0.52499   -0.022636    0.061489   -0.027833   0.0026992
-0.0031473   -0.034654     0.28691   -0.021661     0.17907   -0.038227  -0.0073698
-0.0011985   -0.036278     0.10209    -0.02361     0.26287   -0.048296   -0.021337
0.00042559   -0.035303   -0.037252   -0.030756     0.30769   -0.055441   -0.034329
0.0065969   -0.033679    -0.14866   -0.041475     0.30997   -0.059339   -0.043748
0.01894   -0.033354    -0.23733    -0.04992     0.27976   -0.063561   -0.045047
0.031607   -0.030431    -0.29515   -0.055116     0.23591   -0.072656   -0.040825
0.03453   -0.026858    -0.31399   -0.058689     0.20538   -0.086948   -0.035303
0.027385   -0.024585    -0.29515   -0.060638     0.20603    -0.10156    -0.03238
0.013418   -0.023285     -0.2487   -0.058689     0.24273    -0.11033    -0.03303
0.00042559   -0.022311    -0.19089   -0.052518     0.30867    -0.10579   -0.036278
-0.0067202   -0.022961    -0.13794   -0.046671     0.38597   -0.088572   -0.038876
-0.0057458   -0.024909    -0.09929   -0.043748     0.45191   -0.063886   -0.037577
0.0020496   -0.028157   -0.073631   -0.041475     0.49024    -0.04115   -0.033679
0.013093   -0.029457   -0.053168   -0.035953     0.49706    -0.02426    -0.03238
0.022188   -0.032705   -0.029457   -0.027833     0.47205   -0.016464   -0.035953
0.025436   -0.037902   0.0088706   -0.017764     0.41261    -0.01484   -0.039526
0.01894   -0.042449    0.067986  -0.0054209     0.32361    -0.01614   -0.038227
0.0062721   -0.043423     0.14691   0.0072465     0.21252   -0.017764   -0.032055
-0.0050961   -0.037902     0.23624    0.014068    0.076106   -0.022311   -0.022311
-0.0093186   -0.024585     0.32588    0.012443   -0.098641    -0.03238   -0.019388
-0.0057458   -0.007045     0.40968   0.0046481     -0.2997   -0.048945   -0.023285
0.0033489   0.0088706     0.49608  -0.0031473    -0.49523   -0.068758   -0.029132
0.018615    0.023162     0.59645  -0.0073698    -0.64497   -0.083375   -0.031081
0.037129    0.036154     0.69421  -0.0015233    -0.72195   -0.086298   -0.028157
0.05142    0.050446     0.75625    0.011794    -0.72747    -0.07428   -0.021661
0.06084    0.066037      0.7582    0.032906    -0.69596    -0.04862   -0.012892
0.067336    0.078704     0.69389    0.060515    -0.67777    -0.01614  -0.0015233
