-0.11033    0.075781    0.016016   -0.069408     0.27976    0.024137    0.035505
0.027385    0.049147    0.019264     0.06084     0.28236    0.023487    0.066362
0.16478    0.029658    0.025111     0.19369     0.27814    0.022188    0.086175
0.27326    0.031607    0.032257     0.32036      0.2502    0.023812    0.088124
0.3353    0.062139    0.040052     0.42332     0.21025    0.028359    0.071234
0.34894     0.11508    0.045899     0.48894     0.21285    0.037454    0.042001
0.32198     0.16933    0.045574       0.512     0.34472    0.051745    0.013743
0.27359     0.19758    0.037454     0.49283     0.65914    0.075456  -0.0018481
0.22974     0.18362    0.022837     0.44184      1.1168     0.10242  0.00075039
0.20668     0.13035   0.0091954     0.36843      1.5995     0.12872    0.024137
0.19076    0.053369  -0.0024977     0.28203      1.9519     0.14691    0.054668
0.15731   -0.029132   -0.011917     0.19076      2.0347     0.15049    0.073507
0.078704    -0.10059   -0.025559    0.095594      1.7304     0.12937    0.064413
-0.050244    -0.15126    -0.04115  0.00010078     0.97875    0.083901    0.029333
-0.20615    -0.18309   -0.055116   -0.084024    -0.06616    0.022188   -0.014516
-0.35621    -0.20193   -0.061288    -0.13534     -1.0065   -0.043099   -0.049595
-0.47347    -0.21297    -0.05804    -0.12787      -1.481   -0.096692   -0.072006
-0.54363    -0.21979   -0.045047    -0.04862      -1.353    -0.13762   -0.086623
-0.56766    -0.22337   -0.024585    0.067661    -0.74598     -0.1701   -0.098316
-0.5511    -0.22109   -0.011592     0.14821    0.022188     -0.2016    -0.11326
-0.49913    -0.20258   -0.014516     0.12937     0.60652    -0.23798    -0.13047
-0.41403    -0.15905   -0.028482  -0.0028225     0.83713    -0.27566    -0.14964
-0.2971   -0.086298   -0.043099    -0.20875     0.74553    -0.30587    -0.16068
-0.15548   0.0085458   -0.042774    -0.41858     0.48341    -0.31561    -0.15386
-0.010618     0.10761   -0.022311    -0.56604     0.21155    -0.30262    -0.12722
0.10761     0.18459    0.017316    -0.61703    0.019589    -0.27371   -0.085324
0.18037     0.21512    0.064413    -0.60729   -0.098965    -0.23961   -0.043748
0.20863     0.18816     0.10079    -0.62223    -0.21362     -0.2081   -0.018738
0.20505     0.11151     0.11151    -0.71772    -0.41533    -0.18504   -0.019063
0.18654   0.0069217    0.091047     -0.8785    -0.75767      -0.174   -0.040175
0.1638   -0.090196    0.051745     -1.0549     -1.1968    -0.16945   -0.065835
0.13717    -0.15353   0.0091954     -1.2257     -1.6093    -0.16555   -0.077203
0.096569      -0.174   -0.026858     -1.4014      -1.887    -0.16003   -0.072331
0.029658    -0.16198   -0.056091     -1.5674     -1.9851    -0.15321   -0.058365
-0.059664    -0.12852   -0.078178     -1.6278     -1.9062    -0.14769   -0.044398
-0.13859   -0.073631     -0.0837     -1.4401     -1.6717    -0.13989    -0.03303
-0.16555   0.0091954   -0.059664    -0.91391     -1.3189    -0.12138   -0.024585
-0.1269     0.10859  -0.0076946   -0.093119    -0.89832   -0.089546   -0.017439
-0.038876     0.19271    0.059216     0.83031    -0.47217   -0.045697  -0.0076946
0.067336     0.23559     0.11866      1.6225   -0.084674  -0.0063954   0.0023744
0.16088     0.22617     0.15731      2.1312     0.22909    0.020888   0.0088706
0.22617     0.17907     0.17257      2.3137     0.43924    0.027385    0.012443
0.26514      0.1258     0.16478      2.2169     0.52856    0.017965    0.015042
0.28691    0.092021      0.1349      1.9321     0.51297   0.0023744    0.014068
0.30087    0.084551    0.083251      1.5624     0.44249   -0.014191    0.010819
0.30737    0.092671    0.019589      1.1977      0.3785   -0.032055   0.0026992
0.2986    0.095919   -0.046022     0.89365     0.37168   -0.046022  -0.0034721
0.25507    0.083251    -0.11131     0.67018     0.44379   -0.047646  -0.0028225
0.16056    0.055643    -0.16912     0.52174     0.58475   -0.036927   0.0017248
0.012119     0.02641     -0.2094     0.41715     0.74521   -0.024585   0.0075714
-0.1662   0.0043233    -0.22532     0.30932     0.86149   -0.021012    0.009845
-0.3351   -0.011592    -0.22142     0.15763     0.87676   -0.029132   0.0075714
-0.44554   -0.030756    -0.19803   -0.067134       0.766   -0.042449   0.0026992
-0.47509   -0.062262    -0.14834    -0.35426     0.55032   -0.055766  -0.0054209
-0.42345    -0.09994   -0.063237    -0.64009     0.27814   -0.062262   -0.014516
-0.32341     -0.1282    0.047523    -0.85317  -0.0015233   -0.060963   -0.027183
-0.23019    -0.12917     0.15016     -0.9623       -0.25   -0.055441   -0.041475
-0.19089   -0.098641     0.20635    -0.97887    -0.43969   -0.047321   -0.052518
-0.22564   -0.043099     0.20311    -0.92365    -0.55922   -0.038876   -0.059664
-0.32503    0.019589     0.15536     -0.7973    -0.59917   -0.028807   -0.063561
-0.4699     0.06961    0.096244     -0.5904      -0.555   -0.018413   -0.068434
-0.63587    0.089098    0.050121    -0.31529    -0.43287  -0.0096434   -0.077853
-0.78756    0.074157     0.03583   -0.027508    -0.25877  -0.0034721   -0.090845
-0.87623    0.036154    0.064737     0.20083    -0.06551   0.0043233    -0.10026
-0.85804  -0.0063954     0.13197     0.29048     0.10599    0.025436   -0.096692
-0.72389   -0.038227     0.20603     0.14432      0.2174    0.066037   -0.075579
-0.49426   -0.054792     0.24501    -0.27241     0.25767     0.12775   -0.035303
-0.19706   -0.050244     0.22065    -0.86194     0.21967     0.20668    0.022188
0.1349    -0.03173      0.1245     -1.4632     0.10761     0.29243      0.0865
0.45418   -0.013541   -0.025234     -1.9539   -0.043423     0.36551     0.14854
0.70428  -0.0093186    -0.18991     -2.2713    -0.18277     0.41163     0.20148
0.85597    -0.01614    -0.31821     -2.3424    -0.27046     0.42755     0.24306
0.91151   -0.021337    -0.36758     -2.0481    -0.30457     0.41748     0.27067
0.89949   -0.014191    -0.32666     -1.2832    -0.32731     0.38792     0.28203
0.85305    0.011144    -0.22499   -0.096367    -0.41176      0.3366     0.27554
0.79848     0.05142    -0.11196      1.1964    -0.60631     0.25507     0.24306
0.73287    0.087149   -0.034978      2.1906    -0.87038     0.13847     0.17615
0.639    0.092346   -0.017439      2.6418     -1.0922   0.0059473    0.080978
0.51492    0.056617   -0.047971      2.5294     -1.1426    -0.11683   -0.015815
0.38727  -0.0089938    -0.10189      2.0263    -0.95548    -0.20485   -0.084024
0.27781   -0.083375    -0.14866      1.3698    -0.57318    -0.23863    -0.10449
0.17257    -0.14899    -0.16782      0.7686    -0.11131    -0.21557   -0.081751
0.048822     -0.2081    -0.15256     0.35154     0.31484    -0.14574   -0.036602
-0.097017    -0.26949    -0.11488     0.15114     0.63607   -0.053817   0.0049729
-0.24188     -0.3403   -0.068434     0.10371     0.83291     0.03583    0.023162
-0.36271    -0.41046   -0.025234    0.097868     0.92061     0.10436    0.013093
-0.43514    -0.44976   0.0036737    0.078704     0.93782     0.14204   -0.018088
-0.44261     -0.4202    0.020888     0.10274     0.94237     0.15179   -0.054467
-0.38739    -0.31171    0.036479     0.24403      0.9755     0.14139   -0.080776
-0.2906    -0.14996    0.054344     0.47594      1.0408     0.11768   -0.088247
-0.18601    0.019589    0.071234     0.67505      1.1148    0.087799   -0.077853
-0.11683     0.15373    0.073832     0.70591      1.1642    0.059216   -0.059339
-0.11651     0.22682    0.058241     0.48179      1.1574    0.030633   -0.045047
-0.19316     0.23071    0.030308  -0.0028225      1.0739   0.0017248   -0.045697
-0.31431     0.18459   0.0043233    -0.63652     0.92808   -0.026533   -0.060963
-0.42247      0.1349   0.0010752     -1.1949     0.77477   -0.052193     -0.0824
-0.4608     0.12418    0.032582     -1.4329     0.67375   -0.073631   -0.093769
-0.39876     0.17355    0.092346     -1.1793     0.63153   -0.087922   -0.080127
-0.24188     0.26255     0.15796    -0.41013     0.58995   -0.093444     -0.0405
-0.029132     0.35187     0.20018     0.67895     0.47497   -0.092145    0.013418
0.18459     0.40384     0.19953      1.7118     0.24306   -0.088572    0.062789
0.34667     0.39961     0.15049      2.3501    -0.10806   -0.085648    0.091047
0.41683     0.33368    0.061489      2.4056    -0.55045   -0.089546      0.0852
0.39084     0.21317    -0.04992      1.8921     -1.0614    -0.10221    0.047847
0.31906    0.061814    -0.15386     0.97128     -1.6025    -0.11586   0.0062721
0.27619   -0.078827    -0.22272    -0.12592     -2.0917    -0.11456  -0.0099683
0.32296    -0.17205    -0.24448     -1.1335     -2.4337   -0.087272    0.014068
0.4701    -0.21167    -0.22077     -1.8386     -2.5646   -0.038551    0.072533
0.66791    -0.21427    -0.16425     -2.0858      -2.486    0.020888     0.14367
0.83096    -0.20323   -0.081426     -1.8088     -2.2495    0.075131     0.20051
0.88715     -0.2042   0.0095202     -1.1406      -1.926     0.10989     0.22357
0.80238    -0.23668    0.080978    -0.38122     -1.5746     0.11866     0.20863
0.58183    -0.30197     0.10566      0.1729     -1.2416     0.10436     0.16315
0.26644    -0.37278    0.074806      0.3733    -0.94801    0.071883     0.10079
-0.077853    -0.40558   0.0033489     0.26644     -0.6755    0.028684     0.03453
-0.37505    -0.36368   -0.072981    0.015692    -0.37148  -0.0080194   -0.013866
-0.56734    -0.23603    -0.12235     -0.2094    0.025761   -0.018413   -0.033679
-0.62938   -0.042449    -0.12885    -0.33218     0.52889  0.00010078   -0.025884
-0.57059     0.17615   -0.094743    -0.34095      1.0885     0.03518  -0.0057458
-0.4215     0.37265   -0.034654    -0.22921      1.6157     0.06831    0.013418
-0.23733     0.50518    0.036479   -0.011917      2.0207     0.07708    0.023487
-0.078503     0.54805     0.10599     0.24728      2.2413    0.046873    0.021538
0.012768      0.5016     0.16575      0.4701      2.2591   -0.028807   0.0056225
0.020239     0.38987     0.20928     0.61041      2.0935    -0.13632   -0.020362
-0.035303     0.24598     0.23266     0.66693       1.796     -0.2448   -0.050569
-0.12073     0.10826     0.22844     0.65621      1.4198    -0.32601   -0.082725
-0.20615   0.0026992     0.19758     0.57858      1.0018    -0.35881    -0.10936
-0.27469   -0.058689     0.15438     0.42397     0.55974    -0.33737     -0.1191
-0.31561     -0.0837     0.11411     0.19531    0.063113    -0.27014    -0.10026
-0.32308   -0.087922    0.082927   -0.079477    -0.51537    -0.17984   -0.052518
-0.30294   -0.081751    0.054668    -0.35102     -1.1409   -0.093119    0.010495
-0.26494   -0.068109    0.021213    -0.57676     -1.7266   -0.027183    0.067661
-0.21557    -0.04927   -0.018088    -0.74501     -2.1618    0.015692     0.10566
-0.15483   -0.028157   -0.056416    -0.86811      -2.357    0.040377     0.11768
-0.092145  -0.0047713   -0.087597    -0.96912     -2.2752    0.054344     0.10956
-0.039526    0.019589    -0.11033     -1.0679     -1.9513    0.062139    0.089748
-0.0067202    0.039078     -0.1243     -1.1426     -1.4612    0.066362    0.064088
0.0036737    0.048497    -0.12722     -1.1383    -0.89832    0.073832    0.035505
-0.0047713    0.038428    -0.12008     -1.0159    -0.36693    0.081952   0.0056225
-0.030106   0.0026992    -0.10644    -0.76807    0.047847    0.083576   -0.023935
-0.067459   -0.053168   -0.093444    -0.42442     0.28008    0.075781   -0.051544
-0.095068    -0.11878   -0.081426   -0.047646     0.29568    0.054993   -0.076229
-0.089871    -0.17237   -0.071032     0.28398     0.11963    0.021213   -0.099615
-0.053817    -0.20388   -0.059664     0.51882    -0.14899   -0.028157    -0.12203
-0.0060706    -0.21297   -0.038551     0.64062    -0.38187   -0.090521    -0.14411
0.021213    -0.21135  -0.0047713     0.66043    -0.46795    -0.15093    -0.16912
-0.0083442    -0.21979     0.03583     0.61626    -0.35589    -0.19089    -0.19543
-0.11228     -0.2578    0.073832     0.54805   -0.078503    -0.19836    -0.21622
-0.27014     -0.3299    0.098842     0.48082     0.26872    -0.17692    -0.22369
-0.42182    -0.42962     0.10242     0.41553     0.57858    -0.13924    -0.21167
-0.49231    -0.52349    0.080653      0.3457     0.78516    -0.09929    -0.18049
-0.43709    -0.56896    0.038103     0.26612     0.87676   -0.068434    -0.13762
-0.2591    -0.52414    -0.01614     0.17517     0.87708   -0.057715   -0.095068
-0.0044465    -0.37148   -0.069733    0.073832     0.82024   -0.070382   -0.068758
0.25443     -0.1321    -0.10871    -0.03173     0.74229   -0.093769   -0.059014
0.45386     0.14886    -0.12657    -0.13469     0.67667    -0.10871   -0.058689
0.55325     0.40903    -0.12787    -0.23344     0.65459   -0.099615   -0.051544
0.54285     0.60099     -0.1178    -0.32016     0.68577   -0.066485   -0.029782
0.43924     0.69844    -0.10611    -0.39454     0.73579   -0.020687   0.0091954
0.28496     0.69779    -0.10189    -0.46405     0.74651    0.021863    0.051745
0.12255     0.62438    -0.10838    -0.54103     0.66628    0.050771    0.083901
-0.011267     0.51427     -0.1269     -0.6349     0.46815    0.058891    0.098193
-0.093444     0.40708    -0.15158    -0.75475     0.15796    0.047523    0.092346
-0.11196     0.32426    -0.17237    -0.86519    -0.21232    0.026735    0.075456
-0.062912     0.27099    -0.17594    -0.85674     -0.5498   0.0056225    0.058566
0.03583     0.24793    -0.14866    -0.63587     -0.7528   -0.010293    0.048172
0.14951      0.2502   -0.092145    -0.23084    -0.76709   -0.020037    0.045249
0.24371     0.26969   -0.012892     0.22617    -0.61638   -0.017439    0.048172
0.29827     0.29892    0.073507     0.60132    -0.37115  -0.0024977     0.05207
0.30607     0.32523     0.15146     0.82316    -0.10254    0.023812    0.054019
0.26872     0.33205     0.20376     0.89982     0.13684    0.051745    0.049796
0.18622     0.30542     0.22194     0.88488     0.31939     0.06961    0.037778
0.06896     0.23883      0.2083     0.83551     0.43404    0.068635    0.017965
-0.058689     0.14464     0.17387     0.77801     0.47399    0.045249  -0.0050961
-0.16328    0.046223     0.13035     0.71273     0.43599   0.0062721   -0.025559
-0.21232   -0.033679    0.092671     0.63055     0.31581   -0.038551   -0.038876
-0.18699   -0.080127    0.069285     0.53408      0.1336   -0.081751   -0.039851
-0.089546    -0.09117     0.06084     0.43145   -0.030756    -0.11293   -0.030431
0.055318   -0.082076    0.066362     0.33465   -0.083375    -0.13145   -0.016789
0.20473   -0.072981    0.083576     0.25572    0.030957    -0.13762  0.00010078
0.31159   -0.077528     0.10534     0.20668     0.29373     -0.1321    0.016991
0.33628    -0.10254     0.12125     0.18622     0.62113    -0.11488    0.030633
0.26514    -0.14216     0.12483     0.17322     0.92353   -0.082076    0.037778
0.12905    -0.17692     0.11476     0.13847      1.1411   -0.042124    0.037454
-0.023935    -0.18764     0.09462     0.06961      1.2461  -0.0018481    0.029009
-0.15126    -0.16847    0.078704   -0.019388      1.2201     0.02706    0.011469
-0.23896    -0.13827    0.074482    -0.09994        1.07    0.040052   -0.010293
-0.29742     -0.1269    0.080653    -0.14606     0.83713    0.041351   -0.030431
-0.32925    -0.15158    0.088773    -0.14834     0.57598    0.037129   -0.040825
-0.32925     -0.2159    0.086824    -0.11358      0.3353    0.033231   -0.040825
-0.32211    -0.31594    0.059216   -0.060313     0.15179    0.032257   -0.040175
-0.33802    -0.43124   0.0072465   -0.014516    0.038103    0.031607   -0.047321
-0.38739    -0.52479   -0.059339   0.0017248    -0.03303    0.028034   -0.067134
-0.45593    -0.56474      -0.123    -0.01614    -0.11553    0.017316   -0.097991
-0.50692    -0.53908    -0.17107   -0.057065    -0.28476   0.0033489    -0.12463
-0.50887    -0.45658    -0.19738    -0.10676    -0.66283   -0.016464    -0.13112
-0.46372    -0.34127     -0.2029    -0.15548     -1.3846   -0.053168     -0.1178
-0.39649    -0.22077    -0.19283    -0.20063      -2.422    -0.11423   -0.091495
-0.3351    -0.12008    -0.17594    -0.23863     -3.4896    -0.18796   -0.064211
-0.28411   -0.052843    -0.15808    -0.26104     -4.1945    -0.25357   -0.045372
-0.22986   -0.013866    -0.14476    -0.26007     -4.2591    -0.28898   -0.035303
-0.14509    0.011144    -0.13502    -0.23506     -3.6342    -0.27891   -0.025559
-0.011917    0.038103    -0.12365    -0.19186     -2.5185    -0.22499   -0.007045
0.15406    0.070259    -0.10611    -0.14379     -1.2446    -0.14541    0.026085
0.31354     0.10144   -0.081426    -0.10059    -0.12592   -0.067134    0.062789
0.4243     0.12125   -0.055766   -0.068758     0.63153   -0.013541    0.091696
0.44996     0.12548   -0.035303   -0.051544       1.008   0.0075714    0.097218
0.38857     0.11768   -0.026209    -0.04862      1.1028   0.0065969    0.077405
0.27326     0.10242    -0.03238   -0.055441      1.0288  -0.0073698    0.044599
0.14756    0.087799   -0.046022   -0.064861     0.89787   -0.029782    0.010819
0.040377    0.080653   -0.063561   -0.069408     0.79328    -0.05804   -0.017439
-0.027833    0.087149   -0.077853    -0.06551     0.74229   -0.081101   -0.040825
-0.042774     0.10729   -0.079802   -0.050894     0.73384   -0.094743   -0.060638
-0.0037969     0.13555   -0.068109   -0.024909     0.76502   -0.097017   -0.070058
0.07773     0.16088   -0.043748   0.0091954     0.85759   -0.085648   -0.062587
0.18297     0.17712  -0.0089938    0.048172      1.0379   -0.056091    -0.03173
0.2921     0.17777    0.032257      0.0865      1.2922   -0.013541    0.012119
0.38078     0.16153    0.073832     0.12158      1.5566    0.036479    0.056292
0.42852     0.13295     0.10599     0.14919      1.7463    0.086824    0.088773
0.43307    0.099817     0.11768     0.16705      1.7956     0.13197     0.10469
0.40708    0.070259     0.10761     0.17062      1.6628      0.1651     0.10242
0.36941    0.051096    0.080653     0.16088      1.3276     0.18167      0.0865
0.33205    0.043625    0.050771     0.14042     0.79068     0.18199    0.064088
0.29568    0.048497     0.02706     0.11216    0.090072     0.16933    0.041027
0.25865    0.059541    0.012443    0.079354    -0.71058     0.14561    0.022512
0.21967    0.069285   0.0059473    0.045574     -1.5288     0.10989    0.010819
0.18004    0.073832   0.0065969    0.016016     -2.2736    0.063438    0.003024
0.14204     0.06896    0.011469  -0.0044465     -2.8423   0.0088706  -0.0044465
0.10177    0.054668    0.017316   -0.017764     -3.1301   -0.042774   -0.018413
0.058566    0.031932    0.019589   -0.027508       -3.07   -0.076879   -0.034329
0.015367  -0.0015233    0.017316    -0.04115     -2.6591     -0.0837   -0.046022
-0.019712   -0.043423    0.013743   -0.071032     -1.9777   -0.065835   -0.049595
-0.048296   -0.084999   0.0065969    -0.12333     -1.1777    -0.03238   -0.044073
-0.071357    -0.11651 -0.00087364    -0.18796    -0.43384   0.0046481   -0.030431
-0.091495    -0.13372  -0.0041217    -0.27566     0.11866    0.032582    -0.01614
-0.11033    -0.14152  -0.0021729    -0.42052     0.44704    0.049147   -0.010293
-0.13047    -0.14736 -0.00022403    -0.63132     0.61139    0.055643   -0.018413
-0.14996    -0.15548  -0.0050961     -0.8772     0.70136    0.058241   -0.036927
-0.16523    -0.16425   -0.021337      -1.114     0.78711    0.065062   -0.056741
-0.17367    -0.16815   -0.047321      -1.329     0.89007    0.081627   -0.067784
-0.17789     -0.1675   -0.080776     -1.5515     0.99174     0.10599   -0.064536
-0.17562    -0.16198    -0.11845     -1.7919      1.0681       0.131   -0.052193
-0.16523    -0.15353      -0.161     -1.9413      1.1109     0.14074   -0.039526
-0.14476    -0.13989    -0.19543     -1.8133      1.1399     0.13132   -0.032055
-0.10806    -0.10968    -0.19771     -1.2819      1.1863     0.10956   -0.027183
-0.057715   -0.061937    -0.15191    -0.40363      1.2474    0.083576   -0.022636
-0.007045  -0.0018481   -0.073306     0.61009      1.2876    0.058241   -0.012892
0.038103    0.050446  -0.0018481      1.5183      1.2909      0.0433   0.0085458
0.087474      0.0865    0.034855       2.214      1.2746    0.045574     0.04395
0.13977     0.10696    0.040052      2.6811       1.263    0.059865    0.084551
0.17615     0.11963    0.031932      2.9403      1.2526    0.072858     0.11508
0.17127     0.11898    0.023812      2.9971      1.2016    0.072858      0.1245
0.10664     0.10534    0.026735      2.8344      1.0193    0.054993     0.11086
-0.0031473    0.086175    0.052395      2.4732     0.64517    0.027709    0.077405
-0.11131    0.080653     0.10956      1.9873     0.13522   0.0065969    0.042001
-0.18017    0.099817     0.18557      1.4604    -0.35849  0.00042559    0.017316
-0.20745     0.14204      0.2554     0.95601    -0.65244  0.00042559   0.0020496
-0.22012     0.19563      0.2895     0.51654    -0.62385  -0.0034721  -0.0044465
-0.23474     0.23689     0.27879      0.1677    -0.27566   -0.013216  -0.0057458
-0.24675     0.25085     0.22974   -0.090521      0.2515   -0.024585  -0.0011985
-0.24318     0.23299     0.15828    -0.26429     0.75171   -0.034004   0.0095202
-0.22434     0.18004    0.076106    -0.36206      1.0697   -0.039201    0.022837
-0.20843    0.092671  -0.0080194    -0.39162      1.1317   -0.036927    0.033231
-0.22369   -0.019063   -0.078827    -0.36076     0.93652    -0.02426    0.030633
-0.27696    -0.13275    -0.11845    -0.28021     0.53441  -0.0047713    0.013743
-0.33932    -0.22239    -0.12105    -0.16653    0.021538    0.014068   -0.015815
-0.35751    -0.27566   -0.098965   -0.040825    -0.46697    0.027709   -0.043748
-0.28865     -0.2932   -0.072981    0.070584    -0.80737    0.033556   -0.055766
-0.12885    -0.28281   -0.060638     0.14269    -0.94249    0.031932   -0.051219
0.07708    -0.25682   -0.071032     0.16803    -0.88467    0.019914   -0.040175
0.258    -0.22954   -0.098965     0.14691    -0.69012   0.0033489   -0.028807
0.35414    -0.21102    -0.12527    0.092346    -0.41988  -0.0050961   -0.018413
0.35154    -0.19771    -0.13437    0.027385    -0.13892  0.00010078  -0.0076946
0.28463    -0.17952    -0.12398   -0.034329    0.091047     0.01764   0.0085458
0.20733    -0.14216   -0.098965   -0.086298     0.23948    0.040052    0.030308
0.15438   -0.081426   -0.072981    -0.12885     0.31516    0.061165     0.05272
0.1284  -0.0076946   -0.052193    -0.16815     0.33952    0.076431    0.066037
0.12905    0.066037   -0.041475    -0.20745     0.30834    0.080328    0.065062
0.16218     0.13067   -0.036927    -0.25227     0.20213     0.06896    0.051745
0.23429     0.18524   -0.035303    -0.30424    0.016991    0.035505    0.029009
0.33758     0.22422   -0.035303    -0.36953     -0.2042   -0.017114      0.0014
0.44021     0.24436   -0.036602    -0.45236    -0.38577   -0.081751    -0.02426
0.50777     0.24501   -0.034004    -0.54947    -0.45723    -0.14314   -0.045372
0.51622     0.23071   -0.032055    -0.65763     -0.3796    -0.18699   -0.055766
0.46068     0.20473   -0.037252    -0.77164     -0.1623    -0.20778   -0.054142
0.34667     0.17257   -0.052518    -0.87558     0.13782    -0.20485   -0.041475
0.18816     0.13814   -0.072331    -0.95158     0.44509    -0.18439   -0.027833
-0.00087364     0.10112   -0.089871      -1.001     0.69616    -0.15678   -0.027508
-0.20031     0.06084   -0.099615     -1.0156     0.85662    -0.13372   -0.042449
-0.38837    0.020888   -0.096042    -0.96458      0.9232    -0.11975   -0.064861
-0.53713  -0.0060706   -0.072981    -0.80802     0.90599    -0.11293   -0.081426
-0.62093  -0.0096434   -0.030431    -0.53161     0.82186    -0.10871   -0.085648
-0.62288    0.012443    0.026735    -0.17692     0.68544    -0.10384   -0.077528
-0.55077     0.05142    0.078055     0.16023     0.51297   -0.094093   -0.063561
-0.43092      0.0865     0.11086      0.3889     0.32816   -0.084999   -0.048296
-0.30067     0.10339     0.11703     0.47075     0.15536   -0.080776   -0.033679
-0.19348     0.09462    0.099492      0.4282    0.021538   -0.077203   -0.016464
-0.1295    0.066362    0.067986     0.31516   -0.059989    -0.06681    0.003024
-0.11131    0.029333     0.03453     0.18394    -0.10546   -0.045372    0.021538
-0.12268  -0.0050961    0.012119    0.074157    -0.14736   -0.017439    0.033231
-0.13632   -0.027183   0.0056225  -0.0063954    -0.22921   0.0043233    0.036804
-0.12852   -0.035953    0.014068   -0.065835    -0.38317   0.0059473    0.029009
-0.092794   -0.033354    0.031607    -0.11683    -0.59949   -0.018088    0.011794
-0.039851   -0.025884    0.053694    -0.16393    -0.81257   -0.064211   -0.013216
0.012768    -0.01484    0.080003    -0.20096    -0.95743    -0.12625   -0.044723
0.050121  -0.0041217     0.11995    -0.21622     -1.0055    -0.19608   -0.081101
0.058566   0.0010752     0.17647    -0.19348    -0.97887    -0.26429    -0.11131
0.02706  -0.0060706     0.23851    -0.12495    -0.92463    -0.31821    -0.13145
-0.054467   -0.030756     0.27716   -0.040825     -0.8824     -0.3403    -0.14087
-0.1714   -0.073306     0.25995  -0.0018481    -0.86649    -0.32276    -0.13307
-0.28248    -0.12398     0.17582   -0.054467    -0.87363    -0.26624    -0.10741
-0.33997    -0.17107    0.039402    -0.18309    -0.89052    -0.18114   -0.060313
-0.31301    -0.20225      -0.123    -0.31366    -0.89604   -0.081101   0.0059473
-0.20258    -0.21362    -0.28248    -0.37798    -0.87331    0.024137      0.0852
-0.042124    -0.21297    -0.42572    -0.37018    -0.81484     0.13067     0.17095
0.13002    -0.20615    -0.54005    -0.33965    -0.72162     0.23299     0.25637
0.29145    -0.18569    -0.60469    -0.32893    -0.59397     0.32653     0.33011
0.4243    -0.13502    -0.59819     -0.3416    -0.43352     0.40286     0.37883
0.5107   -0.051544    -0.51992    -0.35264    -0.26104     0.45516     0.39572
0.5448    0.054019    -0.39129    -0.33705    -0.11391     0.47594     0.38662
0.53116     0.16218    -0.24513    -0.28118   -0.024585     0.46393     0.36031
0.48439     0.25475    -0.11423    -0.18926  -0.0024977     0.41683     0.31971
0.4165     0.31354   -0.019712   -0.079802   -0.039526     0.34245     0.26677
0.33693     0.32848    0.033231     0.01894    -0.10838     0.25507     0.20668
0.2593     0.30022    0.055643    0.088773    -0.17822     0.17127     0.14529
0.19596     0.24598    0.063113     0.12775    -0.22499     0.10664    0.092671
0.15861     0.18329     0.06831     0.14724    -0.24968    0.067336    0.053369
0.15341     0.12678    0.084226     0.15503    -0.28313    0.053044    0.029983
0.17745     0.07708     0.11054     0.15568    -0.35621    0.057267    0.015692
0.21188    0.031282     0.14269     0.14984    -0.45658    0.071558   0.0036737
0.23526   -0.014516     0.17322     0.13879    -0.53875    0.082602  -0.0060706
0.22389   -0.065835     0.19499     0.12418    -0.56831    0.086824   -0.016789
0.16965    -0.12917     0.20181     0.10631    -0.53161    0.080978   -0.032055
0.088773     -0.2081     0.19628    0.090072    -0.42735    0.063763   -0.047321
0.0072465     -0.2997     0.18394    0.078379     -0.2578    0.034206   -0.063886
-0.078503    -0.39487     0.16673    0.064088   -0.031081  -0.0073698    -0.08305
-0.19576    -0.48484     0.14237    0.043625     0.24306   -0.059664    -0.11228
-0.36628    -0.56084     0.10956    0.011469     0.53408    -0.12203    -0.16133
-0.57708    -0.60729    0.067986   -0.039851     0.78743    -0.18342    -0.22726
-0.78788    -0.60826    0.014392    -0.11391     0.94724    -0.22954    -0.28898
-0.94996    -0.54687   -0.045372    -0.19706     0.99239    -0.24838    -0.32211
-1.0318     -0.4176   -0.089871     -0.2565     0.94334    -0.23376    -0.31594
-1.0279    -0.23441    -0.10124    -0.26332     0.85012    -0.19998    -0.27501
-0.94704   -0.019063   -0.081426    -0.21232     0.75203    -0.16523    -0.21005
-0.79243     0.20408   -0.047321    -0.12203     0.64127    -0.13437     -0.1269
-0.56506     0.42138   -0.013866   -0.026533     0.47464    -0.10644   -0.035628
-0.2893     0.61204   0.0036737    0.051096     0.18199   -0.076229    0.051096
-0.008669     0.74976 -0.00022403     0.10664    -0.29807    -0.04992     0.11671
0.23299     0.81342   -0.019712     0.13327    -0.94476   -0.035303     0.14984
0.40968     0.79783   -0.038876     0.12158     -1.6421   -0.044073     0.14691
0.51817     0.71663   -0.046671    0.076106     -2.2164    -0.07493     0.11833
0.58475      0.5958   -0.034004    0.013743     -2.5029    -0.11423      0.0852
0.64777     0.46458   0.0017248   -0.047321     -2.4161    -0.15126    0.063113
0.72832     0.34407    0.048497    -0.07493     -2.0066    -0.17822     0.05272
0.81862     0.24208    0.091372   -0.039851     -1.4102    -0.19478    0.049147
0.88747     0.15633     0.11963    0.069285    -0.77164     -0.2081     0.04395
0.89657     0.07708     0.12807     0.22844    -0.20745    -0.22109    0.029658
0.82446 -0.00022403     0.11995      0.3876     0.18167    -0.23116   0.0059473
0.66888   -0.071682    0.099167     0.48276     0.34959    -0.23409   -0.026858
0.43892    -0.12755    0.071558     0.45905     0.32751    -0.22986   -0.060313
0.1664    -0.16133    0.041676     0.29535     0.21577     -0.2159   -0.083375
-0.095068    -0.17367    0.013743     0.03583     0.14496    -0.18829   -0.091495
-0.29417     -0.1714  -0.0076946    -0.24221     0.21252    -0.14606   -0.084999
-0.39876    -0.15483   -0.015165    -0.47477     0.44216   -0.092469   -0.069408
-0.39941    -0.12203  -0.0044465    -0.64724     0.78029   -0.036602   -0.052843
-0.31042   -0.070058    0.027709    -0.72844      1.1424    0.015692   -0.042124
-0.15386  -0.0083442    0.080653    -0.61249      1.4539    0.063438   -0.035953
0.038753    0.045899     0.14367     -0.2172      1.6716     0.10404   -0.034004
0.22    0.066037     0.19239     0.37298      1.7768     0.13392   -0.039201
0.33465    0.032257     0.20083     0.92548      1.7723     0.15049   -0.052518
0.34959   -0.044723     0.15991      1.2363      1.6862     0.14756   -0.071357
0.26352    -0.12592    0.087799      1.2366       1.565      0.1206   -0.088247
0.10501    -0.16718    0.016016     0.99888      1.4536    0.070909    -0.10059
-0.087597    -0.15029   -0.026858     0.68447      1.3698   0.0085458    -0.10611
-0.28248   -0.095068   -0.034004     0.44898      1.2805   -0.051544    -0.10774
-0.46145   -0.039851   -0.022636     0.37006      1.1028   -0.099615    -0.10449
-0.60891   -0.014191   -0.013541     0.42397     0.75885    -0.13242   -0.097017
-0.70473   -0.021986   -0.013541     0.52759     0.22649    -0.15353   -0.087922
-0.73331   -0.051868   -0.016789     0.59645    -0.41078    -0.16588     -0.0824
-0.70506   -0.084349   -0.016789      0.5841     -1.0162    -0.16718   -0.082076
-0.66056    -0.10091  -0.0089938     0.49186     -1.5073    -0.15613   -0.084674
-0.63425    -0.09182   0.0052977     0.35349     -1.8409    -0.13697   -0.089871
-0.6323   -0.060963    0.023162       0.207     -1.9828    -0.12105   -0.096367
-0.6297   -0.020362    0.036804    0.089423     -1.9023    -0.11878    -0.10579
-0.593    0.019589    0.045574    0.019914     -1.6041    -0.12722    -0.11001
-0.49685    0.045574    0.048497  -0.0031473     -1.1955    -0.13697    -0.10676
-0.34614    0.040052    0.046223  0.00010078    -0.90384    -0.14444   -0.097991
-0.17302   -0.012892    0.032257   0.0049729    -0.94899    -0.14931    -0.09182
-0.012242    -0.10644   0.0046481   0.0043233     -1.3228    -0.15321   -0.094418
0.12743    -0.20908   -0.028807    0.028359     -1.7844    -0.14769   -0.097341
0.25832    -0.27728   -0.055116     0.10664      -2.039    -0.12235   -0.088896
0.3889    -0.28086    -0.06616     0.23559     -1.9153   -0.073955   -0.065186
0.50583    -0.21622   -0.068109     0.37038     -1.4453   -0.016464   -0.034654
0.57501     -0.1191   -0.071357     0.45093    -0.79893    0.030308  -0.0073698
0.56624   -0.038227   -0.081751     0.41391    -0.17627    0.058241    0.014392
0.46165   -0.010293    -0.10384     0.18492     0.28041    0.066686    0.028034
0.27359    -0.04115    -0.13534    -0.28248     0.51167    0.062789     0.03453
0.045574    -0.10579    -0.17302      -0.923     0.53246    0.055968    0.037454
-0.14866     -0.1623    -0.20713     -1.5593     0.40319    0.059541    0.044275
-0.23733    -0.17692    -0.22434     -2.0299     0.22324    0.078379    0.061165
-0.18309    -0.14346    -0.21167     -2.2641     0.10371     0.11183    0.091047
-0.011917   -0.082076     -0.1649     -2.2593     0.14432     0.14724     0.12775
0.18946   -0.029782   -0.089871     -2.0111     0.38142     0.17127     0.15861
0.31809   -0.021661  -0.0021729     -1.4869     0.78061     0.17095     0.17095
0.30997    -0.06551    0.083251    -0.67225      1.2584     0.14659     0.15861
0.1703    -0.14087     0.15276     0.31971      1.7164     0.10859     0.12775
-0.033679    -0.20258     0.19596      1.2363      2.0691    0.080003     0.09397
-0.21849    -0.21232     0.20765      1.8684      2.2595    0.074806     0.06896
-0.33413     -0.1649     0.18751      2.1071      2.2666    0.086824    0.050121
-0.36856   -0.074605     0.13847      1.9847      2.1084     0.10079    0.028684
-0.33153    0.023162    0.062139      1.6284      1.8496     0.10501   0.0036737
-0.23344    0.095269   -0.026533      1.1996      1.5657    0.096893   -0.014191
-0.073306     0.12807    -0.10903     0.83453      1.3156    0.080328   -0.014516
0.14139     0.12743     -0.1636     0.58898      1.1207    0.058891   0.0023744
0.37395     0.10891    -0.18114     0.44184      0.9729    0.039727    0.031282
0.56592    0.092996    -0.15808     0.33498     0.85402    0.024786    0.059216
0.66823     0.10014    -0.10774     0.22194     0.74066   0.0078962    0.075456
0.65978     0.14237   -0.048296    0.092671     0.61951   -0.010293    0.070909
0.55292     0.21155    0.003024   -0.035953     0.48536   -0.029782    0.047523
0.38662     0.28171     0.03453    -0.14152     0.35869   -0.045047    0.018615
0.20083     0.31646    0.036804     -0.2094     0.27749    -0.04927  -0.0047713
0.032906     0.29015    0.013093    -0.24286     0.27424   -0.033679   -0.011592
-0.095393       0.207   -0.018088    -0.25487     0.33758  -0.0044465  -0.0037969
-0.174    0.097868   -0.044398    -0.25845     0.41293    0.026085   0.0052977
-0.20323 -0.00054884   -0.055766    -0.25845     0.44574    0.046873   0.0085458
-0.19283   -0.065835   -0.050244    -0.25552     0.41033     0.05207   0.0069217
-0.15873   -0.092794   -0.034978    -0.24773     0.31711    0.047198   0.0026992
-0.11553   -0.094418   -0.021012    -0.23571     0.19888    0.038103  0.00010078
-0.077528   -0.085973    -0.01549    -0.22564    0.094295    0.027709      0.0014
-0.050569   -0.068758   -0.018738    -0.22109    0.030633     0.01894   0.0065969
-0.033354   -0.034978   -0.028482    -0.22174    0.024786    0.016991    0.013743
-0.016789    0.016016   -0.037902    -0.22109    0.070909    0.022837    0.024137
0.0014    0.074482   -0.036927    -0.21752     0.14626    0.037778    0.033231
0.009845     0.11476   -0.025234    -0.21005     0.22324    0.054993    0.036804
-0.0050961     0.12288  -0.0093186    -0.19771     0.27521    0.067661    0.033231
-0.045697    0.099492   0.0069217    -0.17822     0.27456    0.072858    0.025111
-0.10644    0.062789    0.022837    -0.14964     0.21252    0.073832    0.017965
-0.18082    0.029658    0.036154    -0.11715     0.10664    0.072858    0.014392
-0.25325   0.0072465    0.045899   -0.086948   -0.018413    0.066037    0.011469
-0.30165  -0.0041217    0.051096   -0.068109    -0.14964    0.048822   0.0052977
-0.31106  -0.0096434    0.045899   -0.070382    -0.27761    0.022188  -0.0044465
-0.28021   -0.019063    0.034206    -0.10416    -0.38902  -0.0054209   -0.014516
-0.21849   -0.036927    0.020888     -0.1597    -0.47119   -0.027833   -0.022961
-0.13989   -0.064861    0.012443    -0.22239    -0.52641   -0.041799    -0.03173
-0.04927   -0.098965    0.011794    -0.29482    -0.58942    -0.04992   -0.039526
0.054993    -0.13437    0.015692    -0.40266    -0.71253   -0.059989   -0.046347
0.17192    -0.15646    0.020564    -0.56409    -0.93729   -0.072006   -0.050569
0.28658    -0.15451    0.020888     -0.7528     -1.2407   -0.085648   -0.051544
0.37395    -0.13112    0.012768    -0.93177      -1.534   -0.095393   -0.056741
0.41131   -0.096367  -0.0063954     -1.0783     -1.7129    -0.10254   -0.073955
0.38207   -0.070382   -0.032055      -1.179      -1.711    -0.10579    -0.10611
0.28333   -0.067459   -0.058689     -1.1877     -1.5258    -0.10936    -0.14379
0.131   -0.092145   -0.073631     -1.0377     -1.2056    -0.11261    -0.17659
-0.046347    -0.13307   -0.075579    -0.73689    -0.84342    -0.11001    -0.19706
-0.21622    -0.17335   -0.075579    -0.41046    -0.54135   -0.098641    -0.19706
-0.34355    -0.19283   -0.086298    -0.18504    -0.35037   -0.072981     -0.1714
-0.40006    -0.17075    -0.10156   -0.052518     -0.2565   -0.025559    -0.11748
-0.37635    -0.09929   -0.097341    0.087474    -0.20615    0.040377   -0.038876
-0.28411    0.015367   -0.067134     0.30672    -0.15418     0.11021    0.050771
-0.15256     0.14821   -0.020687     0.59158   -0.089221     0.16705     0.12807
-0.017439     0.26482    0.020888     0.87383   -0.026209     0.20116     0.16965
0.089748     0.33563    0.034206      1.0915    0.016016     0.20993      0.1716
0.15958     0.34732    0.010819      1.2217    0.032257     0.19531     0.14074
0.207     0.30834   -0.040175      1.2656    0.029658     0.16445    0.096244
0.25605     0.23656   -0.094093      1.2136    0.016016     0.12613    0.057267
0.31776     0.15666    -0.12852      1.0453  -0.0041217    0.086175    0.032257
0.38792    0.087474    -0.12722     0.76665   -0.032055    0.048822    0.020888
0.45646    0.043625   -0.087597     0.42008   -0.073955    0.020888    0.015692
0.51622    0.031607   -0.024585    0.074806      -0.123   0.0036737    0.010819
0.5539    0.043625    0.046548    -0.18894     -0.1623   -0.010293   0.0020496
0.54253     0.06019     0.10599    -0.31074    -0.16555   -0.024909  -0.0076946
0.45678    0.062789     0.14139     -0.2565    -0.11975   -0.040175    -0.01484
0.29275    0.037129     0.14204   -0.036278   -0.031081   -0.053492   -0.017439
0.067986    -0.01484     0.10469     0.27489    0.071883    -0.06551   -0.013541
-0.17952   -0.075904    0.042975     0.58021     0.16478   -0.075904 -0.00054884
-0.40266    -0.12203   -0.020362     0.81147     0.24013   -0.084999    0.020888
-0.55987    -0.13892   -0.060313     0.93685     0.30055   -0.093769    0.047523
-0.6271     -0.1256   -0.067134     0.94691     0.36161    -0.10546    0.068635
-0.60209   -0.090845   -0.051219     0.85597     0.43534    -0.12203    0.076106
-0.49945   -0.052193    -0.03173     0.70104     0.52142    -0.14119    0.069934
-0.34127   -0.022311   -0.026533     0.52694     0.60782     -0.1597    0.056292
-0.15191  -0.0047713   -0.037252     0.37395     0.66661    -0.17302    0.046548
0.041027   0.0033489   -0.056091     0.25248     0.66368    -0.17887    0.045249
0.20148   0.0036737   -0.077203     0.15049     0.57404    -0.17107    0.053369
0.30607  -0.0011985    -0.09994    0.057267     0.38565    -0.15061    0.063763
0.34407  -0.0015233    -0.11651   -0.029457     0.10306    -0.11878    0.059865
0.31776    0.015042    -0.11586    -0.11618    -0.27404   -0.084349    0.038753
0.23948    0.047523   -0.091495    -0.19966    -0.78658   -0.055116   0.0062721
0.12937    0.080978   -0.043748    -0.27371     -1.4606   -0.036278   -0.019712
0.012443    0.099167    0.009845     -0.3286     -2.2284   -0.027183   -0.028157
-0.088247     0.09397    0.052395    -0.35719     -2.9264   -0.027833   -0.020687
-0.1623    0.062464    0.066037    -0.36661     -3.3565   -0.036927  -0.0099683
-0.21265    0.010819    0.043625    -0.37538     -3.3844   -0.054792   -0.011267
-0.25357   -0.051219   -0.008669    -0.40169     -3.0115   -0.080127    -0.03238
-0.29158    -0.11066   -0.067784     -0.4621     -2.3587    -0.10384   -0.064211
-0.32113    -0.15483    -0.11066    -0.59137     -1.5885    -0.11001   -0.084999
-0.32795    -0.17887    -0.12365    -0.79893     -0.8379   -0.088572   -0.078178
-0.31171    -0.18017    -0.10546     -1.0494    -0.20193   -0.039851   -0.043423
-0.28508     -0.1623   -0.062262     -1.2774     0.27489    0.022837   0.0075714
-0.26754     -0.1321  -0.0099683     -1.4495     0.61236    0.082277    0.052395
-0.26851    -0.10156     0.03518     -1.5726     0.85857     0.12288    0.077405
-0.28151   -0.073631    0.063763     -1.6561      1.0401     0.14139    0.080003
-0.2867   -0.046347    0.072208     -1.6506      1.1489     0.13717    0.062789
-0.26559   -0.021986    0.062464     -1.4508      1.1928     0.11768    0.038753
-0.21622  -0.0024977    0.039727     -0.9662      1.2139    0.093645    0.014068
-0.14541   0.0043233    0.016666    -0.21232      1.2604    0.066362  -0.0067202
-0.05804  -0.0050961   0.0078962     0.66043       1.361    0.032582   -0.023935
0.049796   -0.028482    0.017965      1.4416      1.5072  -0.0083442   -0.038876
0.1742   -0.057065    0.048822      1.9827      1.6673   -0.050569   -0.047321
0.28821     -0.0837    0.086824      2.2267      1.7901   -0.084999   -0.046022
0.35576    -0.10416     0.11866       2.199      1.8245    -0.10221   -0.037252
0.35512    -0.11488     0.13067      1.9675      1.7404   -0.097991    -0.03303
0.27781    -0.11261     0.11508      1.6098      1.5572   -0.077853   -0.045372
0.15081   -0.097991    0.077405      1.1967       1.298   -0.051544   -0.070707
0.031282   -0.077528    0.033231     0.78711     0.99239   -0.033354   -0.093119
-0.038876   -0.055441    0.003024     0.42397     0.72962   -0.030106   -0.098316
-0.064861   -0.027833   -0.010293     0.12353     0.61561   -0.045372   -0.089871
-0.085648   0.0026992   -0.011917    -0.11943     0.70591   -0.078827   -0.081101
-0.13372    0.028034   -0.016789    -0.31854     0.93782    -0.12333   -0.079152
-0.20388    0.044924   -0.033354    -0.48289      1.1428    -0.16458   -0.084674
-0.2565    0.058566   -0.063886    -0.61314      1.1441    -0.19024   -0.089221
-0.25325    0.074157    -0.10546    -0.71448     0.85272    -0.19641   -0.086623
-0.19576     0.09397    -0.14671    -0.79535     0.29762    -0.19089   -0.082725
-0.10936     0.11183    -0.17854    -0.85739    -0.41338    -0.18309   -0.081426
-0.039526     0.11411     -0.2016    -0.89507     -1.1306    -0.17659   -0.087597
-0.021337    0.092346     -0.2172    -0.89279     -1.7207    -0.16458   -0.095068
-0.053817    0.040377    -0.22564    -0.82686     -2.0855    -0.14379   -0.098316
-0.10579   -0.028482    -0.22239    -0.67063     -2.1855    -0.11326   -0.091495
-0.13047     -0.0837    -0.19511    -0.41793     -2.0563   -0.075255   -0.071357
-0.093119   -0.089871    -0.13599   -0.094743     -1.7971   -0.037902   -0.036927
0.020239    -0.02426   -0.052518     0.23591     -1.5073   -0.010618   0.0046481
0.19239    0.098842    0.033881     0.49803     -1.2433  -0.0037969    0.039727
0.37525     0.24403     0.10209     0.63932     -1.0068   -0.016789    0.056617
0.52434     0.37006     0.13944     0.64225    -0.74858   -0.044073    0.056292
0.61886     0.44509     0.14659     0.53116    -0.41955   -0.075255    0.044924
0.66433     0.45808     0.12937     0.35057  -0.0076946    -0.10091    0.033556
0.67603     0.41748     0.10274     0.15016     0.44444    -0.10644    0.031932
0.65849     0.35122    0.082602   -0.024585     0.84817   -0.083375    0.045249
0.60262     0.28528    0.079354    -0.14639      1.1158   -0.037902    0.066037
0.49836     0.23591    0.092346    -0.21362      1.1977    0.011469    0.082602
0.35771      0.2122     0.11703    -0.23766      1.1057    0.044275    0.085525
0.207     0.21642     0.14237    -0.22824     0.90372    0.054993    0.072533
0.069285     0.23266     0.15568    -0.21167     0.67115    0.049472    0.047523
-0.04115     0.23331     0.14724    -0.22467     0.47172    0.038103    0.016666
-0.12333     0.19823     0.11248    -0.29807     0.33465    0.028034   -0.011592
-0.17724     0.12613    0.056617    -0.45138     0.26677    0.023812   -0.026209
-0.20745    0.031282   -0.012242    -0.67485     0.24501    0.028034   -0.025884
-0.2172    -0.06616     -0.0837    -0.92203     0.22909    0.036154   -0.015165
-0.2081    -0.14769    -0.14801     -1.1302     0.18329    0.042651  -0.0031473
-0.17757    -0.20518    -0.20388     -1.2468    0.092996    0.039402   0.0010752
-0.12885    -0.24545    -0.24708     -1.2481   -0.030431    0.024461  -0.0073698
-0.069083    -0.27501    -0.26851     -1.1569    -0.15841   0.0017248   -0.031406
-0.0034721    -0.28898     -0.2539    -0.98731     -0.2435   -0.019388   -0.056416
0.065062    -0.27501    -0.18536    -0.69336    -0.24221   -0.021661   -0.063886
0.12678    -0.22337   -0.052518    -0.20225    -0.14119    0.010495   -0.036278
0.1742    -0.13697     0.12483     0.46165    0.027709    0.075781    0.028359
0.19953   -0.035953      0.3025      1.1317     0.19271     0.15731     0.11313
0.19271     0.05142     0.42787      1.6303     0.28463     0.23299     0.19466
0.15114     0.10306     0.47432       1.871     0.27067     0.28463     0.25215
0.077405     0.10534     0.43989      1.8749     0.15926     0.29892     0.26807
-0.0076946    0.064413     0.34829      1.7239   -0.007045     0.27359     0.24111
-0.077528    0.003024     0.23299      1.5069    -0.17757     0.21642     0.18524
-0.13275   -0.055116     0.11736      1.2912    -0.31431     0.14269     0.11866
-0.19868   -0.090196    0.017316       1.107    -0.40526     0.06896    0.059865
-0.2984   -0.094743   -0.055116     0.95146    -0.45073    0.011794    0.016016
-0.43904   -0.079802   -0.095068     0.80595    -0.45625   -0.020037  -0.0089938
-0.60599   -0.069083    -0.11098     0.65784    -0.42702   -0.026209   -0.019388
-0.7567   -0.072981    -0.10968     0.50583    -0.36076   -0.008669   -0.017114
-0.83043   -0.085648   -0.095717     0.35414    -0.26234     0.02641   -0.007045
-0.78528   -0.096367   -0.073306     0.21025    -0.15873    0.065712  0.00010078
-0.62613    -0.10254   -0.046996    0.084226   -0.094093    0.099817  -0.0034721
-0.40104    -0.10709   -0.024585   -0.019063    -0.10319     0.11736    -0.01614
-0.16653    -0.11293    -0.01614    -0.10026    -0.17497     0.10729   -0.027833
0.037129    -0.12365   -0.018413     -0.1649     -0.2578    0.070584   -0.034978
0.19336    -0.13469   -0.022311      -0.212    -0.27988     0.01894   -0.034329
0.30574    -0.14184   -0.021012    -0.24091    -0.19348   -0.028807   -0.027508
0.38045    -0.13892   -0.010293     -0.2539  -0.0067202   -0.061613   -0.018413
0.42397    -0.12657   0.0062721    -0.25975     0.22584   -0.072981   -0.010618
0.43794    -0.10384    0.021213    -0.26527     0.43437   -0.065186  -0.0028225
0.4295   -0.072006    0.032582    -0.27241     0.56462   -0.044723   0.0062721
0.40319   -0.034329    0.036154    -0.28346     0.60457   -0.021661    0.017965
0.36161 -0.00054884    0.030633    -0.29515     0.57469   -0.007045    0.031282
0.31159    0.013418    0.021213    -0.30489     0.50875  0.00010078    0.043625
0.2606   0.0017248   0.0085458    -0.31464     0.43664   0.0020496     0.05207
0.21935   -0.026858  -0.0034721     -0.3299     0.37883   0.0020496    0.056617
0.19563   -0.057715   -0.010618    -0.35264     0.33595   0.0010752    0.057592
0.18816   -0.076554  -0.0099683    -0.37798     0.28821  -0.0037969    0.052395
0.18102   -0.081426  -0.0067202    -0.39227     0.19434   -0.021337    0.034855
0.14854   -0.077528  0.00042559     -0.3835   0.0056225   -0.056741  -0.0041217
0.081303   -0.075904    0.008221    -0.35134    -0.28086    -0.10806   -0.059339
-0.013541   -0.085648    0.013418    -0.30717    -0.59852    -0.16295     -0.1191
-0.11228    -0.10741    0.010495    -0.26332     -0.8379     -0.2016    -0.17075
-0.19478    -0.13762  -0.0054209    -0.23571    -0.90806    -0.21232    -0.20225
-0.2578    -0.16718   -0.035303    -0.22759    -0.77327    -0.19186    -0.21102
-0.30652    -0.18666   -0.073306    -0.22726     -0.4699    -0.14541    -0.19381
-0.34192    -0.18731    -0.10936    -0.22239   -0.080451   -0.080451    -0.14931
-0.35004    -0.16328    -0.13794    -0.20583     0.29827  -0.0044465   -0.085648
-0.31756    -0.11163    -0.15646    -0.17432     0.58281    0.069934   -0.015815
-0.24513   -0.038227    -0.16263    -0.13567     0.72637     0.13035    0.046223
-0.16328    0.042651    -0.15646    -0.10156     0.72182     0.17095    0.089098
-0.10676     0.10826    -0.14119   -0.081426     0.61301     0.18654     0.10859
-0.095068      0.1362    -0.12495   -0.078178     0.46815     0.17842     0.10371
-0.12203     0.11801    -0.10936     -0.0837     0.36324     0.15568    0.083576
-0.14996     0.06961    -0.09117   -0.085648     0.35317     0.12775    0.057917
-0.14087    0.020888   -0.063237   -0.076879     0.44931     0.10534    0.038103
-0.084349  -0.0028225   -0.024909   -0.055116     0.60717    0.095919     0.03453
0.0023744   0.0078962    0.016666   -0.029457     0.72994     0.10079    0.039727
0.092021    0.049147    0.053694  -0.0096434     0.68025     0.11021    0.040377
0.15763     0.11151    0.083576  -0.0018481     0.32036     0.10631    0.026735
0.19141     0.18264     0.10599    -0.01484    -0.37603    0.082277  -0.0021729
0.20668      0.2528     0.12255   -0.053168     -1.2186    0.037778   -0.032705
0.22129     0.30997     0.13067    -0.10709     -1.8916   -0.013866   -0.052518
0.24793      0.3444     0.12775    -0.15905     -2.1313   -0.052518   -0.054142
0.29145     0.34927     0.11378    -0.19673     -1.8568   -0.064536   -0.032705
0.33758     0.32426     0.09397    -0.21135     -1.1965   -0.048945   0.0026992
0.35544     0.27554    0.067661    -0.21135    -0.38057   -0.016464    0.036479
0.31159     0.21772    0.036154    -0.21817     0.34537   0.0095202    0.048497
0.19726     0.17322  0.00010078     -0.2474      0.8014    0.009845    0.032906
0.057267     0.15926   -0.036927     -0.2971     0.91703   -0.020362   0.0033489
-0.035628     0.17745   -0.072006    -0.35199     0.69129   -0.072981   -0.019712
-0.047646       0.207    -0.10416     -0.3731     0.20246    -0.13924   -0.027833
-0.018413     0.20668    -0.13404    -0.32536    -0.39616    -0.21005   -0.026533
-0.021337     0.14496    -0.16035    -0.19186    -0.89637    -0.27371   -0.026209
-0.11553    0.016341    -0.18049   0.0039985     -1.1439    -0.32406   -0.038551
-0.30587    -0.15191    -0.19089     0.21025     -1.1026    -0.36238   -0.066485
-0.54493    -0.32243    -0.19413     0.37655    -0.85349    -0.39519    -0.10319
-0.7593    -0.46048    -0.19381     0.48244    -0.53128    -0.42215    -0.13892
-0.88467    -0.54785    -0.19154     0.52954    -0.25585    -0.43774    -0.16523
-0.89897     -0.5813    -0.18991     0.50518   -0.092469    -0.43417    -0.17724
-0.82004    -0.56312    -0.18959     0.38954   -0.052518    -0.40526    -0.17952
-0.68719     -0.5027    -0.19283     0.17842   -0.095717    -0.35524    -0.18049
-0.53291      -0.415    -0.20355    -0.11131    -0.14639    -0.29353    -0.17724
-0.38252    -0.31951    -0.22109    -0.47022     -0.1243    -0.22564    -0.16588
-0.25552    -0.24091    -0.24156     -0.8824     0.01829    -0.15223    -0.14152
-0.17659    -0.19089    -0.24091     -1.2234     0.26677   -0.072006    -0.10806
-0.15418    -0.15743    -0.19121     -1.2624     0.56267    0.016341   -0.072656
-0.17562    -0.12073   -0.086623    -0.88045     0.82739    0.099817   -0.044073
-0.212   -0.069408    0.055318    -0.21687     0.99011     0.15796    -0.02361
-0.23116  -0.0021729     0.19791     0.43924      1.0067     0.17842   -0.012242
-0.20875    0.071234      0.3025     0.86311     0.88423     0.15861  -0.0060706
-0.14314     0.13684      0.3392     0.99271     0.69129     0.10924  -0.0054209
-0.05739     0.18199     0.30412     0.90112     0.51849    0.040702   -0.014191
0.018615     0.19856      0.2174     0.73514     0.42852   -0.034654   -0.034329
0.070909     0.18946     0.11118     0.63218     0.43209    -0.10319    -0.05804
0.10177     0.16315    0.011469     0.63965     0.48374    -0.14899   -0.073955
0.1232      0.1323    -0.06616     0.70428      0.5146    -0.16263   -0.076879
0.14432     0.10599    -0.12105      0.7228     0.48341    -0.14574    -0.06681
0.17712    0.091372    -0.15386     0.63218     0.39149    -0.10838   -0.043099
0.22227    0.091372    -0.15776     0.44736     0.27034   -0.062587   -0.012567
0.27294     0.10631      -0.123     0.23818     0.15601   -0.017439    0.021538
0.32101     0.13749   -0.049595      0.0865    0.078704    0.025761    0.059216
0.36129     0.17452    0.050771     0.03583    0.044275    0.065387    0.097868
0.39247       0.207     0.15633    0.089098   -0.011267    0.099492      0.1362
0.43015     0.22454     0.24013      0.2096    -0.21427      0.1258     0.16933
0.48569     0.21707     0.28366     0.34082    -0.65861      0.1349     0.19109
0.55617     0.18134     0.27489     0.42527      -1.316     0.12158     0.20051
0.62341     0.11833     0.21642     0.42982     -2.0036    0.088773     0.19531
0.66108    0.040377     0.12645     0.35641     -2.4649    0.043625     0.17257
0.64354   -0.037902    0.033231     0.22909     -2.5055  -0.0018481      0.1336
0.54903    -0.10221   -0.038227    0.091047     -2.1014   -0.033354    0.082602
0.38207    -0.14834   -0.078503   -0.018738     -1.4057   -0.045372    0.026085
0.17582    -0.17042   -0.078827   -0.085648    -0.64237   -0.034004   -0.021986
-0.013216     -0.1649   -0.042449    -0.11358  -0.0028225  -0.0031473   -0.043423
-0.13827    -0.13112     0.01894    -0.11326     0.40286    0.038103   -0.032705
-0.18439   -0.077528    0.090397   -0.095717     0.53961    0.080328  -0.0021729
-0.1636   -0.017764     0.15731   -0.073306     0.41131     0.11443    0.031932
-0.09929    0.032582     0.20246   -0.056091    0.040702     0.13327    0.055643
-0.028482    0.054993     0.21025   -0.050894    -0.49783       0.131    0.062139
0.020564    0.041027     0.17842   -0.058689     -1.0734     0.11151    0.054344
0.047523   0.0010752     0.12418   -0.067459     -1.5265    0.082277    0.046548
0.055968   -0.037577    0.075131   -0.061937     -1.7159    0.055643    0.044924
0.030957   -0.051219    0.054344   -0.028482     -1.5674    0.040377    0.050771
-0.047646   -0.037902    0.066686    0.028034     -1.1172    0.032257    0.053369
-0.17335   -0.015165     0.10177    0.091372    -0.49036    0.030308    0.042326
-0.30652   -0.013866     0.13717     0.13977     0.15763    0.029658    0.015042
-0.40039   -0.051219     0.15211     0.15211     0.69097    0.028359   -0.023935
-0.4254    -0.11943     0.13814     0.11248      1.0479    0.027709   -0.061613
-0.38545    -0.19089    0.098842   -0.012242      1.2334    0.028359   -0.084024
-0.32308    -0.23733    0.036154    -0.29028      1.2824    0.032582   -0.084999
-0.28476    -0.25098   -0.051868    -0.77164      1.2402    0.039727   -0.066485
-0.28476    -0.23344    -0.16588     -1.4014       1.159    0.048822   -0.038551
-0.28703    -0.18894    -0.29223     -2.0254      1.0723    0.056942   -0.013216
-0.25585      -0.123    -0.40818     -2.4551      0.9742    0.054668  -0.0037969
-0.18504   -0.046347    -0.48711     -2.5789     0.82933    0.032906    -0.01614
-0.088247    0.039402    -0.51212     -2.4129     0.61236  -0.0076946   -0.046347
0.01764     0.15211    -0.46827     -2.0387     0.34537   -0.050894   -0.075579
0.1284     0.30899    -0.35589     -1.5099     0.11476   -0.077853   -0.079802
0.2528     0.50323    -0.19803    -0.81841  -0.0028225   -0.075579   -0.048296
0.39507     0.70331   -0.030756    0.046548   0.0026992    -0.04862   0.0078962
0.54968     0.86344     0.10761      1.0275    0.087149   -0.012242    0.065062
0.70201     0.94237     0.18979      1.9934     0.19499    0.009845     0.10404
0.82414     0.91021     0.20635      2.7811      0.2973   0.0046481     0.11638
0.88065     0.76892     0.16478      3.2144     0.38954   -0.028482     0.10274
0.84265     0.55585    0.096893      3.1803     0.46685   -0.079802    0.072533
0.71663     0.33465     0.04395      2.7236     0.52531    -0.13112    0.040052
0.53603      0.1651    0.030633      2.0363     0.56462    -0.16198     0.01829
0.34732    0.075456     0.05142      1.3422     0.59028    -0.16523    0.011469
0.18946    0.049796    0.085525     0.79361     0.60522    -0.14087    0.012768
0.086824    0.050771     0.10729     0.43989     0.60619   -0.094743    0.025761
0.039727    0.045899     0.10794      0.2554     0.58248   -0.037252    0.044924
0.0433    0.021538    0.092671     0.18134     0.52109    0.018615    0.069285
0.078379   -0.020362    0.072858     0.15633     0.41845    0.067661    0.091047
0.1271   -0.067784    0.056292     0.13587     0.29405     0.10112     0.10826
0.17225    -0.10676    0.047523    0.091696     0.17322     0.11378     0.11703
0.20278    -0.12917    0.044924    0.014392    0.083901     0.10924     0.11443
0.21025    -0.14216    0.042651   -0.064211    0.074157     0.09462     0.10177
0.19596    -0.15905    0.036154    -0.10351     0.19369    0.084876    0.080978
0.15698    -0.18569     0.02706   -0.087597     0.44411    0.086824    0.052395
0.081627    -0.21362    0.016991   -0.040825     0.76242    0.098193    0.016016
-0.035953    -0.23279   0.0075714   0.0023744      1.0411     0.10794   -0.018738
-0.18147    -0.23636 -0.00022403    0.012768       1.135     0.11281   -0.044398
-0.31983    -0.22499   -0.011917   -0.020037     0.91054     0.10794    -0.05804
-0.4267    -0.21297   -0.032055    -0.09117     0.38987    0.088124   -0.063237
-0.49653      -0.212   -0.059989    -0.18309    -0.23019     0.05272   -0.065186
-0.53193    -0.22759   -0.090521    -0.27631     -0.6677    0.015367   -0.063561
-0.53226    -0.24675    -0.11813    -0.35556     -0.7174  -0.0054209   -0.057715
-0.49426    -0.24545    -0.13729    -0.40851     -0.3338  -0.0037969   -0.046347
-0.41923    -0.21037    -0.14509    -0.42929     0.32751    0.012119   -0.037902
-0.32276    -0.14639    -0.14411    -0.42767     0.99466    0.024461   -0.038551
-0.20615   -0.070058    -0.13697    -0.41468      1.4241    0.015367   -0.054142
-0.06551   0.0023744    -0.12722    -0.40104      1.4738   -0.017439   -0.076879
0.080653    0.059541    -0.11521    -0.39227      1.1259   -0.064211   -0.092794
0.19076    0.097543    -0.10384    -0.38804     0.48147    -0.10903   -0.090521
0.22844     0.11768   -0.090521     -0.3822    -0.26592    -0.13989   -0.071682
0.19563     0.12613   -0.075579    -0.36661    -0.89052    -0.15288   -0.045047
0.1232     0.12678    -0.05739    -0.33997     -1.2618    -0.14931   -0.026209
0.055968     0.11866   -0.035953    -0.30229     -1.3547     -0.1334   -0.019388
0.023487    0.099817   -0.014516    -0.26039     -1.2338    -0.10838    -0.02426
0.026085    0.070584   0.0088706    -0.21914    -0.99706   -0.079802   -0.034654
0.044599    0.039078     0.03583    -0.18082    -0.73559    -0.04992   -0.044398
0.05272    0.014068    0.062789    -0.15093     -0.5053   -0.025884   -0.053492
0.033881 -0.00087364    0.083251    -0.12722    -0.32568    -0.01614    -0.06616
-0.0080194  -0.0099683    0.096893    -0.10319    -0.18049   -0.029782   -0.085324
-0.053168   -0.020687     0.10534    -0.07428   -0.021012   -0.063237    -0.10611
-0.082725   -0.040825     0.10794   -0.042124       0.207    -0.10221    -0.12268
-0.094743   -0.073631     0.10404   -0.017114     0.52499    -0.12657     -0.1282
-0.097991    -0.11618    0.091047   -0.013541      0.8826    -0.12105    -0.11878
-0.09994    -0.16685     0.06961   -0.044398      1.1785   -0.087597   -0.098641
-0.10774    -0.21492    0.036479    -0.11033      1.3097   -0.037252    -0.07428
-0.12755    -0.25455  -0.0028225    -0.19608      1.2509    0.016016   -0.051868
-0.15776    -0.28346   -0.040175    -0.27826      1.0548    0.064413   -0.034329
-0.19251    -0.29158   -0.064211    -0.33445     0.80173     0.10956   -0.018413
-0.21492    -0.26722   -0.063237    -0.34939     0.54383     0.15309    0.003024
-0.21687    -0.21492   -0.036602    -0.32666     0.25995     0.18719    0.031607
-0.20096    -0.15353  -0.0034721    -0.28605    -0.14054     0.19628    0.058241
-0.17562    -0.10189    0.016016    -0.24805    -0.70473     0.16673    0.066037
-0.14996   -0.072006   0.0062721    -0.21655     -1.3732    0.098193    0.045249
-0.1308   -0.073306   -0.034329    -0.19024     -1.9861    0.010819   0.0020496
-0.12527    -0.10741   -0.092794    -0.15808     -2.3664   -0.063886   -0.048296
-0.14087    -0.16588    -0.14866    -0.10124     -2.4139    -0.10416   -0.086623
-0.17497    -0.22694    -0.17984  -0.0050961     -2.1595    -0.10546   -0.098965
-0.2081    -0.26137    -0.17692     0.12515     -1.7347   -0.077203   -0.081426
-0.2146     -0.2552    -0.14671     0.24825     -1.2972   -0.036278    -0.04862
-0.18407    -0.22272    -0.10481     0.27294    -0.96165 -0.00054884   -0.019712
-0.13664    -0.18244    -0.06681    0.073182    -0.75832    0.017965  -0.0083442
-0.097666    -0.14866   -0.036927    -0.42312    -0.64497     0.01829   -0.014516
-0.081426    -0.12527  -0.0054209     -1.1413    -0.56409   0.0078962   -0.028157
-0.088247    -0.10936    0.030957     -1.8929    -0.47672  -0.0047713   -0.042124
-0.12657   -0.096692    0.065712     -2.5061    -0.38285   -0.011917   -0.047646
-0.20583    -0.08305      0.0852     -2.9076    -0.29872  -0.0073698    -0.04115
-0.32341   -0.067459    0.080653       -3.07    -0.22109    0.012443   -0.023935
-0.45268   -0.054142    0.052395     -2.9167    -0.11488    0.046223  0.00075039
-0.5524   -0.045047    0.012119     -2.3349    0.055643    0.091047    0.024461
-0.57838   -0.032705   -0.030106     -1.2985     0.29113     0.13912    0.039727
-0.5066   -0.014516   -0.068758    0.030957     0.53961      0.1768    0.043625
-0.34679  -0.0015233    -0.10741      1.2961      0.7202     0.18719    0.040377
-0.13599  -0.0073698    -0.14216      2.2325     0.79231      0.1651    0.038428
0.073832   -0.035628    -0.15711       2.822     0.78289     0.11995    0.042326
0.23494   -0.069408    -0.13892      3.1764     0.74943    0.070259    0.055643
0.32816   -0.082725   -0.079152      3.4151     0.73384    0.033881    0.079029
0.36486   -0.063561    0.010819      3.5675     0.74553    0.016666     0.10761
0.37298   -0.019388     0.10859      3.5944     0.77639    0.011794     0.13197
0.38792    0.029333     0.18914      3.4483     0.82089   0.0091954     0.14821
0.43112    0.064737     0.23786      3.1114     0.85792 -0.00022403     0.15406
0.50583    0.080653     0.25215      2.6119     0.82511   -0.019063     0.15244
0.59775    0.079679     0.23364      2.0084       0.626   -0.053817     0.14691
0.68674    0.070259     0.19661      1.3799     0.18167    -0.10091     0.13425
0.74099    0.061489     0.15666     0.79913    -0.47217    -0.15808     0.10794
0.72052    0.054993     0.11638      0.3012     -1.1845    -0.22142    0.067986
0.58768    0.046548    0.076755    -0.10806     -1.7811    -0.28768    0.019589
0.33043    0.031282    0.039078    -0.42085     -2.1332    -0.34679   -0.029457
-0.022961    0.010819     0.01017    -0.62743     -2.1933    -0.38999   -0.069733
-0.41013   -0.010293  -0.0031473    -0.71513     -1.9799     -0.4124   -0.097991
-0.75215   -0.026533  -0.0041217    -0.68622     -1.5427    -0.41533    -0.11228
-0.97107   -0.023935  -0.0031473    -0.57968    -0.95061    -0.39779    -0.11163
-1.0136   0.0062721  -0.0089938    -0.45203     -0.2997    -0.35881   -0.097991
-0.87266    0.056292   -0.034329    -0.35589     0.28431    -0.30229   -0.072656
-0.59397     0.10566   -0.089546    -0.31886     0.69032    -0.23603   -0.043423
-0.25585      0.1323    -0.16295    -0.32178     0.88585     -0.1675   -0.016464
0.054344     0.13035    -0.22986    -0.31464     0.91508    -0.10514   0.0043233
0.27099     0.10469    -0.26657     -0.2591     0.87026   -0.064536    0.018615
0.36453    0.062789    -0.26202     -0.1597     0.85305   -0.048945    0.022188
0.33693    0.021213    -0.22174   -0.054142     0.91216   -0.048296    0.013418
0.21188 -0.00087364    -0.16133    0.016016      1.0291   -0.045697  -0.0024977
0.038103   0.0043233    -0.10059    0.030308      1.1213   -0.030106    -0.01549
-0.13404    0.028359   -0.054142   -0.012567      1.1002  0.00042559   -0.023285
-0.26137    0.054993   -0.025884   -0.095717     0.91086    0.037454   -0.023935
-0.32016    0.072208   -0.014191    -0.19348      0.5513    0.073182   -0.014516
-0.30684    0.075131  -0.0063954    -0.27923    0.083901     0.10371   0.0049729
-0.23376    0.062789   0.0059473    -0.34062     -0.3783     0.12743    0.029333
-0.11715    0.036154    0.022188    -0.37538    -0.72032     0.13587    0.048497
0.023812  -0.0015233    0.039078    -0.39097    -0.87201     0.13002    0.059216
0.16185   -0.042774    0.050446    -0.39909    -0.80705     0.11671     0.06084
0.26969    -0.07428    0.058891    -0.40981    -0.55889     0.10177    0.054344
0.32913   -0.077528    0.066037     -0.4267    -0.21882    0.081303    0.039078
0.33205   -0.046671    0.073832    -0.44911    0.097868    0.056292    0.010819
0.28268   0.0095202    0.078379    -0.47737     0.30152    0.027709   -0.027183
0.18751    0.072208     0.07773    -0.51082     0.36583  -0.0057458   -0.071357
0.057592      0.1206    0.066037      -0.542     0.31841   -0.037902    -0.11358
-0.077853     0.14399    0.045574    -0.56441     0.21675   -0.059664    -0.14314
-0.19024     0.14107    0.020564    -0.56994     0.11346    -0.06551    -0.14671
-0.26494     0.12483  -0.0015233    -0.55759    0.015042   -0.060963    -0.12495
-0.31334     0.11054   -0.015815    -0.53063    -0.11586    -0.04992   -0.089221
-0.35914     0.10436   -0.020687    -0.49588    -0.31301   -0.037902   -0.051868
-0.41273     0.10079   -0.018738    -0.46372    -0.55012    -0.03303   -0.021012
-0.45625    0.090722   -0.019388    -0.44618    -0.71805   -0.040825  -0.0044465
-0.44748    0.069934   -0.028157    -0.44521    -0.69888    -0.05739   0.0017248
-0.34127    0.046223   -0.034978    -0.45073    -0.45203   -0.070058   0.0033489
-0.14152    0.032582   -0.034329    -0.45138    -0.03303   -0.067459   0.0085458
0.088773    0.039402   -0.025884    -0.44066     0.42982   -0.049595    0.015042
0.26255    0.064088   -0.018738    -0.42735     0.81374   -0.023285    0.016341
0.32458    0.095919   -0.021012    -0.42475      1.0509   0.0056225    0.012443
0.27261     0.11898   -0.034004    -0.44618      1.1437    0.033556   0.0052977
0.15211      0.1284   -0.055116    -0.50075       1.122    0.054344  -0.0011985
0.026085     0.12613   -0.076229     -0.5956      1.0038    0.064413  -0.0096434
-0.061937     0.11054   -0.087922    -0.71513      0.7686    0.065387   -0.020687
-0.098316    0.074806   -0.089221    -0.83011     0.33725    0.059216   -0.033354
-0.096042    0.015367   -0.078178    -0.90481    -0.38447    0.041676   -0.044073
-0.072331    -0.05804   -0.060313    -0.91716     -1.3329    0.014068   -0.046671
-0.045697    -0.12105    -0.04115     -0.8379     -2.2606   -0.016789   -0.037902
-0.034978    -0.15126   -0.021986    -0.62548     -2.8813   -0.039526   -0.015165
-0.052193    -0.13957  0.00010078    -0.25292     -3.0177   -0.046022     0.01764
-0.093119    -0.09117    0.029333      0.2476     -2.6737   -0.034329    0.051096
-0.13762   -0.021986    0.068635     0.77347     -2.0072   -0.012242    0.075131
-0.16295    0.047523     0.11054      1.1824     -1.2465     0.01017    0.083251
-0.14931    0.098517     0.14496      1.3698    -0.59754    0.030957    0.078055
-0.097666     0.11963     0.16445       1.337    -0.17887    0.046548    0.064413
-0.028157     0.11281       0.169      1.1522   0.0065969     0.05272    0.047523
0.036804    0.091696     0.16153     0.87871    0.039078    0.045899    0.027709
0.080978    0.068635     0.14594     0.53831    0.025111    0.023487  0.00010078
0.10177    0.054019       0.131     0.18329    0.054668  -0.0076946    -0.03238
0.11118    0.058566     0.12807   -0.061288     0.18719   -0.035303   -0.060963
0.1245    0.083576     0.14367   -0.084024     0.43015   -0.050894   -0.077203
0.15049     0.11768      0.1677     0.10989     0.74164   -0.048945     -0.0837
0.18654     0.14334     0.17355     0.39994      1.0577   -0.027833   -0.079802
0.22032     0.14042     0.13457     0.60229      1.3198   0.0062721   -0.064536
0.24468    0.096893    0.047847     0.56527      1.4997    0.046223   -0.039851
0.2567    0.016341   -0.065186     0.25085      1.5933    0.083901  -0.0099683
0.25507   -0.084349    -0.16912    -0.24448      1.6043     0.11183    0.016666
0.23429    -0.18796    -0.23571    -0.74566      1.5452      0.1232    0.032582
0.19336    -0.27631    -0.24935     -1.1348      1.4403     0.12515    0.040702
0.14367     -0.3325     -0.2055     -1.3904      1.3243      0.1258    0.050446
0.10891    -0.33705    -0.11261     -1.5245       1.224     0.12807    0.066037
0.10924    -0.28605   0.0069217     -1.4736      1.1584     0.13425    0.089748
0.15373    -0.18796     0.11573     -1.1273      1.1226     0.14984     0.11898
0.23169   -0.066485      0.1716    -0.48191      1.0622     0.17355     0.14432
0.31646    0.040377     0.14529     0.29892     0.88812     0.19596     0.15406
0.38695     0.10566    0.039727     0.96478     0.53766     0.20051     0.14399
0.44606      0.1323    -0.10156      1.3591     0.02706     0.18167     0.12418
0.50972     0.14107    -0.22239      1.4543    -0.52446     0.14789     0.11378
0.57079     0.15633    -0.28281      1.3299    -0.96068     0.11411     0.11963
0.58963     0.18816    -0.27664      1.1132     -1.1848    0.087149     0.13165
0.53343     0.23266    -0.22207     0.92223     -1.2014    0.063438      0.1362
0.41683     0.27846    -0.14671      0.8092     -1.1003     0.03453     0.12645
0.29957     0.31679   -0.073631     0.75983    -0.99349  -0.0028225     0.10339
0.2463      0.3444   -0.017114      0.7241    -0.93599   -0.046022    0.080003
0.29178     0.35057    0.016666     0.66628    -0.91845   -0.087597    0.065712
0.41748     0.33043    0.032582     0.57826    -0.89279     -0.1204    0.060515
0.56884     0.28658    0.041027     0.46945    -0.81484    -0.14476    0.056292
0.6848     0.22812    0.047523     0.36064    -0.68135    -0.16523    0.041027
0.7163     0.16218    0.053694     0.26449    -0.52934    -0.18342   0.0088706
0.6377    0.097543    0.061165     0.18459    -0.39162    -0.19706   -0.034004
0.4597     0.05272    0.076106     0.12418    -0.26397    -0.19966   -0.073306
0.23266    0.040702     0.10339      0.0852    -0.10579    -0.18407    -0.10026
0.01894    0.063113     0.13879    0.064737     0.11508    -0.15288    -0.11326
-0.1282     0.10729     0.16835    0.061165     0.39604    -0.11456    -0.11651
-0.18991     0.15341     0.18459    0.066686       0.715   -0.077853    -0.11943
-0.18212     0.18427     0.18362    0.078704       1.019   -0.050244    -0.12722
-0.13957     0.18881      0.1677    0.093321       1.248   -0.034329    -0.13372
-0.095393      0.1638     0.13944    0.097218      1.3646   -0.028482    -0.13502
-0.070058     0.11151    0.097543    0.074806      1.3477   -0.027833     -0.1295
-0.063561    0.040702    0.046548  -0.0044465      1.2025   -0.026533    -0.11261
-0.067134   -0.037577  -0.0076946     -0.1623     0.98069    -0.01614   -0.079802
-0.072006    -0.11293   -0.054467    -0.38804     0.77282    0.010819   -0.028157
-0.081101    -0.17302   -0.085324    -0.63782     0.65199     0.05272    0.030957
-0.10416    -0.21362   -0.095393     -0.8457     0.63413    0.096569    0.080653
-0.14931    -0.23668   -0.094093    -0.95223     0.67148      0.1258     0.10306
-0.23149    -0.25065   -0.092794    -0.92008     0.68057     0.12418    0.089098
-0.36596    -0.27144   -0.098965    -0.75118     0.56851    0.092671    0.046548
-0.54233    -0.31366    -0.11293    -0.49491     0.28203    0.045899  -0.0021729
-0.73364    -0.38512     -0.1256    -0.22532    -0.15905   0.0036737   -0.037252
-0.91716    -0.47672    -0.13664   -0.020687    -0.67323   -0.022636   -0.053492
-1.074    -0.56214    -0.14931    0.049147     -1.1595   -0.035953   -0.064536
-1.1832    -0.60859    -0.16782   -0.037252     -1.5122   -0.043423   -0.082076
-1.2176    -0.59625    -0.19283     -0.2029     -1.6619   -0.050569    -0.10871
-1.1725     -0.5407     -0.2172    -0.31918     -1.5989   -0.061937    -0.14216
-1.0571    -0.47087    -0.22856    -0.31139     -1.3794   -0.076554    -0.16782
-0.88662    -0.40656    -0.21167    -0.19186     -1.1156    -0.09182    -0.17887
-0.6664    -0.34062    -0.16165   -0.021337    -0.90774    -0.10579    -0.17107
-0.39876    -0.25552   -0.093119     0.14399    -0.77814     -0.1204    -0.14736
-0.095393    -0.13437   -0.029457     0.26222    -0.68849    -0.12885    -0.11228
0.20798    0.020239   0.0075714     0.32069    -0.59235    -0.13047   -0.072006
0.46523     0.19304    0.014392     0.32263    -0.46567    -0.12657   -0.030106
0.65556     0.36064   0.0010752     0.28268    -0.31691    -0.11618   0.0072465
0.79036      0.5055   -0.013541     0.22194    -0.18049    -0.10221    0.038103
0.88585     0.60684   -0.019712     0.15503   -0.098965   -0.087272    0.058241
0.9362     0.64582   -0.019063    0.089423    -0.10449   -0.078503    0.060515
0.91801     0.60847   -0.017114    0.029658    -0.20615   -0.087597    0.044599
0.80887     0.50128   -0.014191   -0.015815     -0.3822    -0.11293    0.015367
0.59872     0.34764  -0.0047713   -0.040825    -0.57968    -0.14574   -0.014516
0.31386     0.18362    0.011469   -0.042449    -0.70636    -0.17335   -0.029782
0.014392    0.048172    0.032906   -0.025559     -0.6742    -0.18309   -0.030106
-0.21947   -0.034654    0.056292 -0.00022403    -0.44586    -0.17367   -0.017439
-0.33315   -0.061937    0.078704     0.02641   -0.069408    -0.15061   0.0023744
-0.31756   -0.045697    0.094295    0.048172     0.34732    -0.12073     0.02706
-0.20875  -0.0076946    0.099817    0.062789     0.68285   -0.088896    0.049796
-0.067459    0.030308    0.094295    0.067336     0.86799   -0.059664    0.062464
0.034855    0.045574    0.082602    0.060515     0.91216   -0.034329    0.059541
0.053044    0.021213     0.06831     0.05272     0.88293   -0.012242    0.044924
-0.016789   -0.050894    0.051096    0.057267     0.85305   0.0088706    0.024461
-0.14444     -0.1597     0.02706    0.077405     0.85402     0.02706   0.0026992
-0.29515    -0.27826  -0.0044465     0.11118      0.8813    0.040052   -0.018738
-0.44261    -0.36921   -0.040175     0.15893     0.92158    0.049472   -0.040825
-0.56376    -0.40136   -0.065835     0.22129       0.969    0.055968   -0.061288
-0.63815    -0.35914   -0.073955     0.27261      1.0148    0.061814   -0.072656
-0.64724     -0.2487    -0.06551     0.25378      1.0457    0.065712   -0.070058
-0.58065   -0.097017   -0.044398     0.13035      1.0476    0.072858   -0.053168
-0.44554    0.055968   -0.012892   -0.045372      1.0278    0.082927   -0.026858
-0.27404     0.16543    0.025436    -0.17075     0.99174    0.094945   0.0010752
-0.10351      0.2083     0.06831    -0.19121     0.93002     0.10177    0.022837
0.036804     0.18394     0.10566    -0.14411     0.82219    0.099492    0.032257
0.13165     0.11736     0.13295    -0.11066     0.66531    0.086175    0.030633
0.18524    0.036479     0.13912    -0.17335     0.47919    0.065712    0.020888
0.20116    -0.03303     0.11995    -0.37603     0.28723    0.039078   0.0056225
0.17907   -0.082076    0.072208    -0.69499    0.081627    0.014068   -0.013541
0.12645    -0.11131   0.0039985     -1.0468    -0.14866  -0.0054209   -0.039201
0.064088     -0.1243   -0.070382     -1.3407     -0.3757   -0.020362   -0.064861
0.016991    -0.12722    -0.14087     -1.5453    -0.54623   -0.036927   -0.081101
-0.0067202    -0.12365    -0.19738      -1.684    -0.61184   -0.054792   -0.082725
-0.012892    -0.11358    -0.23344     -1.7604    -0.54428    -0.06681    -0.06681
-0.0050961   -0.094743    -0.23279     -1.6928    -0.36433   -0.061288   -0.037577
0.014068   -0.062262    -0.18699     -1.3443    -0.13469   -0.038551  -0.0021729
0.046548   -0.019388    -0.09929    -0.63522     0.07708  -0.0054209    0.030308
0.078379     0.02641    0.011144     0.35836      0.2109    0.019914    0.050771
0.092671    0.062464     0.11378      1.3945     0.23039    0.029658    0.057592
0.074157    0.078704     0.18459        2.24     0.12515    0.023812    0.054668
0.024786    0.076431     0.21577      2.7561   -0.095717    0.011794    0.048172
-0.053492    0.061165     0.21317      2.9169    -0.41435   0.0017248    0.043625
-0.16425    0.044599     0.19304      2.7788    -0.81614  -0.0047713    0.040702
-0.30229    0.037129      0.1664      2.4453     -1.2689  -0.0067202    0.041351
-0.44164    0.042001     0.13912      2.0246     -1.7038  -0.0044465    0.040702
-0.53811    0.057267     0.11671      1.6027     -2.0244  -0.0028225    0.036479
-0.5537    0.082277     0.10209      1.2275      -2.143      0.0014    0.028034
-0.47607     0.10924    0.087149     0.90859     -2.0267    0.008221    0.018615
-0.32341     0.12418    0.064413     0.62828     -1.7081    0.016016   0.0095202
-0.14346     0.11313    0.029333      0.3733     -1.2615     0.02641 -0.00022403
0.013093    0.063763   -0.013216     0.14269    -0.77911    0.038428   -0.010293
0.11378   -0.022961   -0.056416   -0.053168    -0.35069    0.046548   -0.015815
0.13717    -0.13307   -0.097666    -0.20615   -0.035953    0.049472    -0.01614
0.079354    -0.24903    -0.13242    -0.32113     0.14334    0.042975   -0.019388
-0.037252    -0.35621    -0.15808    -0.40688      0.2148    0.027709   -0.029782
-0.16198    -0.43709     -0.1714     -0.4647     0.24306    0.010495   -0.044073
-0.22986    -0.48029    -0.17075    -0.49393     0.28626  -0.0021729   -0.054792
-0.19056    -0.47607    -0.15711    -0.49458     0.37103  -0.0057458   -0.051544
-0.028157    -0.42052    -0.13502    -0.47022     0.47952  -0.0041217   -0.032705
0.22649    -0.32016    -0.10546    -0.42507     0.56429   -0.008669  -0.0037969
0.51362    -0.18959   -0.074605    -0.36661     0.60359   -0.024909    0.027709
0.76827   -0.051544   -0.046671    -0.31821     0.61106   -0.047971    0.051745
0.94464    0.067011   -0.031081    -0.31139     0.62406   -0.072981    0.062139
1.021     0.15438   -0.031081    -0.36173      0.6744   -0.093444    0.056942
1.0012      0.2096   -0.045372    -0.45236     0.76632    -0.10481    0.043625
0.89592     0.23494    -0.06681    -0.54168     0.86896    -0.10709    0.026735
0.71987     0.23526   -0.084999    -0.57838      0.9323    -0.10644   0.0088706
0.50258     0.22065   -0.084999    -0.52739     0.92548    -0.10838  -0.0089938
0.28268     0.20408   -0.059989    -0.39032     0.85694    -0.11423   -0.019063
0.09397     0.19693   -0.017764    -0.20745     0.75235     -0.1191   -0.016464
-0.042774     0.19661    0.029333   -0.039851     0.60457    -0.12105 -0.00022403
-0.11586     0.19239    0.062139    0.053044     0.34862    -0.12365    0.020564
-0.12755     0.18102    0.072858    0.024786   -0.059014    -0.13242    0.037454
-0.09929     0.16835     0.06019    -0.18342    -0.56441    -0.15256    0.048497
-0.057065     0.15893    0.029983    -0.59137     -1.0367    -0.17724    0.045899
-0.017114     0.15731  -0.0080194     -1.1085     -1.3381    -0.19089     0.03518
0.024786     0.16478   -0.042124     -1.5889     -1.3894    -0.18244    0.017316
0.068635     0.17712   -0.064211     -1.9257     -1.2131    -0.15451  -0.0067202
0.10404     0.18622   -0.072656     -2.0861    -0.91228    -0.11488   -0.036278
0.12353     0.18914   -0.068109     -2.0709    -0.60209   -0.072981   -0.062912
0.12483     0.18557   -0.044723     -1.8458    -0.33607   -0.032705   -0.077853
0.10826     0.17842   0.0036737     -1.3414   -0.096692   0.0023744   -0.073306
0.075456      0.1677    0.069934    -0.55987     0.13522    0.031607   -0.051544
0.026085     0.15049      0.1336     0.32913     0.34829    0.055968   -0.028157
-0.037252     0.12483     0.17062       1.047      0.5055    0.071234   -0.016464
-0.11651    0.087149     0.16283      1.3854     0.56527    0.070909   -0.020687
-0.22402    0.029658     0.10956      1.3156      0.5107    0.054019   -0.036278
-0.36498   -0.050244    0.030633      1.0051     0.37071    0.029009   -0.053168
-0.52869    -0.14639   -0.044723     0.71273     0.21188   0.0049729   -0.064211
-0.68232    -0.23896   -0.093769     0.63737     0.10469   -0.011592   -0.067459
-0.77521    -0.30717    -0.10481     0.82056    0.073507   -0.019388   -0.057715
-0.77489     -0.3338   -0.079477      1.1564     0.10047   -0.018088   -0.034654
-0.68752    -0.31691   -0.033354      1.4689     0.14951   -0.010943  -0.0054209
-0.55629    -0.27371    0.011794      1.5917     0.18134  -0.0047713    0.012768
-0.42994    -0.22661    0.041027      1.4471     0.18297   -0.010618    0.009845
-0.32666    -0.18569    0.050446      1.0996     0.16998   -0.030431   -0.013541
-0.23733    -0.14931    0.048822     0.69551     0.16998   -0.051544    -0.04115
-0.14639    -0.11228    0.044924     0.36064       0.207   -0.058689   -0.057715
-0.050244   -0.076879    0.036479     0.14042     0.28528     -0.0405   -0.054142
0.043625   -0.053492   0.0065969   -0.024909     0.38337   0.0043233   -0.034004
0.1271   -0.044723    -0.06681    -0.22597     0.45938     0.06831  -0.0041217
0.18914   -0.044398    -0.19024    -0.48029     0.47692     0.13684    0.028034
0.21967   -0.042774    -0.33672    -0.71448     0.42138     0.19499    0.057267
0.21512   -0.026209    -0.45138    -0.83563     0.31516     0.23786    0.082602
0.19239   0.0088706    -0.48224    -0.78853     0.20148      0.2619     0.10436
0.1716    0.058241    -0.40591    -0.55987     0.11736     0.26677     0.12418
0.1625     0.11118    -0.24318    -0.18342    0.067011      0.2515     0.13749
0.15958     0.15211   -0.047971     0.24143    0.028684     0.21805     0.13684
0.15568      0.1677      0.1206     0.57371   -0.017764     0.16673     0.11801
0.14139     0.15568     0.22389     0.71175   -0.073306     0.11054    0.087474
0.11541     0.12743       0.258     0.63997    -0.13502    0.057267    0.056292
0.084876    0.093321     0.23624     0.41456     -0.2029    0.014392    0.033231
0.054344    0.062789     0.18297     0.15114    -0.27696   -0.016789    0.024461
0.034206    0.039727     0.12418   -0.017114     -0.3705   -0.035628    0.028684
0.028034    0.027709    0.084876   0.0056225    -0.49588   -0.043099     0.03583
0.036479    0.029333    0.078704     0.22974    -0.63522   -0.040825    0.040052
0.055643    0.042001     0.10112     0.58086    -0.74403   -0.035953    0.036479
0.079029    0.053044     0.13749      0.9323    -0.77197   -0.033679     0.02641
0.094945    0.054019     0.17062      1.1541    -0.69629   -0.038551    0.011144
0.099817    0.043625     0.19271       1.186    -0.55175   -0.052193 -0.00087364
0.096569    0.023162     0.20018      1.0424    -0.40948   -0.073306   -0.008669
0.10371 -0.00087364     0.19336     0.78873    -0.32016   -0.092794   -0.014191
0.13912   -0.021012     0.17712     0.50583      -0.301    -0.10384   -0.014516
0.20278   -0.034654     0.15893     0.25897    -0.34355    -0.10254  -0.0099683
0.27456   -0.039526     0.14269      0.0852    -0.44131   -0.093119  -0.0080194
0.31874    -0.03303     0.12645   -0.020687    -0.59007   -0.084349   -0.015815
0.2986   -0.019712     0.10696   -0.085973     -0.7606   -0.086298    -0.03238
0.19239  -0.0050961    0.081627    -0.13502    -0.88662   -0.098316   -0.049595
0.0069217    0.012443    0.058566    -0.17465     -0.8876    -0.10676   -0.056416
-0.2159    0.035505    0.048822    -0.19446    -0.73461   -0.098641   -0.049595
-0.42182    0.071558    0.053044    -0.19771    -0.46762   -0.069408   -0.029457
-0.56604     0.12353    0.059216    -0.21557    -0.16815   -0.028157  -0.0028225
-0.62548     0.17777    0.049472    -0.28118    0.099167    0.014068    0.020888
-0.60144     0.21123     0.01829    -0.40104     0.31159    0.048822     0.03453
-0.49361       0.207   -0.025884    -0.55207     0.47919    0.067011    0.039402
-0.31236      0.1664   -0.060963    -0.69759     0.63023     0.06961    0.038428
-0.091495     0.10664   -0.075255    -0.80412     0.80238    0.065387    0.038428
0.11606    0.047847   -0.068109    -0.85414     0.98784    0.057917    0.038753
0.26352      0.0014    -0.04927    -0.84895      1.1321    0.048172    0.034855
0.32848   -0.029457   -0.034978    -0.80412      1.1509    0.028359    0.021863
0.31874   -0.047646   -0.031406    -0.74858     0.94237  -0.0067202  0.00042559
0.25735   -0.055116   -0.038227    -0.69888     0.47335   -0.060313   -0.027833
0.1729   -0.054467   -0.048945    -0.66186    -0.16912    -0.12268   -0.054142
0.08585   -0.050894    -0.05804    -0.63425    -0.78041    -0.17465   -0.071357
0.021863   -0.048296   -0.059664    -0.60956     -1.1403    -0.19836   -0.076554
0.0017248   -0.051219   -0.055116    -0.58228     -1.1293    -0.19121   -0.070382
0.032906   -0.060963    -0.04992     -0.5511    -0.78561    -0.16393   -0.056741
0.10566   -0.072656   -0.047321    -0.52349    -0.26884    -0.12463   -0.037252
0.20603   -0.081101    -0.04927    -0.50173     0.21188   -0.082725   -0.018088
0.31451   -0.082725   -0.057065    -0.48581     0.47594   -0.050894  -0.0021729
0.40643   -0.074605   -0.070382    -0.47314     0.43242   -0.038876   0.0026992
0.46068   -0.052518   -0.086298    -0.46307     0.10014   -0.046347  -0.0099683
0.46717   -0.010293   -0.098965    -0.45528    -0.40201   -0.065186   -0.032705
0.43112    0.046223    -0.10319    -0.44813    -0.88955   -0.088247   -0.057065
0.36064    0.099492    -0.10351    -0.43482     -1.1897    -0.10774   -0.074605
0.26872     0.12028    -0.10286    -0.41208     -1.2189    -0.11748   -0.082725
0.17712    0.097868    -0.10059     -0.3783     -1.0062    -0.11326   -0.082076
0.11541    0.044599   -0.089546     -0.3312    -0.66218   -0.095068   -0.072981
0.10761  -0.0083442    -0.06616    -0.27111    -0.32081    -0.06681   -0.054467
0.15016   -0.044073   -0.036927    -0.20713    -0.06616   -0.037252   -0.024909
0.20993   -0.065186   -0.010943    -0.15029    0.095919   -0.016464    0.011469
0.24371   -0.081751   0.0020496    -0.10644     0.21058   -0.011267    0.035505
0.22324    -0.10091  -0.0034721   -0.081101     0.32101   -0.022636     0.03453
0.14691     -0.1321   -0.024585   -0.073631     0.44119    -0.04115     0.01017
0.042001    -0.17302   -0.052518   -0.078503      0.5539   -0.053817   -0.024585
-0.059989    -0.20323   -0.074605   -0.086298     0.63835   -0.052518    -0.05804
-0.13859    -0.19706   -0.078827   -0.086298     0.69746   -0.037577     -0.0824
-0.18569    -0.14931   -0.067459   -0.073955     0.75008   -0.014516    -0.10254
-0.20615   -0.073631   -0.051868   -0.052193     0.80985   0.0052977    -0.11845
-0.22142   0.0046481     -0.0405   -0.025884     0.86117    0.016016    -0.12982
-0.2578    0.064413   -0.036278   0.0023744     0.87968    0.019264    -0.13599
-0.34452    0.088773   -0.033354    0.029983     0.85045    0.022188    -0.13924
-0.4975    0.065712   -0.030756    0.054019     0.77964    0.029333    -0.13989
-0.70311  0.00042559   -0.028482    0.072208     0.67895    0.042326     -0.1321
-0.923   -0.072981   -0.023935    0.083251     0.54091    0.063113    -0.11163
-1.0987    -0.11488   -0.011917    0.089748     0.32328    0.084551     -0.0824
-1.1744    -0.10676   0.0078962    0.099817  -0.0047713    0.097218    -0.04927
-1.1163   -0.056416    0.030633     0.11801    -0.38934    0.095919   -0.017114
-0.93275   0.0095202    0.045574     0.14107    -0.71902    0.082277    0.008221
-0.67225    0.066362    0.039402     0.15211    -0.89117     0.06084    0.022837
-0.39194    0.098842    0.011144     0.14529    -0.84212    0.039402    0.028684
-0.14152     0.10209   -0.031081     0.13652    -0.57221    0.020888    0.028359
0.045249    0.082927   -0.074605     0.14854    -0.16003   0.0043233    0.028034
0.16185    0.054344    -0.10741     0.18232     0.26709   -0.012567    0.028684
0.22552    0.028684     -0.1191     0.21805      0.5945   -0.027833    0.028034
0.26287    0.017965    -0.10286     0.22844     0.75235   -0.042449    0.030308
0.29925     0.02641   -0.056416     0.20083     0.71305    -0.05804    0.039078
0.3444    0.054668    0.016991     0.13684     0.51525   -0.081101    0.055968
0.3863    0.093645     0.10566    0.040377      0.2606    -0.11196    0.071883
0.41293       0.131     0.18427     -0.0824    0.051096    -0.14899    0.078055
0.42203     0.16218     0.23299    -0.18861   -0.024909    -0.17692    0.075781
0.4217     0.18849     0.24858    -0.18277    0.089423    -0.17172    0.073832
0.4165     0.20668     0.23364   -0.020037     0.38662    -0.12527    0.084551
0.40449     0.20408     0.18816     0.21252     0.78126   -0.041475     0.11346
0.38565     0.16965     0.11183     0.36518      1.1347    0.063113     0.14984
0.36064    0.099492    0.011144     0.34862      1.2919     0.16705      0.1768
0.32101   0.0020496    -0.10254     0.17712      1.0833     0.25085     0.18654
0.27196    -0.10351    -0.20972   -0.078503     0.43534     0.30347     0.18069
0.22617    -0.19024     -0.2893    -0.34907    -0.49003     0.32458     0.16478
0.20668    -0.23668    -0.31496     -0.5446     -1.3443     0.32004     0.14951
0.22162    -0.23409    -0.27306    -0.52576     -1.8367     0.30055     0.14009
0.25832    -0.19186    -0.17627    -0.20258     -1.8474     0.27911     0.13912
0.29145    -0.13275   -0.060638      0.3327     -1.4534     0.25995     0.14496
0.29535   -0.077528    0.038103     0.85434    -0.86096     0.24241     0.14919
0.25248   -0.040175    0.091372      1.1795    -0.30554      0.2187     0.13717
0.15601   -0.020362    0.095919      1.2545    0.036154     0.18589     0.10501
0.021538  -0.0076946    0.061489       1.145     0.11411     0.14496    0.062789
-0.10903   0.0026992    0.013093     0.97322   0.0023744    0.096893    0.020239
-0.20713   0.0046481    -0.03173     0.83421     -0.1714    0.045574   -0.013541
-0.28735   -0.010943    -0.06551     0.76405    -0.30554  -0.0011985   -0.034004
-0.37603   -0.043748   -0.085973     0.74066    -0.36693   -0.035303    -0.04115
-0.47184   -0.085973   -0.093119     0.72605    -0.37018   -0.055441   -0.034978
-0.53811      -0.123   -0.089871     0.68902    -0.34939    -0.06551   -0.021661
-0.53388    -0.13794   -0.078503      0.6299     -0.3442   -0.062587  -0.0041217
-0.43871    -0.12398   -0.062587     0.56657    -0.38187   -0.045372    0.019589
-0.27111   -0.088247     -0.0405     0.51232    -0.47022   -0.013541    0.047523
-0.080776   -0.042449   -0.010293     0.46977    -0.58878    0.029658    0.074806
0.080003    0.010819    0.029009     0.43209    -0.72097    0.074482    0.092346
0.18394    0.074482    0.074806     0.39149    -0.89507     0.11118     0.09462
0.23461     0.13749     0.11736     0.34245     -1.1163     0.13067    0.081627
0.23364      0.1781     0.14399      0.2895     -1.3232     0.12613    0.058241
0.17939     0.18427     0.14951     0.23981     -1.4076    0.099167    0.029983
0.076106     0.15991     0.13652     0.19563     -1.2595    0.055643  -0.0041217
-0.066485     0.12223     0.11248     0.15146    -0.81354  -0.0015233   -0.044723
-0.23376    0.082927    0.080978    0.084226    -0.10319   -0.073631   -0.093769
-0.40818    0.041027    0.038753   -0.028807     0.70688    -0.15776    -0.14379
-0.58195    -0.01549   -0.017439    -0.19608      1.3844    -0.25195    -0.18829
-0.74761   -0.089871   -0.087272    -0.39259      1.7593    -0.34744    -0.21947
-0.88013    -0.17237    -0.15256    -0.56604      1.7934    -0.42832    -0.23668
-0.9308    -0.23701    -0.18699    -0.65309      1.5861    -0.47672    -0.23928
-0.85837    -0.25455    -0.17107    -0.61963      1.3091    -0.48159    -0.22629
-0.66998    -0.21297    -0.11261    -0.48516      1.1031    -0.44781    -0.20063
-0.40721    -0.12398   -0.039201     -0.2997      1.0307    -0.39584    -0.17302
-0.12592   -0.010618    0.016341    -0.12398      1.1067    -0.34809    -0.15483
0.13067    0.099492    0.038103  -0.0024977      1.3208    -0.32016    -0.15483
0.34017     0.18037    0.018615    0.045899      1.6342    -0.31789    -0.17302
0.5055     0.21707   -0.034978    0.020239      1.9675    -0.33153    -0.19706
0.64907     0.21545    -0.10806   -0.067459      2.2322    -0.34712    -0.21427
0.7962     0.19499    -0.17367    -0.19641      2.3666    -0.34972    -0.21395
0.95893     0.17192    -0.20615    -0.33413      2.3511    -0.33055    -0.19283
1.1165     0.15016    -0.18796    -0.45333      2.1929     -0.2945    -0.15646
1.2324     0.13457    -0.12073    -0.56084      1.9116    -0.25747    -0.11228
1.2623     0.12807   -0.034004    -0.68979      1.5381    -0.22597   -0.074605
1.173     0.13555    0.040702    -0.82459      1.1035    -0.19901   -0.045372
0.96478     0.15373     0.09462    -0.85966     0.63055    -0.16782    -0.02426
0.67213     0.17225     0.14172    -0.69499     0.14107    -0.12463  -0.0034721
0.35674     0.17225     0.19628    -0.35524    -0.32373   -0.065835    0.028359
0.080978     0.14691     0.25735    0.022837    -0.71902   0.0075714    0.073182
-0.10806    0.098842     0.30282      0.3012     -1.0133    0.084226      0.1232
-0.19803    0.036804     0.30574     0.40806     -1.2092     0.14984     0.16478
-0.21232   -0.028482     0.25248     0.35512     -1.3469     0.19239     0.18914
-0.19576    -0.09117     0.14951     0.20863     -1.4583     0.20733     0.19044
-0.18731    -0.14184     0.01829     0.05207     -1.5307     0.19076     0.16445
-0.2081    -0.17432    -0.11293   -0.058689     -1.5408     0.14334     0.10794
-0.2552    -0.18731    -0.21557    -0.11293     -1.4813    0.069934    0.024786
-0.29288    -0.18179    -0.27371    -0.12365     -1.3722  -0.0089938   -0.059989
-0.27923    -0.16068    -0.28703    -0.11391     -1.2491    -0.06681    -0.11163
-0.20225    -0.13112    -0.26657   -0.097017     -1.1478   -0.083375    -0.11293
-0.10611    -0.10579    -0.23051   -0.081426     -1.0848   -0.053817   -0.069733
-0.063237    -0.10091    -0.19446    -0.07428     -1.0552   0.0075714  -0.0080194
-0.12592     -0.1269     -0.1649   -0.070707     -1.0279    0.080003    0.046873
-0.28898    -0.17919    -0.13892   -0.069733    -0.97335     0.14139     0.07708
-0.5027    -0.23181    -0.11553    -0.06616    -0.87103     0.17842    0.078704
-0.69304    -0.25455    -0.09117   -0.060638    -0.72357     0.18914    0.062789
-0.79958    -0.23246   -0.056091   -0.053817    -0.55142     0.18329    0.042651
-0.79503    -0.17205   -0.011917    -0.04992    -0.38187       0.169    0.031607
-0.68882   -0.093769    0.030957    -0.06681    -0.23571     0.15438    0.031282
-0.52154   -0.022636    0.062789    -0.15548    -0.12657     0.14107    0.036154
-0.3403    0.020239    0.084876    -0.34192   -0.055766     0.12678    0.041676
-0.18569    0.032257    0.099492    -0.60014    -0.01614     0.10956    0.046548
-0.074605    0.024461     0.10566    -0.86681   0.0033489    0.092671    0.051096
-0.0034721    0.014392     0.10371     -1.0968    0.011144    0.080978    0.053694
0.046548   0.0095202    0.096244     -1.2813     0.01017    0.078704    0.055318
0.090072    0.012119    0.086175     -1.4161  -0.0050961    0.083251    0.057917
0.1323    0.021863    0.076755     -1.4388   -0.034978    0.092021    0.059541
0.17355    0.037129    0.067336     -1.2394   -0.072656     0.10177    0.061489
0.20993    0.055643    0.057592    -0.73591    -0.10156     0.11346    0.064413
0.23624    0.073182    0.053044    0.041351    -0.11066     0.12807    0.070909
0.2502    0.084551    0.055318     0.92255    -0.10774     0.14464    0.083251
0.2489    0.088773    0.061489      1.6927    -0.10644     0.15666     0.10014
0.23266    0.083901    0.066686       2.201     -0.1178     0.16185     0.11443
0.20148    0.071234    0.064088      2.3949    -0.14606     0.16153     0.11995
0.16315    0.050771    0.048822      2.3023    -0.18244     0.15341     0.11281
0.12613    0.025111    0.020888      1.9944    -0.21427      0.1336    0.094945
0.095919 -0.00022403   -0.013216      1.5533    -0.23019     0.10306    0.070259
0.074482   -0.020687   -0.046022      1.0431    -0.22661     0.06831    0.047847
0.065062   -0.033679   -0.070707      0.5029    -0.20843    0.043625    0.032906
0.065712   -0.037577     -0.0837   -0.019063    -0.18439    0.032257    0.023487
0.067661    -0.03303   -0.083375    -0.44424    -0.15873    0.032582    0.015367
0.06019   -0.021661   -0.067134    -0.70928    -0.13924    0.039402    0.009845
0.036804   -0.008669   -0.037252     -0.8025    -0.13924    0.044599   0.0075714
-0.0044465  0.00042559    0.008221     -0.7567    -0.16003    0.040377     0.01017
-0.053492   0.0017248    0.067336    -0.59397    -0.17919    0.024137    0.015367
-0.093769  -0.0047713     0.13912    -0.29937    -0.16912    0.003024    0.021213
-0.11423    -0.01484     0.21058     0.11346    -0.12365   -0.017114    0.024461
-0.11391   -0.019388     0.26579     0.54448   -0.076554   -0.029132    0.019589
-0.097991   -0.014516     0.28983     0.85175   -0.074605   -0.038876   0.0078962
-0.063886   0.0020496     0.27879     0.93035    -0.14249   -0.050894  -0.0083442
-0.0024977    0.026085     0.23916     0.77477    -0.25942   -0.067134   -0.021337
0.081627    0.053694     0.18687     0.48861    -0.39292     -0.0824   -0.021986
0.16608    0.073832     0.13457     0.21415     -0.5001   -0.086623   -0.014191
0.22065     0.07708    0.088124    0.056292    -0.53551   -0.080451  -0.0034721
0.22649    0.063438    0.049147    0.042001    -0.47347   -0.067134  0.00075039
0.18784    0.039078    0.014392     0.14269    -0.31366   -0.047971  -0.0034721
0.12743    0.013418  -0.0093186     0.29892   -0.094093   -0.021012   -0.011917
0.072533  -0.0028225   -0.019712     0.44639      0.1206   0.0062721   -0.019063
0.035505  -0.0011985   -0.020687     0.53181     0.26514    0.023162   -0.018738
0.022188    0.019914   -0.014516     0.52791     0.31484    0.026085  -0.0067202
0.033556    0.054993  -0.0057458     0.43827     0.29697    0.016991    0.014068
0.066037    0.087149  0.00010078     0.29308     0.25962  -0.0031473    0.036154
0.099817     0.10047   0.0036737     0.13002     0.23006   -0.034654    0.050121
0.11606    0.086824   0.0085458   -0.021012     0.21382   -0.075579    0.050121
0.10501    0.049147     0.01764    -0.14152     0.19953    -0.12203    0.037778
0.06896   0.0023744    0.029333    -0.22629     0.16738     -0.1662    0.016991
0.01894   -0.033354    0.039402    -0.27923     0.10274    -0.20193   -0.011267
-0.026533   -0.045697    0.042326    -0.31626   0.0049729    -0.22272   -0.050894
-0.048296   -0.035953    0.036154    -0.35296    -0.10903    -0.22532   -0.095717
-0.03173   -0.018738    0.020564    -0.39584    -0.22272    -0.20615    -0.13112
0.016016   -0.013216 -0.00087364    -0.43969    -0.33348    -0.16718    -0.14769
0.074157   -0.033354   -0.028807    -0.48224    -0.45625    -0.11813    -0.14606
0.11281   -0.079802   -0.058689    -0.52122    -0.57578   -0.070707    -0.13307
0.1206    -0.13924   -0.082076    -0.55727    -0.62808   -0.035628    -0.11391
0.095269    -0.18277    -0.09994    -0.59072    -0.56409   -0.021012   -0.092145
0.033881    -0.19381    -0.12105    -0.62678    -0.38642    -0.03238   -0.080451
-0.088896    -0.17205    -0.15029    -0.66803    -0.14931   -0.065835   -0.088247
-0.2893    -0.13404    -0.18796    -0.71025    0.096569    -0.11293     -0.1217
-0.54168   -0.095717    -0.22726    -0.73266     0.32426    -0.15776    -0.16523
-0.78853   -0.061288     -0.2526    -0.71155     0.53246    -0.17952    -0.20063
-0.9714   -0.030756     -0.2448    -0.62808     0.73189    -0.17237    -0.21655
-1.0552  -0.0031473     -0.2042    -0.47802     0.92808    -0.13957    -0.21037
-1.0282    0.022837    -0.14216    -0.28216      1.1048   -0.094743    -0.18439
-0.89734    0.043625   -0.078827   -0.081426      1.2409   -0.053168    -0.15029
-0.67258    0.066686   -0.030431    0.077405      1.3162   -0.022311    -0.11553
-0.36985     0.10112  -0.0041217     0.16868      1.3302  -0.0028225   -0.084024
-0.019063     0.15698   0.0059473     0.18751      1.3078   0.0078962   -0.056741
0.33205     0.22844   0.0056225     0.14042      1.2766    0.019264   -0.028157
0.63055      0.2921  -0.0028225     0.03453      1.2422    0.033231   0.0039985
0.84265     0.32198   -0.020037     -0.1178      1.1915    0.048172     0.03453
0.95796     0.30704   -0.045697    -0.30587      1.1129    0.061489    0.055968
0.98329      0.2515    -0.07428    -0.51699      1.0008    0.070584    0.063113
0.94627      0.1755    -0.10449     -0.7148     0.84655    0.071558    0.055643
0.86571     0.10047    -0.13372    -0.85122     0.64647    0.062139    0.040377
0.74618    0.041027    -0.15646     -0.8876     0.40156    0.040052    0.020239
0.588   0.0052977    -0.15873    -0.80834     0.12353    0.011469   0.0017248
0.39344  -0.0034721    -0.13015    -0.61379    -0.18666    -0.01549   -0.012567
0.17355    0.016341   -0.070058    -0.31464    -0.53161   -0.036927   -0.021012
-0.054142    0.059541   0.0078962    0.050446     -0.8785   -0.055116   -0.026533
-0.26397     0.11086    0.083901     0.41261     -1.1653    -0.07428    -0.03303
-0.42865     0.14691     0.13977     0.68772      -1.329   -0.089871    -0.04115
-0.52414     0.15114     0.16608     0.82284     -1.3595    -0.10254   -0.049595
-0.52479     0.11866     0.15991     0.82219     -1.2926    -0.11293   -0.063561
-0.41793    0.055643      0.1258     0.72799     -1.1741    -0.11943   -0.078827
-0.21882   -0.026209     0.07708     0.59093      -1.023    -0.11878   -0.081426
0.022188    -0.11456    0.029983     0.44769    -0.81582    -0.10351    -0.06616
0.23266    -0.18991   -0.010943     0.31484    -0.52381   -0.071682   -0.039851
0.35252    -0.23051   -0.045697     0.19401    -0.14769   -0.026209   -0.017764
0.35739    -0.22986   -0.078178      0.0865     0.27554    0.024461  -0.0041217
0.26417    -0.20323    -0.10936  -0.0063954     0.67765    0.073182    0.009845
0.11606    -0.16945    -0.13664   -0.077528     0.99174     0.11606    0.031282
-0.031406    -0.13957    -0.15256    -0.11943      1.1697     0.15081     0.06019
-0.14152    -0.11391    -0.15191    -0.13015      1.1964     0.17355    0.090072
-0.19446   -0.093444    -0.13957    -0.12008      1.0882      0.1768     0.11118
-0.19966   -0.080451    -0.12333    -0.10286     0.89365     0.16218     0.11768
-0.18536   -0.081426    -0.11228   -0.089871     0.67083     0.13555     0.11248
-0.17919   -0.095717    -0.10936   -0.078827     0.46555     0.11151    0.099817
-0.19316    -0.11098    -0.10579   -0.059989     0.29633     0.10306    0.084226
-0.21882    -0.11553   -0.092794   -0.020037     0.13035     0.10501    0.069934
-0.24123    -0.10384   -0.066485    0.037778    -0.10774     0.10696    0.055968
-0.2448   -0.084024   -0.030106    0.097543    -0.49848     0.09397     0.04395
-0.21914    -0.06551   0.0088706     0.13262      -1.064    0.057592    0.031282
-0.1636   -0.056091    0.046223     0.12028     -1.7042  -0.0041217    0.013093
-0.090196   -0.054792    0.077405     0.05207     -2.2518   -0.085324   -0.013216
-0.022636   -0.054792    0.093321   -0.057715     -2.5383    -0.17367   -0.045047
0.016666   -0.051868    0.091372    -0.18017     -2.4671    -0.24838   -0.076554
0.01764   -0.042124    0.073182    -0.28053     -2.0585    -0.29223   -0.098641
-0.012567   -0.024585    0.042651    -0.33802     -1.4502    -0.29645    -0.10059
-0.060313 -0.00054884   0.0072465    -0.35491    -0.83303    -0.26624   -0.080127
-0.10091     0.02641   -0.023935    -0.34744    -0.36563    -0.21785   -0.045697
-0.11391    0.054344   -0.046671    -0.33575    -0.12365    -0.16685  -0.0060706
-0.087272      0.0852   -0.057715    -0.32471     -0.0837     -0.1191    0.032906
-0.027183      0.1206   -0.062262    -0.29515    -0.17075    -0.07493    0.068635
0.048172     0.14984   -0.059339    -0.21752    -0.31204   -0.036602    0.092996
0.11378     0.16283   -0.043748   -0.072331    -0.45593   -0.010943     0.10209
0.15016     0.15861   -0.014516     0.13327    -0.57156   0.0023744    0.097868
0.15244     0.14594    0.026085     0.36226    -0.64854   0.0065969    0.085525
0.13587     0.13295     0.06831     0.56559    -0.68849    0.011794    0.074482
0.11606     0.12353     0.10177     0.70493    -0.69012    0.023487    0.072208
0.099492     0.11443     0.12158     0.75983    -0.64886    0.041351     0.07773
0.077405    0.092996     0.12515     0.72897    -0.56084    0.066037    0.090397
0.035505    0.049472     0.11476     0.63445    -0.42637    0.096244     0.10436
-0.026533   -0.013216    0.099167     0.50842    -0.26332     0.12743     0.11541
-0.095393   -0.077853    0.083251     0.38013   -0.089871     0.15438     0.11801
-0.14769    -0.12365    0.071883     0.27684    0.096893     0.17517     0.11118
-0.15841    -0.14152    0.067011      0.2148     0.33823     0.18719    0.097543
-0.13372    -0.13502    0.064088     0.18946     0.66596     0.18719    0.075781
-0.098316     -0.1178    0.056292     0.17517      1.0645     0.17127    0.041676
-0.070058   -0.098965    0.040377     0.14432      1.4751     0.13749   0.0036737
-0.042449   -0.078503    0.015692    0.083251      1.8258    0.092996   -0.031081
0.0026992   -0.056741    -0.01484   -0.020037      2.0824    0.050771   -0.055766
0.058241   -0.045372   -0.053168    -0.18731      2.2465    0.015042   -0.072656
0.10079    -0.05739   -0.096367    -0.42052      2.3215   -0.015165   -0.085324
0.11378   -0.097666    -0.12852    -0.65211       2.302   -0.044073   -0.096367
0.10242    -0.15418    -0.13502    -0.78431      2.1864   -0.067134    -0.10221
0.081952    -0.20355    -0.11131    -0.77554      2.0019   -0.084349    -0.10481
0.068635    -0.22239   -0.064536    -0.65211      1.8031   -0.096367    -0.10481
0.075131    -0.19251  -0.0060706    -0.47282      1.6482    -0.10254    -0.09929
0.10079    -0.11326    0.048172    -0.29677      1.5722    -0.10156   -0.089546
0.13327   0.0017248    0.087149    -0.17205      1.5741    -0.09117   -0.073306
0.15633     0.12613     0.10339    -0.12625      1.6043   -0.076879   -0.050894
0.15633     0.23201    0.097868    -0.14931      1.5105   -0.063237   -0.029782
0.13392      0.3038    0.078379    -0.20485      1.0424   -0.055441   -0.015815
0.096569     0.33075    0.056292     -0.2565    0.042001   -0.056741   -0.010943
0.04395     0.31614    0.036154    -0.27858     -1.3297   -0.064536   -0.010293
-0.020362     0.27229     0.01894    -0.25682     -2.6692   -0.075904  -0.0083442
-0.084349      0.2187  -0.0011985     -0.1662     -3.6036   -0.084349  0.00042559
-0.13469     0.16965   -0.026533     0.01764     -3.9109   -0.079802    0.016991
-0.15938      0.1336   -0.053817     0.28431      -3.576   -0.054792    0.034206
-0.14834     0.11054   -0.073306     0.58281     -2.7828    -0.01484    0.044275
-0.10579    0.095594   -0.077528     0.84752     -1.8211    0.023812    0.040702
-0.041475    0.083901   -0.066485      1.0301     -0.9675    0.049472    0.025761
0.023487    0.072858   -0.044073      1.1103    -0.37862    0.057592   0.0052977
0.075131    0.066686   -0.013541      1.0944   -0.039851    0.050771   -0.011267
0.11248    0.064737    0.017316      1.0041     0.16803    0.029658    -0.02426
0.14074    0.064737    0.040702     0.87741     0.36421   0.0049729   -0.036278
0.16315    0.058891    0.053044     0.74391     0.59742   -0.012242   -0.046022
0.18037    0.033231     0.05207     0.61951     0.84005    -0.01484   -0.050244
0.18297   -0.019063    0.038103     0.50518      1.0431   0.0020496   -0.044723
0.15633   -0.092469     0.01829     0.39084      1.1714    0.032257   -0.029782
0.08585    -0.16523 -0.00054884     0.25832      1.2211    0.067986  -0.0089938
-0.022961     -0.2133   -0.011917     0.10242      1.2051     0.10177    0.012443
-0.14249    -0.22499    -0.01484    -0.06681      1.1447     0.12223    0.030633
-0.24091    -0.20323  -0.0096434    -0.24253       1.045     0.11963    0.039727
-0.30035    -0.16523  -0.0024977    -0.42929     0.87968    0.084876    0.037778
-0.31594      -0.123   0.0072465    -0.65276     0.61853    0.019914    0.021213
-0.28768   -0.085648    0.033231    -0.92268     0.26417   -0.069083  -0.0073698
-0.23051   -0.055441    0.082927     -1.2257    -0.11813    -0.16588   -0.044398
-0.16782   -0.030431     0.14204     -1.5187    -0.43871    -0.24773   -0.084999
-0.12398   -0.008669     0.18264      -1.747     -0.6703    -0.29775    -0.12203
-0.11293   0.0062721     0.18589     -1.8243    -0.84472    -0.31496    -0.14899
-0.13599   0.0088706     0.15179     -1.6142    -0.98926    -0.30197      -0.161
-0.1714   0.0065969    0.099167     -1.0058     -1.1091    -0.26137    -0.15256
-0.19089    0.010495    0.046873   -0.070058     -1.1848    -0.19738     -0.1191
-0.1714    0.022188   0.0049729     0.91833     -1.1721    -0.11845   -0.060638
-0.11001    0.037454    -0.03173      1.6758     -1.0204    -0.03238    0.013743
-0.019388    0.040052   -0.072656      2.0545    -0.70765    0.054344    0.094295
0.078704    0.021538    -0.12073      2.0506    -0.28735     0.13067     0.16218
0.15958   -0.018738    -0.17627       1.783     0.13327     0.18557     0.20505
0.19953   -0.085648    -0.23701      1.4075     0.43989      0.2096     0.21545
0.18199    -0.17465    -0.29612      1.0343     0.57339     0.19921     0.19856
0.10566    -0.27404    -0.34842     0.69714     0.54578     0.16185     0.16445
-0.0011985    -0.35491    -0.38285     0.39214     0.43015     0.11151      0.1271
-0.10059    -0.39259     -0.3796      0.1349     0.30185    0.067336    0.096569
-0.1753    -0.39454     -0.3338   -0.031406     0.19434    0.035505    0.082602
-0.22109     -0.3848    -0.25552   -0.075904    0.089098    0.011469    0.081303
-0.22532    -0.37635    -0.16945   0.0023744   -0.045372  -0.0073698    0.089423
-0.16068    -0.35914    -0.10091     0.16478    -0.21362   -0.021661     0.10306
-0.011592    -0.31854   -0.063886     0.34245    -0.39032   -0.030756     0.12028
0.18914    -0.24773   -0.060313     0.46165    -0.54005   -0.032055      0.1362
0.38337    -0.15451    -0.07493     0.46295    -0.63262   -0.022311     0.14659
0.52272   -0.054792   -0.085324     0.30964    -0.65763  -0.0018481     0.14594
0.58216    0.036479    -0.07428    0.037778    -0.61119    0.017316      0.1284
0.55162     0.10826   -0.032055    -0.22369    -0.48971    0.027385    0.094945
0.43209     0.14594    0.041027    -0.35199    -0.29385    0.029333    0.053369
0.22812     0.13295     0.13165    -0.32341   -0.040175    0.027709    0.013743
-0.054142    0.063763     0.20993    -0.22532     0.23721    0.022512   -0.029132
-0.39487   -0.044723     0.24273      -0.174     0.49771  0.00075039   -0.081751
-0.74728    -0.14769     0.21707    -0.23149     0.70721   -0.047321    -0.14574
-1.063    -0.18179     0.15146     -0.3796     0.86019    -0.11423     -0.2146
-1.2991    -0.11001    0.082927    -0.54103     0.98394    -0.17594    -0.27241
-1.4164    0.058566    0.045574    -0.64139      1.1057    -0.21492    -0.30067
-1.3748     0.26872    0.046223    -0.66023      1.2107    -0.23051    -0.29125
-1.1708     0.43989    0.070909    -0.63327      1.2314    -0.23116    -0.24935
-0.8457     0.51037    0.093645    -0.60729      1.0811    -0.22791    -0.19121
-0.46275     0.46523    0.094945    -0.61443     0.72929    -0.22272    -0.13242
-0.084349     0.34829    0.076755     -0.6651     0.25215    -0.20745   -0.073306
0.25085     0.23494    0.057917    -0.73884    -0.20778     -0.1714   -0.011267
0.52207     0.18492    0.054344    -0.78886    -0.55305    -0.11293    0.053044
0.72702      0.2148    0.065062    -0.78398    -0.78333   -0.043099     0.11378
0.87611      0.2999    0.079354    -0.76547    -0.96425     0.01829     0.15568
0.98427     0.39896    0.082602     -0.8038     -1.1809    0.058566     0.16998
1.0414     0.48179    0.065712    -0.91618     -1.4703    0.072208     0.15861
1.0226     0.53506    0.029983     -1.0117     -1.7811    0.064737       0.131
0.91476     0.55715   -0.011267    -0.93989     -2.0014    0.050446    0.099817
0.73287     0.54903   -0.045697    -0.62905     -2.0299    0.046223    0.074482
0.52369     0.51135    -0.06551    -0.16718      -1.836    0.056617    0.056942
0.33952     0.44931    -0.06551     0.25507     -1.4609    0.070259    0.047198
0.22065     0.37071   -0.045047     0.49153    -0.98634    0.074482    0.042001
0.17907     0.28658   -0.008669     0.52759    -0.49263    0.065387    0.036154
0.20116     0.20895    0.030308     0.43209   -0.036602    0.047847    0.025761
0.25995     0.14172    0.055318     0.28463     0.34894    0.029658   0.0062721
0.32491      0.0865    0.058891      0.1284     0.66466    0.019914   -0.021986
0.38207    0.041676      0.0433   -0.019063       0.931    0.025111   -0.052843
0.4256   0.0059473    0.015367     -0.1597      1.1759    0.042975   -0.077203
0.45613   -0.022636   -0.018413    -0.28411      1.4062    0.069934   -0.086948
0.47205   -0.042774   -0.048296    -0.39454      1.5946     0.10177   -0.080451
0.46912   -0.061288   -0.070058    -0.50075      1.6969     0.13327   -0.062587
0.43859   -0.087272   -0.082725    -0.59365      1.6703     0.15406   -0.041799
0.36941     -0.1204   -0.092469    -0.64562      1.4981     0.15731   -0.030106
0.2606    -0.15126   -0.099615    -0.63165      1.2155     0.13879   -0.030431
0.11703    -0.17335    -0.10676    -0.52479     0.87416     0.10729   -0.040175
-0.055116    -0.18569    -0.10579    -0.27436     0.49706    0.073832   -0.047971
-0.23019    -0.18699   -0.084999     0.12093    0.069934    0.047847   -0.048296
-0.36823    -0.17465    -0.03238     0.57046    -0.42345    0.028684   -0.039851
-0.43384    -0.14899    0.046873     0.94789    -0.98861    0.012443   -0.029782
-0.42475    -0.11943     0.13067      1.1662     -1.6087  -0.0083442   -0.026858
-0.36856   -0.097666     0.19076      1.1999     -2.1794   -0.047646   -0.035303
-0.2958   -0.089546     0.21285      1.0791     -2.5483    -0.11261   -0.055116
-0.22694   -0.098641     0.19304     0.86474      -2.588    -0.19836   -0.083375
-0.1675    -0.12138     0.14139     0.62503      -2.243    -0.28703    -0.11488
-0.12008    -0.15288    0.073507     0.41163     -1.5866    -0.35524    -0.14087
-0.077528    -0.19024    0.011144     0.24793    -0.80217    -0.38512    -0.15483
-0.034978    -0.22889   -0.034004     0.13847    -0.10514    -0.36758    -0.15093
0.012443    -0.26169   -0.054467    0.073507     0.34342    -0.30684     -0.1269
0.058566    -0.28183    -0.04992    0.024786      0.5107    -0.22109   -0.087272
0.090397    -0.28735   -0.032705   -0.072331     0.46717    -0.13177   -0.045047
0.097868    -0.28021   -0.013541    -0.32763     0.31906   -0.053492   -0.015165
0.073507    -0.26429  -0.0099683    -0.82621      0.1729    0.003024  -0.0067202
0.01764    -0.23766   -0.027183     -1.5099     0.11346    0.030633    -0.01484
-0.055766     -0.2016   -0.058365     -2.1998     0.19791    0.034855   -0.035303
-0.12722     -0.1623   -0.081751     -2.7322     0.43274    0.021538   -0.059339
-0.18017    -0.12657   -0.077203     -3.0355     0.74359  -0.0011985   -0.080776
-0.2029    -0.10156   -0.043423     -3.0677     0.99888    -0.03173   -0.097991
-0.19511   -0.085324    0.015692     -2.7299      1.1116   -0.069083    -0.11293
-0.16328    -0.07493    0.091047     -1.8838      1.1018    -0.10481    -0.12463
-0.1217   -0.064861     0.16478    -0.47119      1.0356    -0.12755    -0.13242
-0.08305   -0.055766      0.2135      1.2789      0.9651    -0.13145    -0.13437
-0.057065    -0.04862     0.22065      2.8746     0.92158    -0.11651    -0.13307
-0.044073    -0.04992     0.17874      3.9371     0.91086   -0.093769     -0.1269
-0.047646   -0.069083    0.093321      4.2781     0.91508   -0.068758    -0.10968
-0.071682    -0.10059    -0.01484      3.9761     0.90144   -0.045372   -0.080451
-0.1178    -0.14022     -0.1191      3.2956     0.83583   -0.018738   -0.043748
-0.18342    -0.18504    -0.19413      2.5372     0.70753    0.017316  -0.0034721
-0.26267    -0.22921    -0.22597      1.9165     0.54318    0.065712    0.031607
-0.34062    -0.26494    -0.21005      1.5114     0.39604     0.11898    0.057592
-0.39487    -0.27923    -0.15678      1.2893     0.32069     0.17062    0.075456
-0.40981    -0.26722   -0.089221       1.159     0.35057     0.21025    0.090072
-0.39194    -0.23538   -0.037577      1.0362     0.47075     0.22682     0.10274
-0.35491    -0.19738   -0.017764     0.87026     0.62763      0.2174     0.11118
-0.30717    -0.15776   -0.025559     0.65069     0.76242     0.18654     0.11281
-0.25585    -0.11456   -0.047646     0.38825     0.83843     0.14756     0.11054
-0.20778   -0.067459   -0.077203     0.10761     0.84395     0.11378     0.10696
-0.16815   -0.011267    -0.10676    -0.14769     0.77704    0.094295     0.10371
-0.13762    0.054344     -0.1256    -0.32601     0.65394    0.083576    0.095919
-0.11651      0.1232    -0.12852    -0.38837     0.50875    0.073182    0.091047
-0.10254     0.17874    -0.11391    -0.33315     0.37623     0.05272    0.088773
-0.092469      0.2109   -0.084674     -0.2081     0.27456    0.017316    0.086824
-0.078503     0.21447   -0.051544    -0.08305     0.18914   -0.028482    0.080653
-0.056741     0.19076   -0.024585  -0.0063954    0.061489   -0.076879    0.069285
-0.027508     0.13782   -0.010618  0.00042559    -0.17789     -0.1204    0.054668
0.0020496    0.063113  -0.0041217   -0.054467     -0.5433    -0.14834    0.042326
0.029333   -0.021661  0.00042559    -0.14444    -0.95743    -0.15646    0.035505
0.055968   -0.095393   0.0072465    -0.23506     -1.2946    -0.14834    0.033881
0.080328    -0.13859    0.014392    -0.30587     -1.4573    -0.12917    0.033231
0.10144    -0.14216    0.017965    -0.36109     -1.4187    -0.10449    0.031282
0.11671    -0.10903    0.010819    -0.41468     -1.2241   -0.075255    0.031282
0.1245   -0.055441   -0.010618    -0.47834    -0.95808   -0.045372    0.032257
0.12743   0.0088706   -0.042774    -0.54687    -0.70765   -0.020037    0.031282
0.12223    0.069285   -0.081426    -0.60372    -0.52771 -0.00087364    0.027709
0.10664     0.11151     -0.1178    -0.62678    -0.42962    0.010495    0.017316
0.078704     0.12678    -0.14087    -0.60339    -0.39909    0.015042   0.0017248
0.048822     0.12028    -0.14476    -0.54882    -0.41176    0.014392   -0.013216
0.030633     0.10729    -0.12852    -0.48938    -0.43969    0.014717   -0.020687
0.030308     0.10047   -0.098965    -0.45755    -0.45918    0.024137   -0.014516
