-0.062587  -0.0089938    0.037454   -0.057065  0.00042559   -0.043748   0.0078962
-0.067134    -0.01614    0.046548   -0.062262  -0.0028225   -0.047971    0.009845
-0.066485   -0.018088    0.054344   -0.065186 -0.00087364   -0.050244    0.014392
-0.060963   -0.013866    0.055318   -0.069733   0.0075714   -0.050569    0.014392
-0.052518  -0.0083442    0.044924   -0.079802    0.013418   -0.046996   0.0088706
-0.04115  -0.0041217    0.026735   -0.093444    0.012119   -0.039851  0.00010078
-0.030106  0.00042559   0.0091954    -0.10903    0.008221   -0.029132  -0.0080194
-0.019063   0.0065969   0.0010752     -0.1217   0.0049729   -0.022636   -0.014516
-0.0093186    0.010819   0.0020496    -0.13177   0.0017248    -0.02426   -0.020037
-0.0031473    0.011144   0.0062721    -0.13957  -0.0021729   -0.030431   -0.021661
0.00042559   0.0049729   0.0095202    -0.14476   -0.010943   -0.033679   -0.015815
-0.00054884  -0.0031473    0.011144    -0.14834   -0.017114   -0.029132  -0.0021729
-0.0047713  -0.0083442    0.009845    -0.14574   -0.021337   -0.017439    0.010819
-0.0089938   -0.011267   0.0078962    -0.13502    -0.02361  -0.0011985     0.01764
-0.010618   -0.014516   0.0046481    -0.11488   -0.021661    0.010495     0.01764
-0.012892   -0.016464  0.00042559    -0.09182    -0.01484    0.011469    0.010819
-0.01484   -0.016464  -0.0031473    -0.07493  -0.0050961   0.0039985  0.00010078
-0.013541   -0.014191  -0.0060706   -0.067784   0.0046481  -0.0047713   -0.010293
-0.0089938   -0.013216  -0.0080194   -0.068758    0.011144   -0.011267   -0.016464
-0.0037969    -0.01484   -0.010943   -0.073955     0.01017   -0.013216   -0.020362
0.00010078   -0.018738   -0.013541   -0.077853   0.0043233   -0.010293   -0.024909
0.0026992   -0.022636   -0.014516    -0.07493 -0.00087364  -0.0041217   -0.027508
0.0036737   -0.025234   -0.012567   -0.063886  -0.0047713   0.0039985   -0.024909
0.00075039   -0.025884  -0.0099683    -0.04992   -0.007045   0.0091954    -0.01614
-0.0063954   -0.024909   -0.007045   -0.038876   -0.008669   0.0065969  -0.0054209
-0.012242   -0.023285  -0.0044465   -0.030431   -0.010943   0.0026992   0.0043233
-0.01484   -0.022636  -0.0018481   -0.025884   -0.011592  -0.0011985   0.0078962
-0.011917    -0.02361      0.0014   -0.022636  -0.0096434  -0.0044465    0.003024
-0.0057458   -0.026858   0.0069217   -0.018738  -0.0060706  -0.0057458  -0.0060706
0.0014   -0.028482    0.014068   -0.013216  -0.0018481  -0.0034721   -0.016789
0.008221   -0.026209    0.019264  -0.0044465  0.00075039  0.00075039   -0.026209
0.0091954   -0.016789    0.021863   0.0059473   0.0020496   0.0043233   -0.034329
0.0046481  -0.0054209    0.020239    0.013418  0.00042559   0.0052977    -0.04115
-0.0031473   0.0017248    0.017965    0.015692  -0.0031473      0.0014   -0.047646
-0.010618   0.0023744    0.016666    0.013743  -0.0054209  -0.0063954   -0.053492
-0.013541 -0.00087364    0.016341    0.015692  -0.0099683   -0.012242   -0.052843
-0.013216  -0.0044465    0.013418    0.022837   -0.015815   -0.014516   -0.043748
-0.011592   -0.007045   0.0059473    0.034206   -0.017439   -0.013216   -0.032705
-0.008669   -0.010618  -0.0060706    0.044924   -0.014191  -0.0096434   -0.025884
-0.0076946    -0.01549   -0.017114    0.046548  -0.0060706  -0.0031473   -0.026533
-0.008669   -0.017439   -0.022311    0.033231   0.0017248   0.0039985   -0.030431
-0.010293   -0.016789   -0.021337   0.0088706   0.0046481    0.010495   -0.028157
-0.0093186    -0.01484   -0.017439   -0.020687  0.00075039    0.012768   -0.019063
-0.0031473   -0.015165   -0.013216   -0.052843   -0.011592    0.010819  -0.0044465
0.0052977   -0.018088   -0.010293   -0.091495   -0.025559   0.0039985   0.0075714
0.015042   -0.021337  -0.0089938    -0.13924   -0.033354  -0.0067202    0.009845
0.023812   -0.023935   -0.012892    -0.19511   -0.031406   -0.019388  0.00042559
0.029333   -0.023935   -0.019063    -0.24545   -0.025559   -0.031081   -0.015165
0.029658   -0.021337   -0.022311    -0.27599   -0.019063   -0.040175   -0.033354
0.025761   -0.015165   -0.019388    -0.28053   -0.015165   -0.045697   -0.047321
0.017965   -0.008669   -0.014516    -0.26851   -0.016464    -0.04862   -0.052518
0.014392  -0.0054209   -0.013866    -0.24578   -0.021661    -0.04862    -0.04862
0.016016   -0.007045   -0.017114    -0.18959   -0.026533   -0.044398     -0.0405
0.020888  -0.0099683   -0.017764   -0.064861   -0.025884   -0.037252   -0.032055
0.026735   -0.011917    -0.01614     0.13197   -0.016464   -0.031406   -0.025234
0.029333   -0.013216    -0.01614     0.35382  -0.0031473   -0.024909   -0.022636
0.030308   -0.013866   -0.022961     0.52759   0.0085458   -0.018088   -0.019063
0.030633   -0.015815    -0.03303      0.5997    0.017965   -0.011592  -0.0093186
0.032582   -0.017114     -0.0405     0.56169    0.025111  -0.0067202   0.0046481
0.039078   -0.014516   -0.044398     0.44866    0.029658   0.0046481    0.021863
0.053044  -0.0080194   -0.048945      0.3025    0.028359    0.024786     0.04395
0.073182   0.0010752   -0.058689     0.15503    0.022188    0.049472    0.070259
0.093645    0.011469   -0.077853    0.029333    0.014392    0.071883    0.093645
0.10501    0.020888    -0.10481   -0.053168   0.0085458     0.08585     0.10534
0.10339    0.024461     -0.1256   -0.073306  0.00075039    0.082602     0.10274
0.089098     0.01764    -0.13112    -0.02426   -0.017114    0.064413    0.089748
0.069285   0.0020496    -0.11586    0.087799   -0.041799    0.040052    0.070584
0.049147    -0.01549   -0.087272     0.23883   -0.067459    0.018615    0.052395
0.031607   -0.027833   -0.053168     0.39182   -0.086948  0.00042559    0.041027
0.01829   -0.033679    -0.03238     0.49543    -0.10091   -0.012567    0.036479
0.009845   -0.036602   -0.035953     0.49088    -0.11423   -0.019388    0.033556
0.0039985   -0.038551   -0.060963     0.34472    -0.12657   -0.021337    0.029009
-0.00022403   -0.038876   -0.090521    0.075456    -0.13112   -0.017764    0.029009
-0.0060706   -0.033354    -0.10319     -0.2461     -0.1204  -0.0099683     0.03583
-0.010943   -0.018413   -0.086948    -0.53063   -0.094093   0.0026992    0.051745
-0.010618   0.0039985   -0.047971    -0.71902   -0.061288     0.01764    0.068635
-0.0037969    0.025436  -0.0028225    -0.80315   -0.037577    0.028684    0.076755
0.0010752    0.034855     0.03518    -0.79893   -0.035953    0.029658     0.06831
-0.0011985    0.033881    0.056617    -0.71285   -0.064536     0.01764    0.047847
-0.010943     0.02641    0.065062    -0.53583    -0.10644  -0.0063954    0.025111
-0.022311     0.01894    0.071558    -0.25747    -0.13437   -0.034978   0.0036737
-0.031081    0.015042    0.086175     0.10274    -0.13015   -0.063886    -0.01484
-0.034004    0.016341     0.11183     0.47854   -0.093119   -0.093444   -0.030431
-0.031081    0.019264     0.14367     0.78776   -0.040825    -0.12365   -0.046022
-0.029457    0.020888     0.16543     0.97257   0.0039985    -0.14639   -0.065186
-0.037902    0.015042     0.16868      1.0216    0.030957    -0.15678   -0.089546
-0.057065   0.0059473     0.15211     0.95666    0.041351    -0.15223    -0.11163
-0.078827  -0.0080194     0.11801     0.81797    0.041351     -0.1334     -0.1178
-0.095068   -0.025559    0.069934     0.64582    0.037129    -0.10059    -0.10709
-0.10189   -0.043099   0.0085458     0.46815    0.031607   -0.053817    -0.08305
-0.096692   -0.056091   -0.062262     0.29925    0.029658   0.0056225   -0.047321
-0.0824   -0.061288    -0.13664     0.14951     0.03583    0.069934  -0.0073698
-0.062912   -0.061288     -0.2016    0.029333    0.048497     0.12645    0.029983
-0.04115   -0.058365    -0.24188   -0.051544    0.054668     0.16315    0.058566
-0.023935   -0.051544    -0.24805   -0.088896    0.044924     0.16835    0.077405
-0.010618   -0.039201    -0.22369   -0.082725    0.019589     0.14561    0.089423
0.0017248   -0.021986    -0.17627   -0.037902   -0.015165     0.10794    0.089423
0.014717  -0.0044465    -0.11683    0.029983   -0.046996    0.071558     0.07773
0.024786    0.010819   -0.060638    0.093645   -0.067459    0.042651    0.056617
0.029009    0.016666   -0.018738     0.12872   -0.074605    0.024461    0.031607
0.025436    0.015042   0.0065969     0.12385   -0.074605    0.015042   0.0088706
0.016991    0.008221     0.01829    0.082927   -0.070707    0.011144  -0.0057458
0.008221  0.00010078    0.018615    0.025436   -0.062262   0.0091954   -0.011592
-0.0015233  -0.0044465    0.014717   -0.031081   -0.044723      0.0014  -0.0096434
-0.012242  -0.0067202   0.0069217   -0.081751   -0.015815   -0.013541  -0.0021729
-0.025884  -0.0054209  -0.0080194    -0.13015     0.01894   -0.029457   0.0046481
-0.039526  -0.0021729   -0.026533     -0.1714    0.050446   -0.040825   0.0069217
-0.048945   0.0017248   -0.039201    -0.19771    0.067336   -0.045047   0.0043233
-0.051544   0.0046481   -0.036278    -0.20096    0.064088   -0.043748  -0.0011985
-0.051219   0.0059473   -0.016789    -0.17919    0.042001   -0.043099   -0.010618
-0.050894   0.0078962    0.012443    -0.13762    0.011469   -0.044073   -0.024585
-0.052193   0.0069217    0.040702   -0.086623   -0.017114   -0.051219   -0.040825
-0.052843   0.0033489    0.062139   -0.039201   -0.038551   -0.062262   -0.058689
-0.045047   0.0020496    0.074806  -0.0050961   -0.053168   -0.073631   -0.073631
-0.030106   0.0062721    0.077405   0.0046481   -0.062912    -0.08305   -0.078827
-0.013216    0.017316    0.072858   -0.013216   -0.070058   -0.088896   -0.071682
-0.00022403    0.029658    0.065062   -0.053492   -0.075579   -0.091495   -0.056416
0.0091954    0.037129    0.056292    -0.10579   -0.078503   -0.089546   -0.040175
0.014392    0.040052    0.050446    -0.15418   -0.074605   -0.087272   -0.027508
0.013418    0.038753    0.044924    -0.18991   -0.063886   -0.087272   -0.022961
0.0085458    0.036479    0.039078    -0.20908   -0.048945   -0.085973   -0.023285
0.0039985     0.03453    0.034206    -0.21037    -0.03238   -0.080776   -0.021986
0.0026992    0.030308    0.029983     -0.2029   -0.012242   -0.068434    -0.01484
0.0039985    0.021213    0.019914    -0.19933     0.01017   -0.053168  -0.0044465
0.0072465    0.012119   0.0043233    -0.21525    0.031282     -0.0405   0.0065969
0.0072465   0.0059473   -0.012892    -0.24968    0.044599    -0.03173    0.013743
0.0059473   0.0023744   -0.023935    -0.28346    0.046873   -0.025234    0.016991
0.0069217  -0.0028225   -0.029132     -0.2932    0.029009   -0.022636    0.012768
0.008221   -0.010943   -0.033354    -0.26494  -0.0099683   -0.029132   0.0033489
0.0046481   -0.021012   -0.039201    -0.20713   -0.055766   -0.042124   -0.010293
-0.0089938    -0.03238   -0.048296    -0.13762   -0.092469   -0.055441    -0.02361
-0.028482   -0.040825   -0.056741   -0.074605    -0.11163   -0.064536   -0.027833
-0.043099   -0.044073   -0.060313   -0.033354    -0.10741   -0.068109   -0.025559
-0.04862   -0.041475   -0.056091   -0.021661   -0.082725   -0.063237   -0.023285
-0.046347   -0.032705   -0.046347   -0.036927    -0.04927   -0.048296   -0.026209
-0.039201   -0.021337   -0.032055   -0.063561   -0.016464   -0.028157   -0.031081
-0.030431   -0.011592   -0.012892   -0.089221   0.0069217  -0.0057458   -0.034329
-0.019388  -0.0054209   0.0033489    -0.10838    0.024461     0.01017    -0.03238
-0.007045 -0.00022403    0.013093     -0.1204    0.040702    0.018615   -0.025559
-0.00054884   0.0052977    0.012768     -0.1282    0.055643    0.018615   -0.018088
0.00042559   0.0088706   0.0017248    -0.13989    0.070584    0.011144   -0.016464
-0.0044465   0.0088706   -0.017764    -0.15873    0.081952  -0.0018481   -0.021986
-0.013541   0.0065969   -0.035628    -0.17497     0.08585    -0.01614   -0.030431
-0.025559   0.0043233   -0.046022    -0.16945    0.075781   -0.031406   -0.037252
-0.040175   0.0056225    -0.04862    -0.13469    0.057267   -0.051219   -0.042124
-0.054467   0.0088706   -0.045047    -0.10124    0.036154   -0.068434   -0.045372
-0.061937    0.014717   -0.033679    -0.10124    0.016991   -0.080127   -0.046996
-0.057715    0.023487   -0.012892     -0.1191   0.0010752   -0.085973   -0.045047
-0.042449     0.03453    0.020239   -0.085324  -0.0063954   -0.088247   -0.039201
-0.022311    0.045899    0.066037    0.044924  -0.0021729   -0.090521   -0.030431
-0.0015233    0.057267     0.11541     0.23786   0.0075714   -0.089546   -0.018738
0.016666    0.065387     0.15146     0.41618    0.010495   -0.085973   -0.007045
0.029658     0.06831     0.16348     0.52272   0.0010752   -0.074605   0.0010752
0.032906    0.061814     0.14724     0.53831    -0.01614   -0.055116   0.0056225
0.028684    0.047198     0.11151     0.47627   -0.039201    -0.03303   0.0069217
0.01829    0.029658    0.065062     0.36194   -0.071032   -0.017114   0.0085458
0.0091954    0.015042    0.017316     0.20635    -0.11098   -0.012567    0.011144
0.0033489    0.003024   -0.030431   0.0075714    -0.14899   -0.018738   0.0069217
-0.0018481  -0.0067202   -0.075904    -0.22889    -0.17107   -0.032705  -0.0021729
-0.0093186   -0.013866    -0.11066    -0.46665    -0.16295   -0.048296   -0.012242
-0.01484   -0.017439    -0.12787    -0.65504    -0.12463   -0.059339   -0.019388
-0.015165    -0.01614    -0.12592     -0.7619   -0.071357   -0.062912   -0.022636
-0.012892   -0.012892    -0.11261    -0.78204   -0.022311   -0.063886   -0.021012
-0.010293    -0.01549   -0.092145    -0.72909   0.0065969   -0.061288   -0.017439
-0.0089938   -0.021661   -0.068109    -0.61443    0.016991   -0.054467   -0.016464
-0.0099683    -0.02361   -0.041799    -0.44034    0.022837   -0.043423   -0.013216
-0.0093186    -0.01484  -0.0089938    -0.20096    0.036479    -0.03238  -0.0076946
-0.0024977   0.0039985    0.028034     0.10469     0.06019   -0.022636  0.00075039
0.0088706    0.023487    0.062464     0.42722    0.084551   -0.012892    0.009845
0.021538    0.031607      0.0865     0.67992    0.097868  -0.0034721    0.016666
0.027385    0.025111    0.092346     0.79945    0.091047   0.0023744    0.019264
0.025436   0.0075714    0.074806     0.77769    0.064413      0.0014    0.019264
0.017316   -0.011267     0.04395     0.65524    0.030633  -0.0041217    0.015042
0.009845   -0.023285    0.009845     0.48699      0.0014   -0.011592   0.0095202
0.0065969   -0.025559   -0.017439     0.32653   -0.017764   -0.014191   0.0049729
0.0065969   -0.021337   -0.034329     0.20408   -0.025884   -0.011592   0.0017248
0.012119    -0.01549   -0.040825     0.12353   -0.022311  -0.0037969 -0.00054884
0.020239   -0.010293   -0.035628     0.07773   -0.013216   0.0049729  0.00075039
0.028684  -0.0057458   -0.023935    0.054993   -0.007045    0.014392   0.0062721
0.033231  -0.0021729    -0.01484    0.043625  -0.0076946    0.022188    0.014068
0.031282   0.0010752   -0.011267    0.033231   -0.014516    0.031282    0.020564
0.022837   0.0036737  -0.0083442    0.018615   -0.022636    0.040702    0.024461
0.010495   0.0033489  -0.0034721   0.0023744   -0.029457    0.049796    0.026085
-0.00054884 -0.00087364  0.00042559    -0.01484    -0.03238    0.052395    0.026085
-0.0021729  -0.0054209   0.0010752   -0.030106   -0.029457    0.050446    0.027385
0.0036737  -0.0083442   0.0020496   -0.040825   -0.021012     0.04395    0.029983
0.015367  -0.0089938    0.003024   -0.046347  -0.0093186    0.034206    0.029658
0.028034  -0.0080194   0.0023744   -0.045697 -0.00087364    0.025436    0.026085
0.03518   -0.007045 -0.00054884   -0.040175  -0.0034721    0.022188    0.022188
0.036804  -0.0080194  -0.0041217   -0.030431   -0.013866    0.023812    0.013418
0.033556   -0.012242  -0.0073698   -0.023935   -0.024585    0.025436 -0.00087364
0.023162   -0.019388   -0.010293   -0.022636   -0.028482    0.019914   -0.016464
0.0065969   -0.028157   -0.012242    -0.02426   -0.024585    0.010819   -0.026858
-0.012567   -0.032055   -0.013541   -0.026209   -0.015165   0.0026992   -0.030431
-0.025559   -0.032055   -0.016789    -0.02426  -0.0067202   0.0010752   -0.029132
-0.030106   -0.030106   -0.020362   -0.018738  -0.0024977    0.003024   -0.024909
-0.027183   -0.027508   -0.021337   -0.012567  -0.0047713   0.0062721   -0.021012
-0.02426   -0.023285   -0.020687   -0.007045  -0.0096434   0.0078962   -0.020687
-0.021986   -0.018413   -0.018738  -0.0044465   -0.014191   0.0065969   -0.021012
-0.020362    -0.01614    -0.01484  -0.0041217    -0.01614    0.003024   -0.019388
-0.021986   -0.016464  -0.0028225   -0.008669   -0.017114   0.0033489   -0.015165
-0.029782   -0.020362    0.014392   -0.017114   -0.020037   0.0059473    -0.01484
-0.039201   -0.021986    0.029658   -0.025884   -0.024585    0.010495   -0.019063
-0.0405   -0.021012    0.032582   -0.032055   -0.032705    0.014068   -0.025234
-0.033354   -0.017764    0.019914   -0.042449   -0.038551    0.014068   -0.029132
-0.026858   -0.013866  -0.0083442   -0.060313   -0.037577   0.0085458   -0.032705
-0.024909   -0.013541   -0.045697    -0.09117   -0.030106  0.00075039   -0.033354
-0.02361   -0.013866   -0.081751    -0.13242   -0.019388  -0.0080194   -0.025234
-0.017114   -0.013541    -0.10774    -0.17172   -0.011267   -0.014516  -0.0089938
-0.0050961   -0.012567    -0.11715    -0.18634   -0.013866   -0.012567    0.010819
0.010819   -0.011917    -0.11261     -0.1662   -0.029782  -0.0047713    0.027385
0.022188   -0.012567   -0.095717    -0.11293   -0.052518  0.00075039    0.037129
0.029333   -0.010293   -0.072006   -0.046022   -0.072006  0.00042559    0.042326
0.030308  -0.0037969   -0.047321    0.017965   -0.084674 -0.00022403    0.046548
0.026735   0.0052977    -0.02426     0.06831   -0.091495  0.00075039    0.050121
0.021213    0.015367  -0.0063954     0.10079   -0.092145   0.0069217    0.050446
0.01894    0.026085   0.0065969     0.11346   -0.086948    0.016016    0.046223
0.018615    0.035505    0.013743     0.11118   -0.078178    0.025761    0.041676
0.021863    0.039402    0.016666     0.10339   -0.068758    0.033556    0.037454
0.026735    0.039402     0.01764    0.097218   -0.058689    0.040052     0.03453
0.031282    0.039727    0.019264    0.096893   -0.044398    0.046873    0.030308
0.032582    0.039402    0.020564     0.10306   -0.025234    0.055318    0.026085
0.029333    0.038753    0.022837     0.11378  -0.0047713    0.066362    0.023812
0.021538     0.03583    0.026085     0.12905    0.012119    0.072533    0.021538
0.0091954    0.030957    0.032582     0.14269    0.019264    0.071883    0.016016
-0.0050961    0.026085    0.037778     0.15049    0.012119    0.062789   0.0052977
-0.016464    0.020564    0.040052     0.14237  -0.0037969    0.042651  -0.0060706
-0.019388    0.018615     0.03583     0.11118   -0.019712    0.011144   -0.014191
-0.01614    0.017316    0.025761    0.059865   -0.030756   -0.021337   -0.020037
-0.011267    0.014068    0.012119  -0.0073698   -0.037577   -0.048296   -0.024585
-0.0083442   0.0069217  -0.0050961   -0.079477   -0.041475   -0.063561   -0.028482
-0.0083442  -0.0028225   -0.025559    -0.14281   -0.040825    -0.06616    -0.03173
-0.01484   -0.011592    -0.04927    -0.18894   -0.035628   -0.060963   -0.033354
-0.023935   -0.018413   -0.071357    -0.21232   -0.028482   -0.055441   -0.032705
-0.028157    -0.02361   -0.086948     -0.2081   -0.021012   -0.048945   -0.027183
-0.023935    -0.02426   -0.093769    -0.17659   -0.014191   -0.038876   -0.016789
-0.013866   -0.020037   -0.088896    -0.12138  -0.0073698   -0.027833  -0.0063954
-0.0011985   -0.013216   -0.075904   -0.051868  -0.0028225    -0.01549  0.00042559
0.0078962  -0.0063954   -0.056091    0.015367  -0.0044465  -0.0031473   0.0026992
0.010819   0.0010752   -0.036602    0.070584   -0.011917    0.003024   0.0033489
0.0075714   0.0062721   -0.020037     0.11183   -0.021337 -0.00022403   0.0056225
0.00010078     0.01017   -0.010943     0.14854   -0.024585  -0.0073698   0.0069217
-0.008669    0.013418  -0.0067202     0.18427   -0.020362   -0.017114   0.0065969
-0.018088    0.016991  -0.0047713     0.21837   -0.014191   -0.026209   0.0049729
-0.027508     0.01829  -0.0044465     0.23299   -0.019712   -0.034004   0.0033489
-0.036927    0.016016   -0.013541     0.21188   -0.043748   -0.040825  0.00075039
-0.045697   0.0095202    -0.03238     0.14854   -0.080451   -0.047321  -0.0028225
-0.04862    0.003024   -0.052518    0.058241    -0.11033   -0.051544  -0.0037969
-0.043099  0.00042559   -0.064861   -0.031081    -0.11618   -0.053492  -0.0015233
-0.025234   0.0023744   -0.067784   -0.094743   -0.090845   -0.051219   0.0069217
-0.0037969   0.0065969   -0.059014    -0.11975   -0.046347   -0.041799    0.019914
0.013093    0.010495   -0.042774    -0.11553  -0.0037969   -0.025884    0.029983
0.020888    0.012768   -0.023285   -0.095068    0.024786   -0.012242    0.033556
0.021863    0.012768  -0.0041217   -0.070058    0.032582  -0.0096434    0.033881
0.020564   0.0091954    0.012443   -0.040825    0.028684   -0.017764    0.030957
0.017965  0.00042559    0.023487   -0.012242    0.021538    -0.03238    0.026735
0.015367  -0.0089938    0.028359    0.011469     0.01894   -0.046347    0.024461
0.0095202   -0.015815    0.031282    0.027385    0.022188   -0.052518    0.022837
0.0010752   -0.017764    0.034206    0.036154    0.028359   -0.049595    0.020239
-0.0096434    -0.01614    0.032906    0.036479    0.034855   -0.040825    0.016666
-0.019388   -0.010943    0.031282    0.036154    0.039402   -0.028157    0.016666
-0.029457  -0.0024977    0.031932    0.039402    0.041351   -0.012892    0.019914
-0.034978   0.0023744    0.034206    0.045249    0.044924  0.00010078    0.021538
-0.034329   0.0052977    0.033556     0.05272    0.051096   0.0059473    0.017965
-0.031081   0.0091954    0.027709     0.05272    0.054344   0.0043233   0.0072465
-0.027508    0.017316    0.015692    0.031282    0.048822  -0.0057458  -0.0080194
-0.022311    0.024786  -0.0044465    -0.02426    0.030957    -0.02426   -0.021012
-0.014516    0.028359   -0.025559    -0.11001   0.0026992   -0.044723   -0.023285
-0.0031473    0.023487    -0.04115    -0.20453   -0.026858   -0.059664   -0.013216
0.010495    0.012768   -0.051544    -0.28021   -0.057715   -0.062587   0.0059473
0.025436  -0.0024977   -0.063886    -0.31301    -0.09117   -0.058689     0.02706
0.037778   -0.018088   -0.078503     -0.2854    -0.12365    -0.04927    0.041351
0.045574   -0.029132   -0.088572    -0.19803    -0.14444   -0.036278    0.048172
0.046223   -0.033679   -0.087272   -0.090521    -0.14216   -0.022961    0.051096
0.038428   -0.030106    -0.07493    -0.02361    -0.11651   -0.013541     0.05272
0.026085   -0.022311   -0.054467   -0.048945   -0.080451   -0.011917    0.050771
0.017965   -0.013866   -0.034329    -0.18731   -0.050894   -0.013866     0.04395
0.013743   -0.010293   -0.024585    -0.40656   -0.038876   -0.017439    0.033231
0.0091954   -0.011267   -0.028482    -0.63945   -0.042449   -0.018738    0.022188
0.00010078   -0.017439   -0.040175    -0.82199   -0.050569   -0.018413    0.013418
-0.012892   -0.025884   -0.052843    -0.90611   -0.058689    -0.01614   0.0062721
-0.028157   -0.031406   -0.064536    -0.85317   -0.064211   -0.011592  -0.0050961
-0.040825   -0.026858   -0.071032    -0.62775   -0.060963  -0.0080194   -0.021661
-0.046996   -0.010618   -0.062912    -0.22434   -0.040175  -0.0054209   -0.039851
-0.043748    0.014392   -0.033354     0.29503  -0.0011985  -0.0067202   -0.052193
-0.029457    0.036479    0.014068     0.81894    0.045249  -0.0093186   -0.055766
-0.013866    0.048172    0.066362      1.2373      0.0865   -0.011267   -0.055116
-0.0054209    0.046873     0.10956      1.4588     0.11086   -0.010293   -0.052843
-0.0093186    0.034206     0.13165      1.4487     0.11086   -0.007045   -0.055116
-0.022961    0.015042     0.13392      1.2438    0.085525  -0.0031473   -0.059664
-0.038227  -0.0041217     0.12093      0.9375    0.043625  -0.0011985   -0.060313
-0.052518   -0.018738    0.099167     0.64289  -0.0034721  -0.0041217   -0.055441
-0.061613   -0.028157     0.07773     0.43112     -0.0405  -0.0073698   -0.048945
-0.064211   -0.031406    0.057592     0.31906   -0.059014  -0.0047713    -0.04115
-0.058689   -0.025559    0.039078     0.27099   -0.054792   0.0046481   -0.035628
-0.044073   -0.013866    0.022837     0.24501   -0.033354     0.01764   -0.028482
-0.023285   0.0023744   0.0078962     0.21967  -0.0073698    0.028034   -0.019388
-0.0041217    0.019589  -0.0034721     0.19239    0.010495    0.029983  -0.0093186
0.0095202    0.034855  -0.0083442     0.16803    0.019264    0.021863  0.00010078
0.023812    0.041351  -0.0080194     0.15211    0.016341   0.0065969   0.0075714
0.036804    0.037778  -0.0031473     0.14042  0.00010078  -0.0093186    0.012119
0.041351    0.028684   0.0020496      0.1297   -0.022961   -0.018088    0.013743
0.03583    0.019589    0.008221     0.11638   -0.042774   -0.020362    0.010819
0.024137    0.013418     0.01764    0.097868   -0.052843   -0.021337   0.0010752
0.009845   0.0078962    0.028034    0.071558   -0.053817    -0.02361   -0.010618
-0.0060706  0.00075039    0.032257    0.036804   -0.049595   -0.027833   -0.019063
-0.018738  -0.0073698    0.028034   -0.007045   -0.043748   -0.030106   -0.025559
-0.023935   -0.016464     0.01894   -0.056091   -0.037252   -0.028157   -0.026858
-0.021661   -0.021986   0.0095202    -0.10416    -0.03173   -0.019063   -0.022311
-0.011917   -0.024585      0.0014    -0.14249   -0.026533  -0.0018481   -0.012567
-0.0015233   -0.026533  -0.0083442    -0.17205   -0.020362    0.017965  0.00010078
0.0062721   -0.026533   -0.021012    -0.19348   -0.011917    0.031932    0.012119
0.0065969    -0.02426   -0.033679    -0.20713 -0.00087364    0.036154     0.01829
0.003024   -0.023285     -0.0405    -0.21655    0.008221    0.033231    0.019589
-0.0047713   -0.025559   -0.037902    -0.22402    0.015042     0.02641    0.014392
-0.013216   -0.030106   -0.028482    -0.22824    0.019914     0.01764   0.0033489
-0.019712   -0.033354   -0.014516    -0.23149     0.01894    0.010819  -0.0093186
-0.02361   -0.033679   0.0020496    -0.23571    0.011144   0.0056225   -0.020687
-0.025234   -0.028482    0.017965    -0.23766  -0.0011985  -0.0011985    -0.03173
-0.02361   -0.018738    0.027385    -0.23571   -0.013866   -0.011592   -0.041799
-0.017114  -0.0073698    0.030957    -0.22856   -0.025559   -0.024585   -0.051219
-0.0050961  0.00075039    0.031282    -0.21817    -0.03173   -0.042124    -0.05804
0.0052977   0.0036737    0.028684     -0.2068    -0.03173    -0.05739   -0.059339
0.0091954      0.0014    0.025111    -0.19478   -0.027183    -0.06551   -0.056091
0.0036737  -0.0050961    0.023487    -0.18634   -0.020687   -0.065835   -0.052843
-0.007045   -0.012567    0.022512    -0.18114   -0.024585   -0.061937   -0.053492
-0.016464   -0.018738    0.019914    -0.17432    -0.04115   -0.059989   -0.050894
-0.024585    -0.02426    0.016016     -0.1675   -0.060963   -0.062912   -0.043099
-0.030756   -0.029782   0.0085458    -0.15808   -0.075579   -0.070707   -0.031406
-0.035303   -0.034654  -0.0031473    -0.14411   -0.079152   -0.076554   -0.021012
-0.039526   -0.035303   -0.017439     -0.1191   -0.072981   -0.076554    -0.01484
-0.045047   -0.029782   -0.029782   -0.085324   -0.059664   -0.069083   -0.012242
-0.054467   -0.022311   -0.039851   -0.051868   -0.043748   -0.061613   -0.012242
-0.06551    -0.01484   -0.047646   -0.028482   -0.029132    -0.05739    -0.01484
-0.072981  -0.0083442   -0.051868    -0.02361   -0.016464   -0.056741   -0.017764
-0.073955  -0.0034721   -0.046022   -0.037577  -0.0044465   -0.060963   -0.016464
-0.06551   0.0026992    -0.02426   -0.072006    0.010819   -0.070382   -0.013216
-0.04992    0.013093    0.010819    -0.12625    0.025111   -0.080451   -0.010293
-0.028807     0.02641    0.049472    -0.19251    0.033881   -0.083375  -0.0063954
-0.008669    0.038428    0.077405    -0.25325    0.040377   -0.073955  -0.0021729
0.0065969    0.043625    0.083901    -0.29223    0.045574   -0.055116   0.0036737
0.010495    0.038428    0.067661     -0.2984    0.049147   -0.036602   0.0085458
0.0046481    0.022512    0.034206    -0.27046    0.046548   -0.026858   0.0085458
-0.007045   0.0023744  -0.0028225    -0.21979    0.036804   -0.026209   0.0023744
-0.020687   -0.017439   -0.035953     -0.1597    0.021538   -0.030431  -0.0099683
-0.032055   -0.035628   -0.061288   -0.098641   0.0062721   -0.035953   -0.023285
-0.043099   -0.050244   -0.075579   -0.048296  -0.0021729   -0.040825   -0.034654
-0.050894    -0.05739   -0.071682   -0.013541  -0.0028225   -0.047321   -0.042774
-0.053168   -0.053492   -0.043423  0.00075039   0.0065969   -0.052518   -0.043748
-0.04927   -0.039201   0.0036737  -0.0054209    0.020239   -0.050894   -0.040175
-0.037252   -0.018413    0.053044   -0.027508     0.03453   -0.041799   -0.034654
-0.021661  0.00075039    0.086824   -0.064536      0.0433    -0.03303   -0.032055
-0.0034721    0.014068    0.092021    -0.11163    0.045249   -0.032705   -0.031406
0.012443    0.020564    0.067336    -0.16295     0.04395   -0.037577   -0.026533
0.027385    0.023162    0.022512    -0.21232    0.046873   -0.042124   -0.013866
0.0433    0.026085   -0.029782    -0.26169    0.053369   -0.040175   0.0043233
0.058891    0.027709   -0.079152    -0.30262    0.059216   -0.029782    0.021213
0.064413    0.024137    -0.11423    -0.31106    0.056292   -0.014516    0.034206
0.058891    0.015692     -0.1282    -0.26624    0.041027  -0.0011985    0.039727
0.048822   0.0033489    -0.12138    -0.16782    0.013418   0.0052977    0.042001
0.036479  -0.0093186    -0.09929    -0.03303   -0.024909    0.003024    0.039727
0.025436   -0.020362   -0.070382     0.10761   -0.067459  -0.0034721    0.036804
0.015367   -0.026858   -0.039526     0.22617    -0.10514   -0.012242    0.029658
0.0023744   -0.026533   -0.014191     0.29697     -0.1282   -0.022961     0.01764
-0.013216   -0.023935  -0.0021729     0.29827    -0.13307   -0.032705   0.0039985
-0.027508   -0.019712   -0.008669     0.22519     -0.1204     -0.0405  -0.0015233
-0.035303   -0.011917   -0.033354    0.092996   -0.088896   -0.043099   0.0023744
-0.037252  -0.0024977   -0.069083   -0.054792   -0.047321   -0.042124   0.0088706
-0.037577   0.0059473   -0.099615     -0.1649   -0.015165   -0.040175    0.009845
-0.041799    0.014392    -0.10936    -0.19056   -0.007045   -0.043423   0.0065969
-0.046996    0.020239   -0.090521    -0.11456   -0.021986   -0.054142   0.0049729
-0.048945    0.019914   -0.051219    0.039727   -0.046347    -0.06681   0.0062721
-0.04862    0.015692  -0.0083442     0.21837   -0.067134   -0.075904   0.0065969
-0.046996    0.009845    0.026735     0.35966   -0.076229   -0.078178   0.0043233
-0.045372   0.0049729    0.047523     0.42332   -0.073631   -0.072981  -0.0018481
-0.043423   0.0010752     0.05272     0.40124   -0.063237   -0.063237   -0.011917
-0.036602 -0.00054884    0.045574     0.31516    -0.04862   -0.050569   -0.022961
-0.025234  -0.0011985     0.03518      0.2096    -0.03303   -0.041799   -0.031081
-0.012242  0.00042559    0.028034      0.1206   -0.015815   -0.041475   -0.030431
0.0014   0.0036737    0.025761    0.062139   0.0059473   -0.045047   -0.025559
0.016991   0.0065969    0.023162    0.028359    0.025761   -0.044398   -0.019712
0.033881   0.0072465    0.013743  -0.0015233    0.042651   -0.034978   -0.011592
0.048172   0.0062721  -0.0057458   -0.042774    0.057592   -0.017764  -0.0031473
0.059216   0.0059473   -0.031406   -0.097017    0.073507   0.0020496   0.0052977
0.066037   0.0059473   -0.059014    -0.14574    0.083901    0.023162    0.014068
0.066362   0.0085458   -0.084999    -0.16425    0.079354    0.045899    0.021863
0.063113    0.012443    -0.10351    -0.13469    0.058566    0.065062    0.025436
0.056617    0.016991    -0.10806   -0.060638    0.026735    0.073832    0.020564
0.048497    0.020239   -0.097666    0.041351   -0.010618     0.06961    0.011144
0.039078    0.020239   -0.072656     0.14886   -0.047321    0.058891   0.0020496
0.034206    0.016016   -0.038876     0.24533   -0.079152      0.0433  -0.0060706
0.033556   0.0091954  -0.0067202     0.32621    -0.09994    0.027709   -0.012567
0.034855      0.0014    0.013743     0.38532    -0.10838    0.016341    -0.01484
0.034855   -0.008669    0.014392     0.40546    -0.10936    0.012443   -0.013216
0.031607   -0.019388  -0.0037969     0.36713    -0.10611    0.013743  -0.0073698
0.025111   -0.027833   -0.027833     0.26969   -0.093119    0.016991  -0.0018481
0.020564   -0.028807   -0.042449     0.14432   -0.071357    0.017965   0.0010752
0.020888   -0.019388   -0.037252    0.035505   -0.048945    0.019914   0.0052977
0.02641  -0.0021729   -0.010293    -0.02361    -0.03238    0.021863    0.010819
0.032582     0.01764    0.028359    -0.02361   -0.019712     0.01894    0.017316
0.034206     0.03453    0.063438     0.01829   -0.012892    0.014717    0.026735
0.030633    0.044924    0.082277    0.072533   -0.013866   0.0088706     0.03453
0.022837    0.049147    0.084551     0.10729    -0.02361   0.0072465     0.03583
0.014392    0.044599    0.073832     0.10989   -0.038551   0.0091954    0.027385
0.0039985    0.033556    0.056292    0.082277   -0.050244    0.010819    0.014068
-0.0057458     0.01829     0.03583    0.041351   -0.057715   0.0088706    0.003024
-0.011267    0.003024    0.016991    0.003024    -0.05739   0.0072465  -0.0034721
-0.012242   -0.007045   0.0039985   -0.023285    -0.04992   0.0095202  -0.0096434
-0.011267   -0.012242  -0.0037969   -0.036602   -0.038876    0.013418    -0.01484
-0.012242   -0.014516  -0.0083442   -0.041799   -0.025884    0.020564   -0.018413
-0.016789   -0.017764   -0.010618   -0.045372   -0.010943    0.031932    -0.01484
-0.02426   -0.019712   -0.011267   -0.058689   0.0026992    0.042001  -0.0067202
-0.028807    -0.01614   -0.011267   -0.092469    0.012443    0.049147    0.003024
-0.026858  -0.0089938   -0.015165    -0.14639    0.019914     0.05207    0.010819
-0.018413  -0.0018481   -0.028482    -0.20485    0.031282     0.05207    0.013418
-0.0057458   0.0010752    -0.04992    -0.24838    0.046548    0.050121    0.011469
0.0072465   0.0023744   -0.069408    -0.26007    0.059216    0.044599   0.0072465
0.013743   0.0023744   -0.076229    -0.23116    0.061489    0.041027   0.0010752
0.014717   0.0039985    -0.06551    -0.16263    0.049147    0.040702 -0.00022403
0.012768    0.009845   -0.042449   -0.072981    0.026085    0.043625   0.0056225
0.009845    0.017965   -0.017114    0.019589  0.00010078    0.047198    0.016991
0.0075714    0.024786   0.0023744    0.098193   -0.019063    0.046873    0.028359
0.0075714    0.027385    0.014068     0.14691   -0.030756    0.039078     0.03453
0.01017     0.02641     0.01764     0.15926   -0.035628    0.024137    0.033231
0.012443    0.022837    0.016991     0.13782   -0.036927   0.0049729    0.028034
0.009845     0.01764    0.015042    0.092671   -0.038876  -0.0099683    0.020888
0.0017248    0.011794    0.012443    0.039078   -0.037902   -0.018738    0.016341
-0.0076946   0.0065969    0.012768   -0.014191   -0.032705   -0.021012    0.013093
-0.012242    0.003024    0.014068   -0.060313   -0.026209   -0.019712    0.009845
-0.013216 -0.00022403    0.015042   -0.095393   -0.022961   -0.020037   0.0075714
-0.010618  -0.0047713    0.010819    -0.10644   -0.027508   -0.023935    0.008221
-0.008669  -0.0083442 -0.00022403   -0.060963   -0.036602   -0.025559    0.012768
-0.0063954  -0.0093186   -0.015815    0.062139   -0.046022   -0.019712    0.021213
0.0023744  -0.0089938   -0.028807     0.24371   -0.052193   -0.008669    0.031607
0.014717  -0.0073698   -0.036602     0.42852   -0.053168  0.00075039    0.042001
0.022188  -0.0060706   -0.040825     0.55162   -0.055116   0.0069217    0.049147
0.019914  -0.0050961   -0.046996     0.56104    -0.06681   0.0065969    0.048822
0.011144  -0.0076946   -0.056741     0.44249   -0.086623  -0.0024977    0.042651
0.0017248   -0.011592   -0.058689     0.24273   -0.094743   -0.012567    0.033231
-0.0057458   -0.013866   -0.043423    0.057267   -0.072006    -0.02426    0.020239
-0.0073698  -0.0083442  -0.0060706   -0.032055   -0.016464   -0.039526   0.0010752
-0.0044465   0.0052977    0.044599   -0.021986    0.049796   -0.060963    -0.02426
0.0033489    0.021863    0.098193    0.034855    0.099817   -0.086623   -0.050244
0.011469    0.029658     0.14172    0.080328     0.11573    -0.10936   -0.069733
0.010819    0.024786      0.1625    0.083251    0.096244    -0.12398   -0.078503
-0.00054884    0.010495     0.14919    0.039078    0.054668    -0.12755   -0.079152
-0.018413  -0.0076946     0.10209   -0.041799   0.0088706    -0.11878   -0.076554
-0.037577   -0.025559    0.028034    -0.14314   -0.017764   -0.095717   -0.070058
-0.054142     -0.0405   -0.052518     -0.2474   -0.016789   -0.060963   -0.060313
-0.063561   -0.052193    -0.12073    -0.33413   0.0075714   -0.021012    -0.04862
-0.064211    -0.05804    -0.16003    -0.37895     0.03518    0.017965   -0.035953
-0.060313   -0.059664     -0.1662    -0.36953    0.049147    0.047847   -0.023285
-0.053492   -0.058365    -0.14671    -0.31334    0.045249     0.06084   -0.011592
-0.044073   -0.054142    -0.11228    -0.23506    0.028034     0.05272  -0.0011985
-0.031406   -0.046022   -0.078503    -0.16977   0.0059473    0.028684   0.0062721
-0.017114   -0.034978   -0.052843    -0.14444   -0.012567  -0.0015233    0.010495
-0.0031473   -0.022961   -0.036278    -0.15418   -0.023935   -0.026533   0.0091954
0.0059473   -0.012242   -0.026209    -0.16912   -0.030106   -0.047321  0.00010078
0.011469  -0.0047713   -0.017114    -0.15288     -0.0405   -0.062912   -0.013541
0.012119  0.00075039   -0.011267   -0.085324   -0.062912   -0.072656    -0.02361
0.012119   0.0020496  -0.0060706    0.020564   -0.094093   -0.076879    -0.02361
0.019589   0.0017248  -0.0018481     0.12905    -0.12852   -0.076554    -0.01484
0.032906   0.0023744  0.00075039     0.20246    -0.15646   -0.071682  -0.0021729
0.044275      0.0014  -0.0031473     0.22649    -0.17172   -0.064211   0.0095202
0.047847  -0.0024977   -0.014516      0.2044    -0.17042   -0.056416    0.019914
0.04395   -0.010293   -0.029132     0.14984    -0.15223    -0.04862    0.027709
0.03518   -0.018413   -0.037577    0.085525    -0.11943   -0.041799    0.030957
0.024461   -0.023935   -0.038876    0.031282    -0.08305    -0.03238    0.031282
0.012443   -0.027508   -0.036927  -0.0054209   -0.050569   -0.022311    0.030633
0.00010078   -0.027833   -0.031406   -0.024909   -0.029782    -0.01614    0.030633
-0.010293    -0.02426   -0.024585   -0.034978    -0.01549   -0.017764    0.026735
-0.018413    -0.01614   -0.018088   -0.042449  -0.0037969   -0.026858    0.014068
-0.027833  -0.0063954    -0.01614   -0.048945   0.0069217   -0.039851  -0.0096434
-0.040175 -0.00054884   -0.013866   -0.051868    0.016991   -0.053492   -0.036927
-0.053817  -0.0018481  -0.0096434   -0.052518    0.021538   -0.065186   -0.057065
-0.06681   -0.010943  -0.0067202   -0.060638    0.022512   -0.068434   -0.064536
-0.076879   -0.024585  -0.0096434   -0.085648    0.023162   -0.063561   -0.060638
-0.081751   -0.036278   -0.022311    -0.12722    0.023162   -0.053817   -0.047971
-0.081426   -0.039526   -0.046022    -0.17627    0.025761   -0.044398   -0.029132
-0.07493   -0.032055   -0.073306    -0.21622    0.026735    -0.03173  -0.0063954
-0.062912   -0.017764   -0.093769    -0.23344    0.019589    -0.01549    0.015042
-0.046022  -0.0024977    -0.10384    -0.22077   0.0056225   0.0010752    0.028034
-0.030756    0.009845    -0.10221    -0.18212   -0.014191    0.009845    0.031932
-0.020037    0.016991   -0.090196    -0.12755   -0.034329   0.0091954    0.028359
-0.017439    0.019589   -0.071357   -0.068434   -0.052518  0.00042559     0.01829
-0.018738    0.016666   -0.048945   -0.018088    -0.06551   -0.012242   0.0049729
-0.021661    0.010495   -0.024585    0.019589   -0.072006   -0.023935  -0.0073698
-0.020362   0.0026992   0.0017248    0.044275   -0.073631   -0.032705   -0.015165
-0.01484  -0.0044465    0.028359    0.062464   -0.073306   -0.037252   -0.020362
-0.010293  -0.0076946    0.047847    0.078379   -0.069083   -0.032055    -0.02426
-0.0096434  -0.0063954    0.057917    0.094945   -0.059989   -0.021661   -0.029457
-0.014191 -0.00087364    0.055318     0.11573   -0.047971   -0.010618   -0.035953
-0.020037   0.0091954    0.042975     0.13295   -0.035953  -0.0044465   -0.041799
-0.02426    0.023162    0.028684     0.13295   -0.027508  -0.0063954   -0.041475
-0.025234    0.036479    0.022188     0.10436   -0.021986   -0.013866   -0.035628
-0.02426    0.045249    0.028359    0.058891   -0.017114   -0.017439   -0.028157
-0.021661    0.049147    0.042326    0.015367   -0.011917   -0.014516   -0.022636
-0.020687    0.047198    0.058566   -0.015165  -0.0093186  -0.0076946   -0.018413
-0.021986    0.043625    0.069934   -0.035628   -0.010293  -0.0011985   -0.013216
-0.023285    0.042651    0.072858   -0.048296   -0.015815      0.0014  -0.0093186
-0.021012    0.041676    0.064413   -0.052193   -0.020037   0.0010752  -0.0073698
-0.022636    0.038103    0.050446   -0.049595   -0.019712  -0.0021729  -0.0089938
-0.026858    0.031607    0.040702    -0.04115   -0.018088  -0.0083442   -0.012242
-0.03303    0.024461    0.037778   -0.027833   -0.017439   -0.016789   -0.013541
-0.03303    0.015692    0.038428   -0.015165   -0.013216    -0.02426  -0.0099683
-0.027833    0.008221    0.035505  -0.0067202  -0.0034721   -0.030106   0.0010752
-0.020687   0.0062721     0.02706  -0.0063954   0.0085458   -0.030106    0.011144
-0.017114     0.01017     0.01829   -0.013541    0.019264   -0.022961    0.016016
-0.018088    0.016666    0.011144   -0.024585    0.025761  -0.0093186    0.014717
-0.021986    0.022512   0.0085458   -0.035628    0.028359   0.0010752    0.011794
-0.026209    0.024461    0.012443   -0.045047    0.031282   0.0026992    0.012119
-0.029457    0.020564    0.022837   -0.048296    0.039078  -0.0028225    0.013418
-0.029132    0.013093     0.03583   -0.046996    0.047523   -0.011267    0.013418
-0.025884   0.0072465    0.044275    -0.04115    0.047847   -0.019712   0.0085458
-0.020362   0.0017248    0.045249   -0.029782    0.042326   -0.026533  -0.0011985
-0.01484  -0.0024977     0.03583    -0.01484    0.032582   -0.028157  -0.0083442
-0.014516  -0.0076946    0.022512   0.0017248    0.022837   -0.024909   -0.012567
-0.017439   -0.014516    0.011794    0.016016    0.013418   -0.021986   -0.014516
-0.018738   -0.022961   0.0056225    0.025111   0.0052977   -0.021986   -0.017439
-0.017114   -0.028482      0.0014    0.029333   0.0010752   -0.024585   -0.020687
-0.012567   -0.029132  -0.0034721    0.029009   0.0020496   -0.026533   -0.021012
-0.0083442   -0.025884  -0.0083442    0.025436   0.0069217   -0.026533   -0.020687
-0.0054209   -0.022961   -0.014191    0.017965    0.012443   -0.020687   -0.019063
-0.0044465   -0.020362   -0.022311   0.0026992    0.017316  -0.0076946   -0.016464
-0.0080194   -0.020037   -0.037577   -0.019712    0.022188   0.0059473    -0.01484
-0.013866   -0.020687    -0.05739   -0.045372     0.02706     0.01764    -0.01484
-0.017439   -0.017764   -0.068758   -0.058689    0.035505    0.025111    -0.01549
-0.016464   -0.010943   -0.067134   -0.046022    0.042326    0.030308   -0.012242
-0.010943  -0.0031473   -0.050569  -0.0050961    0.040052     0.03583   -0.007045
-0.0047713   0.0026992   -0.027183    0.058891    0.029333    0.041351 -0.00087364
0.0010752   0.0078962  -0.0021729     0.12743    0.013743    0.046548   0.0065969
0.0085458    0.011794    0.021213      0.1729  -0.0031473    0.047523    0.014068
0.019914    0.012768    0.040702     0.16835   -0.021986    0.042001    0.016341
0.036154    0.012119     0.05142     0.10112   -0.040825    0.031282    0.014068
0.053694    0.012443     0.05272   -0.034654   -0.054142    0.018615   0.0088706
0.069934    0.014717    0.045899    -0.22791   -0.059664   0.0069217   0.0023744
0.078055     0.01894    0.032906    -0.44229   -0.059014  -0.0031473  -0.0050961
0.074157    0.023812    0.014717    -0.63555   -0.054467  -0.0093186   -0.012567
0.06084    0.024461  -0.0067202    -0.77456   -0.051544   -0.013541   -0.017114
0.0433    0.018615   -0.028157    -0.82523   -0.057715   -0.014516    -0.01614
0.029983    0.008221   -0.040825    -0.75378   -0.075579   -0.016464   -0.010943
0.024786  -0.0011985   -0.035628    -0.53778   -0.095393   -0.021337  -0.0041217
0.028034  -0.0031473   -0.013541    -0.18634    -0.10189   -0.023935  0.00042559
0.03518   0.0033489    0.016016     0.23689   -0.082725   -0.021986   0.0033489
0.040377    0.013743    0.042001     0.63055   -0.046671   -0.017764   0.0065969
0.041351    0.023162    0.053044     0.90761   -0.012892   -0.012892    0.010819
0.036804    0.028684    0.047523      1.0249   0.0043233  -0.0057458    0.013418
0.029009    0.029658    0.031607     0.99856 -0.00054884   0.0017248    0.015367
0.020239    0.023812    0.016016      0.8826   -0.022961   0.0088706    0.015692
0.012443    0.012443   0.0046481     0.73709   -0.051868    0.011794    0.013418
0.0075714  -0.0024977  -0.0067202     0.61074   -0.075255   0.0059473   0.0072465
0.0072465   -0.015815   -0.019388     0.51654    -0.08305  -0.0050961   0.0023744
0.010819   -0.026209   -0.031081     0.44444   -0.077853   -0.012567   0.0010752
0.015042   -0.034329     -0.0405      0.3759   -0.064536   -0.011592   0.0049729
0.01764   -0.039526   -0.044723     0.30185   -0.048945  -0.0021729   0.0088706
0.015692   -0.038227   -0.045697     0.22454   -0.034329    0.009845    0.011144
0.008221   -0.030431   -0.044073     0.14139   -0.022961    0.020564     0.01017
-0.0024977   -0.018088    -0.04115    0.043625   -0.020037    0.025111   0.0072465
-0.010618  -0.0063954    -0.04115   -0.072981   -0.027833    0.021863   0.0033489
-0.01484   0.0010752   -0.046022    -0.19966   -0.050244    0.011794  -0.0011985
-0.013216      0.0014   -0.054792    -0.32276   -0.078178  -0.0024977  -0.0080194
-0.0080194  -0.0034721   -0.065186    -0.41728    -0.10026   -0.019063    -0.01484
-0.0047713   -0.011917   -0.073955    -0.46827    -0.11163     -0.0405   -0.021337
-0.0050961   -0.021012   -0.076229    -0.48224    -0.11261   -0.062587   -0.027508
-0.0083442   -0.027183   -0.073306     -0.4621    -0.10124   -0.078178   -0.033354
-0.013216   -0.028157   -0.061937    -0.40363   -0.074605     -0.0824   -0.035303
-0.013216   -0.017764   -0.043099    -0.28865    -0.03173   -0.072981   -0.028157
-0.007045   0.0036737   -0.017114    -0.10254    0.023162   -0.055766   -0.013866
0.0017248    0.027385    0.011469     0.15601    0.076106   -0.039851   0.0017248
0.010819    0.041351    0.033556     0.43664     0.11086   -0.026858    0.014392
0.014068    0.039078    0.044275     0.65329     0.11833   -0.014516    0.020564
0.010495    0.024461    0.041351     0.74423     0.10112  -0.0054209    0.016991
0.0059473   0.0069217    0.027385     0.70266    0.064413  0.00042559   0.0069217
0.0056225  -0.0096434   0.0091954     0.56332    0.021863  0.00075039  -0.0050961
0.0072465   -0.020362  -0.0057458     0.38695   -0.014191  -0.0037969   -0.015165
0.0065969   -0.027833   -0.011592     0.22454   -0.033679   -0.011592   -0.024585
0.00010078   -0.031406  -0.0096434     0.10079    -0.03173   -0.018088    -0.03173
-0.012242   -0.030106  -0.0073698    0.016991   -0.015815   -0.020687   -0.037577
-0.026209   -0.023935   -0.011267   -0.037902   0.0033489   -0.022311   -0.040175
-0.035953   -0.016789   -0.015815   -0.081101    0.019589   -0.022961   -0.037902
-0.039526   -0.012242   -0.016789    -0.12268    0.028359   -0.026209   -0.031081
-0.037902   -0.010618   -0.015815    -0.16718    0.029658   -0.031081    -0.02361
-0.034654  -0.0093186   -0.013866    -0.20972    0.032257   -0.030756   -0.015165
-0.033679  -0.0067202   -0.013216    -0.23344    0.041351   -0.025234  -0.0047713
-0.033354  -0.0034721   -0.013866    -0.23214    0.053694   -0.021012   0.0075714
-0.034004  -0.0041217   -0.019388     -0.2081    0.054993   -0.023285    0.017316
-0.034004  -0.0076946   -0.032705    -0.18082    0.038428   -0.034329    0.020239
-0.03173  -0.0099683   -0.050569      -0.174    0.013093   -0.044073    0.020239
-0.024909   -0.007045   -0.065186    -0.19608  -0.0083442   -0.044723     0.01894
-0.011592  0.00042559   -0.070382    -0.23084   -0.019712   -0.034654    0.023487
0.0049729    0.011469   -0.070058     -0.2513   -0.027508   -0.018738    0.030633
0.017316    0.016341   -0.068758    -0.24221   -0.045372  -0.0024977    0.034855
0.022837    0.015367   -0.066485    -0.20355   -0.075904   0.0056225    0.032582
0.022512    0.011794   -0.060638    -0.13859    -0.10676  0.00010078    0.025436
0.01894   0.0088706    -0.04992   -0.060963    -0.12625    -0.01484     0.01894
0.011469    0.008221   -0.032705   0.0078962    -0.13015   -0.034004    0.015367
0.0010752    0.008221   -0.012892    0.050446    -0.11845    -0.04992    0.011469
-0.0063954   0.0075714   0.0039985    0.062139   -0.097341   -0.059014   0.0062721
-0.0096434   0.0059473    0.012768    0.048497   -0.073955   -0.061613  -0.0011985
-0.0093186   0.0039985    0.013418    0.016991    -0.04992   -0.055116  -0.0034721
-0.0047713   0.0056225    0.012119   -0.023935   -0.029132   -0.044073  0.00042559
0.0026992    0.009845    0.012443   -0.077203    -0.01484    -0.03173   0.0075714
0.01017    0.016016    0.017316    -0.14346  -0.0054209   -0.022311    0.008221
0.014717    0.019589    0.022188    -0.22402   0.0010752   -0.014191  -0.0011985
0.014717    0.016666    0.021538    -0.30457   0.0065969   -0.010293    -0.01549
0.011144   0.0078962    0.016341    -0.37538     0.01017   -0.010293   -0.026209
0.0062721  -0.0031473   0.0085458    -0.42702    0.013093   -0.014516   -0.028482
-0.0028225   -0.012892  0.00075039    -0.45723    0.017316   -0.021661    -0.02361
-0.012567   -0.016464  -0.0099683    -0.46535     0.02641   -0.026533  -0.0089938
-0.016789    -0.01484    -0.02361    -0.44716    0.037454   -0.025234    0.011144
-0.010618   -0.010293   -0.036927    -0.40493    0.048822   -0.017114    0.032257
0.003024  -0.0063954   -0.051868    -0.35394    0.061489  -0.0060706    0.050446
0.015692  -0.0073698   -0.067134    -0.30749    0.074482      0.0014    0.061814
0.021863  -0.0096434   -0.079152    -0.26884    0.078055   0.0049729    0.065712
0.019264   -0.013216   -0.083375    -0.22759    0.055318   0.0059473    0.059216
0.0072465   -0.020362   -0.079802    -0.15776  0.00010078 -0.00022403    0.044275
-0.0096434   -0.027833   -0.063561   -0.037577   -0.071682   -0.013866    0.027385
-0.022961   -0.030756   -0.037577      0.1271    -0.13275   -0.031406    0.014392
-0.027508   -0.025234   -0.007045     0.29795     -0.1662   -0.046996   0.0075714
-0.021986   -0.012567    0.022512     0.43567    -0.17042   -0.055766   0.0059473
-0.008669   0.0046481    0.043625     0.50648    -0.15191   -0.053492   0.0091954
0.0065969    0.015692    0.050771     0.49511    -0.12657   -0.046996    0.012768
0.011794    0.016016    0.040052     0.40968    -0.10319   -0.039526    0.013093
0.01017   0.0085458    0.020239     0.28268    -0.08305   -0.032705   0.0062721
0.0062721   0.0049729 -0.00022403     0.15926   -0.061937   -0.025884  -0.0057458
0.003024    0.010495   -0.018088    0.067336   -0.040175   -0.020362    -0.01549
0.0033489    0.020564   -0.032705    0.015692   -0.019063   -0.018413   -0.014516
0.0075714    0.030308   -0.043423  0.00075039  -0.0011985   -0.020362   -0.007045
0.013418    0.036804   -0.046347   0.0078962    0.012119   -0.025884 -0.00087364
0.017316    0.039402     -0.0405    0.023812    0.024786   -0.033354  -0.0021729
0.018615    0.038103    -0.03173     0.03453     0.03518   -0.037577  -0.0083442
0.01829    0.033881   -0.021661    0.032582    0.038428   -0.039526   -0.016789
0.01829    0.023487   -0.012242    0.020239    0.032582   -0.040175   -0.025559
0.015042   0.0075714  -0.0054209   0.0010752    0.020239     -0.0405   -0.028157
0.0095202  -0.0060706  -0.0024977   -0.019063   0.0088706     -0.0405   -0.023285
0.0010752   -0.017439 -0.00054884   -0.028482   0.0043233   -0.039526   -0.016789
-0.0083442   -0.023285  0.00042559   -0.025234   0.0078962   -0.040175   -0.018413
-0.020037   -0.026209   0.0020496   -0.015815    0.015692   -0.039201   -0.030431
-0.032055   -0.024909   0.0039985   -0.008669    0.025111   -0.037252    -0.04862
-0.039526   -0.023285   0.0095202  -0.0083442    0.034855   -0.034654   -0.065186
-0.039851   -0.023285    0.020239   -0.011592    0.041351    -0.03173    -0.07493
-0.035303   -0.025559    0.032257   -0.015815    0.041351   -0.027833   -0.078503
-0.030431   -0.031406    0.038103   -0.019712    0.032582   -0.019712   -0.071357
-0.029782   -0.038227    0.033556   -0.020037    0.014068  -0.0089938   -0.055766
-0.034654   -0.046347    0.014392    -0.01549  -0.0080194  -0.0021729   -0.040175
-0.045372   -0.054467  -0.0096434   -0.010293   -0.026533  -0.0067202   -0.030431
-0.059014   -0.055766    -0.02426  -0.0083442   -0.034654   -0.012892   -0.026858
-0.067134   -0.047646   -0.019063  -0.0093186   -0.032055    -0.01484   -0.026858
-0.06551   -0.032055    0.003024   -0.016789   -0.023285   -0.011917   -0.029132
-0.053168   -0.013541    0.034855    -0.03173   -0.013541  -0.0044465    -0.03303
-0.034329   0.0010752    0.063438   -0.051868  -0.0083442   0.0059473   -0.034978
-0.015815   0.0088706    0.079354   -0.070058  -0.0063954    0.013418    -0.03173
-0.0018481    0.010495    0.076106   -0.080451  -0.0054209    0.012119   -0.021661
0.0052977    0.011469    0.056942   -0.079477  -0.0028225   0.0049729  -0.0067202
0.0062721    0.013743    0.032257   -0.070058  0.00075039  0.00010078   0.0059473
0.00010078    0.016991    0.012443   -0.056416   0.0026992   0.0033489    0.010495
-0.0096434    0.020888   0.0026992   -0.040175   0.0026992    0.012768   0.0036737
-0.019712    0.024461   0.0033489   -0.023935   0.0010752    0.022512   -0.007045
-0.026533    0.022188   0.0085458   -0.007045   0.0046481    0.028034   -0.019063
-0.030106    0.011469    0.013418   0.0056225    0.012768    0.027709   -0.028157
-0.034004 -0.00087364    0.015042    0.013418    0.021538    0.022837    -0.03303
-0.037577  -0.0080194    0.013093    0.019264    0.024786    0.015692    -0.03173
-0.040825  -0.0093186    0.010819    0.022512    0.021538    0.010819   -0.025234
-0.043423   -0.007045   0.0088706     0.02706    0.015042   0.0085458    -0.01614
-0.046347  -0.0063954   0.0039985    0.033881   0.0085458    0.009845  -0.0083442
-0.04992   -0.008669  -0.0037969    0.041351   0.0039985    0.011794  -0.0050961
-0.052193   -0.011917   -0.011917    0.044924   0.0023744    0.011469  -0.0044465
-0.051868   -0.012567   -0.017114    0.046223  0.00010078    0.009845  -0.0028225
-0.050569   -0.012567   -0.019063    0.047198  -0.0034721   0.0039985 -0.00087364
-0.047971   -0.011592   -0.018088    0.048497  -0.0050961  -0.0083442   0.0026992
-0.041799   -0.010293   -0.012892      0.0433  -0.0080194   -0.021012   0.0059473
-0.032055  -0.0076946   -0.010293    0.032906   -0.010293   -0.026533     0.01017
-0.023285  -0.0076946   -0.012242    0.019264   -0.007045   -0.021986    0.015692
-0.017114   -0.011917   -0.017764   0.0085458   0.0020496   -0.013216    0.022512
-0.01549   -0.018738   -0.022311   0.0026992    0.012768  -0.0044465    0.029983
-0.01484   -0.021986   -0.023285   0.0017248     0.01829  0.00042559    0.037778
-0.013216   -0.023285   -0.020037   0.0039985    0.014392  0.00075039    0.045574
-0.011917   -0.021012   -0.013866   0.0088706   0.0056225 -0.00022403    0.050121
-0.013866   -0.018738  -0.0076946    0.019914  -0.0041217 -0.00087364    0.050771
-0.016789   -0.016789  -0.0050961    0.036804   -0.012567  -0.0011985    0.047198
-0.018088   -0.014191  -0.0073698    0.054019   -0.019712  -0.0011985    0.039727
-0.013541  -0.0099683   -0.011267    0.064413   -0.025234  -0.0041217    0.028034
-0.0044465  -0.0067202   -0.014516    0.065712   -0.028482  -0.0047713    0.015692
0.0010752  -0.0054209   -0.015815    0.056292   -0.029132  -0.0034721   0.0062721
0.00042559   -0.008669   -0.015165    0.036804   -0.026858  -0.0044465  -0.0011985
-0.0073698   -0.013866   -0.011917    0.016016   -0.025884  -0.0093186  -0.0083442
-0.019063   -0.018413  -0.0096434 -0.00022403   -0.030106   -0.020687   -0.012892
-0.027833   -0.021337   -0.010943  -0.0073698   -0.040825   -0.033354   -0.015815
-0.033354   -0.020362   -0.013216  -0.0076946   -0.054792   -0.043423   -0.017439
-0.034978   -0.017439   -0.019388   -0.011592   -0.065835   -0.044073   -0.018413
-0.03173    -0.01549   -0.031406   -0.031081   -0.062912   -0.034329   -0.019712
-0.02426   -0.013866   -0.051868   -0.082725   -0.038876   -0.021337   -0.020687
-0.015815   -0.010618   -0.084024    -0.18569   0.0017248   -0.008669   -0.019712
-0.011267  -0.0050961    -0.12268    -0.34225     0.04395  0.00010078   -0.014516
-0.0083442   0.0033489    -0.15646    -0.53356     0.06831   0.0052977  -0.0031473
-0.0041217    0.016341    -0.17497    -0.72844    0.064088   0.0052977    0.011144
0.003024    0.029009    -0.17172    -0.88435    0.031607 -0.00087364    0.019589
0.012768    0.039078    -0.14671    -0.95873   -0.018738   -0.011267    0.016341
0.022837    0.044599    -0.10774    -0.92625   -0.073631   -0.022311   0.0075714
0.032582    0.047523   -0.064211    -0.77781    -0.12333   -0.028807      0.0014
0.038103    0.048172   -0.022311    -0.51115     -0.1623    -0.03173 -0.00054884
0.040377    0.049472    0.020239    -0.12365    -0.18504   -0.033354   0.0026992
0.040052     0.05272    0.066037     0.36746    -0.18309   -0.032055   0.0091954
0.039078    0.060515     0.11703     0.90014    -0.15061   -0.028807    0.018615
0.041351    0.070584     0.16185      1.3916   -0.096692   -0.029132    0.023487
0.042326    0.078379     0.19109      1.7466   -0.042774   -0.037252    0.017965
0.042326    0.080328     0.19531      1.8889  -0.0076946   -0.049595   0.0036737
0.040052    0.072858     0.17647      1.7995      0.0014    -0.06551   -0.016464
0.036804    0.058241     0.14529      1.5306  -0.0093186   -0.080451   -0.033354
0.033556    0.042975     0.11086      1.1697   -0.027833   -0.090521   -0.046671
0.026085    0.030308    0.081303     0.80595   -0.043748   -0.093769   -0.051219
0.014717     0.01764    0.059541     0.49901   -0.050569   -0.090845   -0.047321
0.0046481   0.0085458    0.041351     0.27619   -0.048296   -0.084349   -0.038551
0.0043233    0.003024    0.021538     0.13262   -0.039526    -0.07493   -0.030106
0.012119    0.003024  -0.0015233    0.046223   -0.030106   -0.060638   -0.022311
0.023487   0.0091954   -0.022961   -0.013866    -0.02426   -0.038876    -0.01484
0.035505    0.017316   -0.042124   -0.062262   -0.022636    -0.01484  -0.0076946
0.041351    0.023812   -0.055116    -0.11033   -0.024909      0.0014   0.0010752
0.03583    0.025436   -0.060963    -0.15841   -0.029782   0.0095202    0.011469
0.024137    0.020888   -0.061937    -0.19998   -0.035303    0.015042    0.021863
0.014717    0.013093   -0.061288    -0.22434   -0.038227    0.016991    0.031607
0.01017   0.0062721   -0.063886    -0.22694   -0.039851    0.016016    0.037778
0.0095202   0.0010752   -0.072006    -0.20908   -0.043423   0.0072465    0.041676
0.010819  -0.0021729   -0.078827    -0.17724    -0.04927  -0.0054209    0.038753
0.009845  -0.0076946   -0.081101    -0.14281   -0.057065   -0.019388    0.029658
0.00075039   -0.011917   -0.077203    -0.11423    -0.06681   -0.031081    0.018615
-0.011592   -0.013541   -0.069083    -0.10091   -0.073955   -0.039851   0.0095202
-0.018413   -0.012242   -0.057715    -0.10319   -0.075255   -0.050244   0.0010752
-0.018413   -0.010943   -0.045047    -0.11748   -0.069408   -0.060313  -0.0067202
-0.014191  -0.0096434   -0.035628    -0.13469   -0.057065   -0.066485    -0.01484
-0.010943  -0.0083442   -0.030431    -0.14606   -0.042449   -0.065835   -0.019388
-0.010943   -0.011592   -0.025884    -0.13794   -0.025559   -0.054467   -0.019712
-0.011267   -0.021986   -0.019712    -0.11748   -0.011592   -0.037252    -0.01484
-0.0083442   -0.035953   -0.013541   -0.097666  -0.0034721   -0.024909  -0.0083442
-0.0021729    -0.04927   -0.015815   -0.090196  -0.0041217   -0.021661  -0.0024977
0.0026992   -0.056416   -0.025234   -0.092469   -0.012242    -0.02426 -0.00054884
0.0039985   -0.056741     -0.0405   -0.089871    -0.02361   -0.023935  -0.0054209
-0.00022403   -0.053168   -0.055116   -0.073306   -0.032705   -0.020037   -0.013541
-0.0083442   -0.046347   -0.063886   -0.044398   -0.036602    -0.01484   -0.021661
-0.020362   -0.043423   -0.069083   -0.013541   -0.034329   -0.013541   -0.025234
-0.030431   -0.044723   -0.071682  0.00010078   -0.028482    -0.01484   -0.021986
-0.036602   -0.048945   -0.067459   -0.014516   -0.022961   -0.015815   -0.014516
-0.036602   -0.048945   -0.050894   -0.056416   -0.010943    -0.01614  -0.0050961
-0.030756   -0.039526   -0.017764    -0.11293   0.0095202   -0.013216   0.0026992
-0.022961   -0.021337    0.019589    -0.18147    0.030633  -0.0089938   0.0046481
-0.016789  -0.0028225    0.046548    -0.27014    0.046548  -0.0028225   0.0039985
-0.012567   0.0088706    0.056942    -0.38122    0.055968   0.0020496   0.0010752
-0.008669   0.0095202    0.053694    -0.47639    0.067011   0.0046481  -0.0018481
-0.0063954   0.0059473    0.046548    -0.50433    0.087474   0.0059473  -0.0024977
-0.0037969   0.0020496    0.044275    -0.45138     0.11443   0.0088706  -0.0018481
-0.0011985   0.0023744    0.050121    -0.35719     0.13782    0.012768  -0.0028225
-0.00054884   0.0046481    0.061165    -0.27534     0.15179    0.013093   -0.007045
-0.0044465   0.0046481    0.067011    -0.24318     0.15081   0.0075714   -0.013866
-0.011267    0.003024    0.057917    -0.26916     0.13912  0.00010078   -0.022961
-0.018413  -0.0015233    0.034206    -0.33055     0.12418  -0.0028225   -0.030756
-0.022961  -0.0073698   0.0078962     -0.3809     0.10891  -0.0054209   -0.034978
-0.022961   -0.014516  -0.0089938     -0.3809     0.08585  -0.0096434   -0.035953
-0.021337   -0.021012   -0.013541    -0.31854    0.049147   -0.018413   -0.039201
-0.019388   -0.029132  -0.0063954    -0.21655   0.0065969   -0.032055   -0.046996
-0.01549   -0.035953    0.012119    -0.10903   -0.028807   -0.047646   -0.056741
-0.0054209   -0.032705    0.048497   -0.032705   -0.043423   -0.059014   -0.065186
0.015692   -0.012242    0.099817   0.0026992   -0.034004   -0.064536   -0.068109
0.041676    0.019914     0.15601    0.015042   -0.021012    -0.06616   -0.063886
0.06084    0.047523     0.19693    0.029658   -0.036927   -0.072331   -0.056741
0.062139    0.054019     0.20311    0.043625    -0.10806   -0.087922   -0.056091
0.042326    0.034855      0.1638    0.025436    -0.22499    -0.11293   -0.062262
0.01017  -0.0057458      0.0865   -0.061613    -0.34452     -0.1308    -0.06681
-0.019388   -0.056091  -0.0083442    -0.23798     -0.4163    -0.12527   -0.055766
-0.040825    -0.10156   -0.097341    -0.48938    -0.40916   -0.087597   -0.027508
-0.049595     -0.1295    -0.16588    -0.76807    -0.32048   -0.021661    0.013093
-0.041799    -0.14087    -0.21135     -1.0049    -0.18114    0.054019    0.051745
-0.023285    -0.13794    -0.23733     -1.1133   -0.039201     0.12158    0.080978
-0.0024977    -0.12755     -0.2474    -0.99706    0.065062     0.16478    0.096893
0.015042    -0.10806    -0.23928    -0.62126     0.11573     0.17939     0.10144
0.031932   -0.078827    -0.21167   -0.057715     0.11898     0.17225    0.098517
0.047198   -0.042124    -0.16847     0.53928    0.097218     0.15341    0.092346
0.062789  -0.0034721    -0.12138      1.0294    0.069285     0.13262    0.088124
0.075456    0.029333   -0.079802      1.3338    0.045249     0.11248    0.089423
0.080978    0.049472    -0.04862      1.4364    0.028359    0.092346    0.093645
0.075456    0.055318   -0.028482      1.3718    0.011469    0.074157    0.095269
0.058566    0.050771   -0.016464      1.2019   -0.010618    0.054344    0.087149
0.040052    0.042001   -0.012567     0.99499   -0.038876    0.033556     0.06896
0.025761    0.034206   -0.013541     0.79913    -0.06616    0.015367    0.046873
0.016016    0.030957   -0.017439     0.64127     -0.0824      0.0014    0.025761
0.010495    0.032582   -0.021986     0.52077   -0.083375  -0.0080194    0.009845
0.0075714    0.035505    -0.02361     0.42495   -0.072656   -0.012567 -0.00087364
0.0049729     0.03583   -0.019388     0.33823    -0.05739   -0.014516  -0.0089938
0.00042559    0.032582  -0.0096434     0.25507   -0.043423   -0.012567   -0.019063
-0.0096434    0.028359   0.0069217     0.17387   -0.026533  -0.0099683   -0.034329
-0.024585    0.025761     0.02641     0.10209  -0.0063954   -0.011267   -0.049595
-0.04115    0.023487    0.039402    0.047523    0.015692   -0.018413   -0.062912
-0.052193    0.022512    0.040702    0.013093    0.035505   -0.029782   -0.068434
-0.054467    0.021538    0.037454  -0.0089938    0.048822   -0.042449   -0.068109
-0.051544    0.020888    0.031282   -0.024909    0.053369   -0.052193    -0.05804
-0.048945    0.019589    0.024461   -0.042774     0.05142   -0.052843   -0.041799
-0.044398    0.019914    0.020564   -0.066485    0.047847   -0.044073    -0.02426
-0.038227    0.023487    0.016666   -0.094418    0.040377   -0.031081  -0.0080194
-0.029782    0.028359   0.0075714    -0.12203    0.030633   -0.021337   0.0033489
-0.021337    0.032257  -0.0024977    -0.14606    0.020564   -0.017439    0.010495
-0.010943    0.037129   -0.008669    -0.16555    0.011794   -0.019063    0.014392
-0.00087364    0.044924   -0.007045    -0.17887   0.0059473   -0.022311    0.014392
0.0085458    0.051745   0.0017248    -0.18699   0.0059473   -0.022961    0.013418
0.013743    0.054344    0.012443    -0.18926    0.010819   -0.020687    0.010495
0.009845    0.052395    0.019914    -0.19186    0.014392   -0.017764   0.0049729
-0.00054884    0.043625    0.023487    -0.19771    0.012443   -0.015815 -0.00087364
-0.011917    0.033231    0.017965     -0.2055   0.0056225   -0.016464  -0.0037969
-0.019712    0.024786   0.0065969     -0.2107   0.0039985   -0.017764  -0.0054209
-0.022311    0.019589  -0.0021729    -0.21037    0.012768   -0.017764   -0.008669
-0.022636    0.017965  -0.0047713    -0.20518     0.02641   -0.015165   -0.010293
-0.024909    0.017965  -0.0021729    -0.19316    0.042326   -0.011592   -0.008669
-0.028157    0.016341   0.0059473    -0.17237    0.059216  -0.0080194  -0.0041217
-0.029782    0.012119    0.017965    -0.14184    0.072208  -0.0041217  0.00042559
-0.028807     0.01017    0.024786    -0.10774    0.071883 -0.00022403   0.0010752
-0.029132    0.010819    0.024137    -0.09117    0.050121 -0.00054884  -0.0028225
-0.034004    0.011794    0.019589    -0.11033    0.016016  -0.0057458  -0.0096434
-0.037577    0.008221    0.015042    -0.16003   -0.018413   -0.013866   -0.013216
-0.040175   0.0023744     0.01017    -0.21492   -0.043099   -0.019063   -0.012892
-0.039851  -0.0037969   0.0065969    -0.24578   -0.054142   -0.017764   -0.012567
-0.036927  -0.0073698   0.0026992    -0.23538    -0.05739    -0.01484   -0.015815
-0.028807   -0.008669   0.0020496    -0.18536   -0.057715    -0.01549   -0.021012
-0.019063  -0.0076946   0.0056225    -0.11651   -0.056741   -0.021661   -0.025884
-0.013216  -0.0076946   0.0091954   -0.053168    -0.04992   -0.028157   -0.028157
-0.017439   -0.010943    0.008221   -0.012242   -0.037577   -0.031406   -0.028482
-0.026533    -0.01484   0.0017248  0.00075039   -0.021012   -0.028482   -0.026858
-0.034654   -0.015165  -0.0057458   -0.010293  -0.0024977   -0.023285   -0.023935
-0.036278   -0.012242  -0.0080194   -0.030106    0.013418   -0.020037   -0.020037
-0.034329  -0.0096434  -0.0073698   -0.045697    0.021538   -0.021661    -0.01614
-0.034329   -0.007045  -0.0034721   -0.052843    0.019264   -0.024585   -0.012892
-0.036278  -0.0028225    0.003024   -0.056091   0.0091954   -0.025884   -0.008669
-0.033354   0.0017248   0.0075714   -0.058365  -0.0021729   -0.025884  -0.0089938
-0.027508   0.0043233   0.0046481   -0.059989   -0.010293   -0.027833   -0.010293
-0.023285   0.0078962  -0.0047713   -0.062587   -0.014516   -0.031081   -0.012242
-0.026533    0.011144    -0.01484   -0.065835   -0.017764   -0.033679  -0.0096434
-0.03303    0.011469   -0.020037   -0.070382   -0.018088    -0.03173  -0.0037969
-0.039851   0.0075714   -0.022961   -0.069733   -0.013216   -0.024585  -0.0011985
-0.044073   0.0020496   -0.026533   -0.061288  -0.0099683   -0.015165  -0.0034721
-0.045372 -0.00054884   -0.032705   -0.047321   -0.011917  -0.0034721  -0.0093186
-0.043099 -0.00054884   -0.040825   -0.031406   -0.020362   0.0056225   -0.016464
-0.039851  -0.0011985   -0.047971   -0.019388   -0.029457     0.01017   -0.022961
-0.037902 -0.00054884   -0.047646  -0.0099683   -0.038551   0.0056225   -0.023285
-0.037252 -0.00022403   -0.037252  -0.0044465   -0.046671  -0.0050961   -0.017439
-0.034329  0.00042559   -0.020037  0.00075039   -0.052518   -0.015815  -0.0089938
-0.028157   0.0010752  -0.0024977   0.0085458   -0.052518   -0.022961  -0.0021729
-0.017439   0.0010752   0.0085458    0.017965   -0.050894   -0.030431  -0.0037969
-0.0089938      0.0014   0.0072465     0.02706   -0.052843   -0.044398   -0.014191
-0.0031473      0.0014  -0.0054209    0.031932   -0.054792   -0.061937   -0.027833
-0.0031473      0.0014   -0.020362    0.032906   -0.053817   -0.077853   -0.037577
-0.0063954   0.0056225   -0.033679    0.032257   -0.052193   -0.084024   -0.038227
-0.010293   0.0075714   -0.039526    0.029658   -0.053168   -0.079152   -0.030756
-0.013216   0.0049729   -0.036602     0.02706   -0.053817   -0.068758   -0.019388
-0.012242  0.00010078   -0.025559    0.026085   -0.052843   -0.056741  -0.0083442
-0.0099683  -0.0024977   -0.012892     0.02641    -0.04992   -0.044723 -0.00022403
-0.007045  -0.0021729  -0.0067202    0.028684   -0.047971   -0.031081   0.0039985
-0.0034721  -0.0015233  -0.0099683    0.029658   -0.046671   -0.018738   0.0062721
0.0014  -0.0047713    -0.01614    0.031932   -0.045047   -0.010293   0.0078962
0.0052977   -0.012892   -0.020037    0.037129   -0.037577  -0.0089938   0.0072465
0.0078962   -0.018738   -0.020362    0.046548   -0.024909    -0.01614   0.0046481
0.0069217   -0.022636   -0.021012    0.057917   -0.013216   -0.027183  -0.0015233
0.0043233    -0.02361   -0.022636     0.06831  -0.0083442   -0.039851  -0.0096434
0.0043233   -0.022636   -0.021986     0.07708   -0.013216    -0.04862   -0.016789
0.0091954   -0.020687   -0.019388    0.080003   -0.022636   -0.047646   -0.020687
0.016016   -0.018738   -0.011592    0.070584   -0.030431   -0.039201    -0.02361
0.019589   -0.017114  -0.0034721    0.042975   -0.031081   -0.023285   -0.022311
0.016016   -0.018738   0.0069217  -0.0063954   -0.024909  -0.0073698   -0.019063
0.0043233   -0.020362    0.019264   -0.068758   -0.015815   0.0056225   -0.013541
-0.0067202   -0.018413    0.031282    -0.12398   -0.011592    0.012768  -0.0099683
-0.011592  -0.0099683    0.039078    -0.15613   -0.013866    0.012119   -0.010293
-0.0089938    0.003024    0.038753      -0.161   -0.018413   0.0059473   -0.014191
-0.00054884    0.015042    0.028034    -0.15223    -0.02361  -0.0037969   -0.017439
0.0072465    0.021538    0.012443    -0.13469    -0.03238   -0.014191   -0.018738
0.012443    0.022837      0.0014   -0.085324   -0.045047   -0.024909   -0.017114
0.018615    0.023487   0.0026992    0.030308   -0.056741   -0.028157   -0.013541
0.027385    0.024461    0.017316     0.21058   -0.061937   -0.019712  -0.0076946
0.039078    0.024786     0.03518     0.40351   -0.060638  -0.0011985  0.00010078
0.046873    0.022188    0.046873     0.54253   -0.056416    0.016666   0.0085458
0.0433    0.013093    0.050121      0.5841   -0.055441    0.023162    0.019264
0.025436 -0.00087364    0.044924     0.52434   -0.059664    0.015692    0.029009
0.0026992    -0.01484    0.032906     0.39831   -0.068758  -0.0015233    0.035505
-0.016789   -0.025884    0.017316      0.2554   -0.077203   -0.021337    0.040052
-0.025884    -0.03303   0.0062721     0.13847    -0.07493   -0.036278    0.043625
-0.025234   -0.035628  -0.0011985    0.067011   -0.062912   -0.042774    0.042975
-0.020362    -0.03173  -0.0073698    0.037129   -0.039851   -0.044723    0.036479
-0.014516   -0.025559   -0.011267     0.02706   -0.011592   -0.045372     0.02641
-0.0096434   -0.020362   -0.017439    0.013418    0.011469   -0.047321    0.020564
-0.0050961   -0.018088   -0.029132   -0.015815     0.01894   -0.053817    0.020239
-0.0011985   -0.020362   -0.047321   -0.062587   0.0059473   -0.062912    0.021538
-0.0011985   -0.025884   -0.067459    -0.11066   -0.021986   -0.071682    0.019589
-0.0044465   -0.033679   -0.080451    -0.13112   -0.055116   -0.076229    0.015692
-0.0073698   -0.037577   -0.079477    -0.09929   -0.080127   -0.075904    0.014392
-0.0050961   -0.036278   -0.064211   -0.022636     -0.0824   -0.069408     0.01894
0.0010752   -0.026533   -0.038551    0.069285   -0.064211   -0.058689    0.029009
0.013093  -0.0099683   -0.013866     0.14432   -0.035628   -0.044073    0.039078
0.029009   0.0062721   0.0043233     0.18492   -0.007045   -0.029457    0.047847
0.042975    0.015367    0.010819     0.18589    0.014392   -0.018738    0.054344
0.050771    0.015367   0.0091954     0.15114    0.025761   -0.012242    0.058241
0.047523   0.0085458   0.0052977     0.09397    0.032582   -0.010618    0.053369
0.034206  -0.0044465   0.0062721    0.033231    0.039727   -0.013216    0.041351
0.016341   -0.019063    0.016991   -0.022961    0.045899   -0.018088    0.026085
0.00042559   -0.032705     0.03453   -0.074605     0.05207   -0.024909    0.012443
-0.0093186   -0.043099    0.048172    -0.12008    0.056617   -0.028157   0.0052977
-0.013541   -0.051219     0.05142    -0.15516     0.06019   -0.025884   0.0026992
-0.017764    -0.05804    0.043625      -0.174    0.064088   -0.022636 -0.00054884
-0.019063   -0.064861    0.022512    -0.17465    0.065062   -0.022961  -0.0067202
-0.01484   -0.068434  -0.0054209    -0.17107    0.062789   -0.025884   -0.020037
-0.0054209    -0.06616   -0.033354    -0.17627    0.064088   -0.027183   -0.032705
0.0069217   -0.051544   -0.055441    -0.19706    0.077405   -0.022311   -0.037577
0.016991   -0.027833   -0.072006    -0.21557    0.097218  -0.0096434   -0.034004
0.024786 -0.00087364   -0.084349    -0.20031     0.10469   0.0075714   -0.027183
0.031282    0.020888   -0.089546    -0.12917    0.087474     0.01894   -0.021986
0.035505    0.028684   -0.082076  -0.0057458    0.042651     0.01894   -0.018738
0.03453    0.024137   -0.060638     0.14367   -0.020687     0.01017   -0.016789
0.027709    0.012443   -0.032705     0.28268   -0.084999  -0.0063954   -0.020362
0.017316 -0.00022403  -0.0044465     0.37948    -0.13145   -0.023935   -0.025559
0.003024  -0.0096434    0.016991       0.423    -0.14769   -0.040175    -0.03173
-0.014191   -0.015815    0.031932      0.4152    -0.13632   -0.051544   -0.036927
-0.029132    -0.01614    0.042001      0.3759    -0.11098    -0.05739   -0.040175
-0.03303   -0.012567    0.049472     0.32783   -0.081751   -0.059014   -0.042449
-0.027183  -0.0060706    0.057267     0.28756   -0.051544   -0.057715   -0.040825
-0.017439 -0.00022403    0.064088     0.25637    -0.02426   -0.055766   -0.039201
-0.010618   0.0049729    0.061814     0.22584  -0.0073698    -0.04992   -0.037902
-0.0093186   0.0039985      0.0433     0.17842   -0.010618   -0.039201   -0.036927
-0.010618  -0.0031473    0.015042    0.095269   -0.035628   -0.020037   -0.036278
-0.010618   -0.010943   -0.013541   -0.016789   -0.067459   0.0036737   -0.034654
-0.0057458   -0.013866   -0.033354    -0.13437   -0.085324    0.025436   -0.029782
0.0026992  -0.0060706   -0.043748    -0.23733   -0.075904    0.036479   -0.021337
0.011144   0.0049729    -0.04992    -0.31334   -0.046347    0.037129   -0.012567
0.01829    0.014068   -0.058689    -0.35329   -0.014191    0.032257  -0.0076946
0.021538    0.016991   -0.071032    -0.35491    0.014717     0.02706  -0.0076946
0.019914    0.012768   -0.080451    -0.32471    0.033556    0.022837  -0.0073698
0.012443    0.003024    -0.08305    -0.27209    0.041676    0.022188   -0.008669
0.0020496  -0.0060706   -0.084674    -0.20355    0.042326     0.02706   -0.012242
-0.0050961  -0.0080194   -0.084024    -0.12105      0.0433     0.03518   -0.015165
-0.0050961   0.0033489   -0.075579   -0.032705    0.044599    0.042326   -0.010943
0.0017248    0.023812   -0.050244    0.046873    0.046873    0.042651   0.0017248
0.013418    0.047198   -0.011917     0.10047    0.047198    0.035505     0.01764
0.026735    0.065387    0.029983     0.11573    0.041027     0.02706    0.028034
0.032257    0.072858    0.062464    0.093645    0.028684    0.022512     0.02641
0.024461    0.069934    0.074482    0.044599    0.012119    0.021538    0.015692
0.009845    0.057592    0.065062   -0.008669  -0.0060706     0.01764  -0.0011985
-0.0015233    0.041027    0.041676   -0.050894   -0.021012   0.0062721    -0.01549
-0.0057458    0.027385    0.016666   -0.077203   -0.027508   -0.011592   -0.021337
-0.0031473    0.020239  -0.0021729   -0.086623   -0.027833   -0.028157   -0.019388
0.0046481    0.019914   -0.012567   -0.085324   -0.021986   -0.035953   -0.015165
0.012119    0.022512    -0.01549   -0.080776   -0.015165    -0.03173  -0.0076946
0.016666    0.022188    -0.01549   -0.077528  -0.0080194   -0.020362   0.0020496
0.017965    0.016016   -0.017764    -0.07493  0.00075039  -0.0034721     0.01017
0.01764    0.009845   -0.023935   -0.072006   0.0069217    0.013093    0.015042
0.016016   0.0056225    -0.03303   -0.071032   0.0091954    0.026085    0.015042
0.0085458   0.0062721     -0.0405   -0.072981   0.0078962    0.034206    0.013093
-0.0031473     0.01017   -0.043423   -0.074605   0.0039985    0.038428   0.0065969
-0.016789     0.01764   -0.041475   -0.075579 -0.00087364    0.041027  -0.0021729
-0.029457    0.024137   -0.036602   -0.075579   -0.007045    0.045574   -0.014191
-0.037577     0.02641   -0.024909   -0.075255   -0.012567    0.053694   -0.022961
-0.034654    0.023162  -0.0089938   -0.073955   -0.017114    0.058891   -0.029132
-0.025559     0.01894    0.010495   -0.069083   -0.019388    0.058566   -0.028807
-0.01614    0.014068    0.025111   -0.062262   -0.019712     0.05142    -0.02361
-0.012242    0.008221    0.030308   -0.054142   -0.020687    0.042001   -0.017764
-0.01614   0.0026992    0.027385   -0.052518   -0.019388    0.029009   -0.011917
-0.027508  0.00042559    0.016341   -0.064211   -0.014191    0.011794  -0.0093186
-0.040175  0.00075039  0.00042559   -0.088247  -0.0034721   -0.007045  -0.0096434
-0.050244   0.0020496   -0.017439     -0.1217    0.011144   -0.020687   -0.010943
-0.054792   0.0033489   -0.036927    -0.15548    0.026735   -0.024585   -0.011917
-0.052843  0.00075039   -0.050894    -0.18114     0.03453   -0.021661   -0.015165
-0.042449  -0.0067202   -0.058689    -0.18699    0.031932    -0.01614   -0.017439
-0.030106   -0.016789   -0.059664    -0.16588    0.016016   -0.011267   -0.017114
-0.021661   -0.022636   -0.054142    -0.12333   -0.011592   -0.008669   -0.010943
-0.017439   -0.023285    -0.04115   -0.073955   -0.046347   -0.012242  0.00010078
-0.017114   -0.021337   -0.021661    -0.03238    -0.08305   -0.022311   0.0065969
-0.018738   -0.021012  -0.0021729   -0.008669    -0.11261   -0.035303   0.0056225
-0.021661   -0.025884   0.0065969  -0.0089938    -0.12657   -0.046347    0.003024
-0.023935   -0.033354  -0.0021729   -0.034004    -0.12268   -0.051219   0.0056225
-0.020037   -0.039851   -0.026533   -0.074605    -0.10059   -0.048296    0.013418
-0.010618   -0.041475   -0.052843    -0.10481   -0.071357   -0.039851    0.022512
-0.0041217   -0.034329   -0.067134   -0.095717   -0.045697   -0.029132    0.026085
-0.0073698   -0.021986   -0.061613     -0.0405   -0.031406   -0.018738    0.026085
-0.01614  -0.0060706   -0.037902    0.042975   -0.033354    -0.01614    0.024137
-0.026858   0.0065969  -0.0067202     0.13782   -0.051219   -0.025559    0.019914
-0.039851    0.010819    0.021538     0.23071   -0.076229   -0.047321   0.0095202
-0.054467   0.0049729    0.042975     0.30867   -0.097666   -0.076879  -0.0037969
-0.064861  -0.0034721    0.054019     0.35901    -0.10741    -0.10611   -0.015815
-0.071357   -0.010943    0.054019     0.36908    -0.10416    -0.12495   -0.025234
-0.073955   -0.015165    0.044599     0.33563   -0.088247     -0.1308   -0.035953
-0.072656   -0.017764    0.032257     0.26547   -0.061613    -0.12398   -0.044398
-0.06551    -0.01614     0.02641     0.16608   -0.024585    -0.10676   -0.047646
-0.050244  -0.0054209    0.030308    0.047523     0.01764   -0.085324   -0.042449
-0.029132    0.013093    0.041027   -0.076554    0.055318   -0.063561   -0.030756
-0.0080194    0.032906    0.047198    -0.18536    0.078379   -0.042449   -0.012567
0.010819    0.045574    0.039402    -0.26462    0.085525   -0.024585   0.0072465
0.028359    0.051096     0.01764    -0.30132     0.07708   -0.011267    0.026735
0.04395    0.053369  -0.0083442    -0.29255    0.055643  -0.0031473    0.046223
0.055968    0.054993   -0.031406    -0.24221    0.020239   0.0026992    0.064088
0.063763    0.054344   -0.047321    -0.16425   -0.024585   0.0078962    0.082602
0.064088    0.048172   -0.051868   -0.072656   -0.069083    0.009845    0.095594
0.058891     0.03518   -0.045047    0.014068    -0.10514   0.0052977    0.095919
0.048822    0.019264   -0.033354    0.077405     -0.1256  -0.0054209    0.083251
0.036804   0.0046481   -0.019388     0.11606    -0.12787   -0.017439    0.062464
0.025436  -0.0050961  -0.0099683     0.13555    -0.11488   -0.024909    0.038428
0.013418   -0.010943  -0.0073698     0.14009   -0.097341   -0.026209    0.016666
0.0059473   -0.012892  -0.0089938     0.13522     -0.0837   -0.024585 -0.00087364
0.0043233   -0.011917  -0.0093186     0.12418   -0.076229   -0.024585   -0.013866
0.010495  -0.0093186  -0.0041217     0.11151   -0.071032   -0.026533   -0.021986
0.016016  -0.0096434   0.0062721    0.095919   -0.064536   -0.026858   -0.021661
0.014717   -0.014191     0.01829    0.075456   -0.053168   -0.026209    -0.01614
0.0036737   -0.023285     0.02706    0.051096   -0.037902   -0.027833   -0.011592
-0.012892   -0.033354    0.029009    0.026735    -0.02361   -0.032705   -0.013866
-0.030106   -0.039526    0.021863    0.003024   -0.013216   -0.038551   -0.020687
-0.044398   -0.039526    0.008221   -0.019712  -0.0063954   -0.041799   -0.033354
-0.054467   -0.037577  -0.0050961   -0.037252  0.00075039   -0.044398   -0.044073
-0.059664   -0.035953   -0.014516   -0.046996     0.01017   -0.047646   -0.050569
-0.062587   -0.034329   -0.018413   -0.048945     0.01894   -0.052193   -0.051544
-0.061937   -0.030756   -0.018088   -0.045697    0.023487   -0.053492    -0.04927
-0.056091   -0.024585   -0.016464   -0.044723    0.026735   -0.045697   -0.046022
-0.042449   -0.015165   -0.020037   -0.052843    0.033231   -0.034654   -0.045372
-0.024909  -0.0044465    -0.03173   -0.075904    0.048822   -0.028482   -0.045697
-0.012242   0.0065969   -0.051544    -0.10709    0.070909   -0.028807   -0.044723
-0.0099683    0.015042   -0.074605    -0.12463    0.084876   -0.027183   -0.038551
-0.015815    0.019914   -0.088247    -0.10449    0.079029   -0.021012   -0.025884
-0.020362    0.021863   -0.084674   -0.045697    0.048172   -0.012892   -0.011917
-0.019063    0.019589    -0.06551    0.034206  0.00075039  -0.0060706  0.00010078
-0.012242    0.014717   -0.038876     0.11118   -0.048296  -0.0028225   0.0069217
-0.0034721   0.0091954   -0.012892     0.16738   -0.085973  -0.0018481    0.010495
0.0039985   0.0023744    0.008221     0.19466    -0.10644  -0.0031473   0.0091954
0.0075714  -0.0057458    0.020564     0.19726    -0.10806  -0.0050961   0.0026992
0.0065969   -0.013541    0.018615     0.17907   -0.093769  -0.0060706  -0.0031473
0.0010752   -0.018088   0.0062721     0.14172   -0.075579  -0.0050961  -0.0031473
-0.0050961   -0.019712  -0.0076946    0.093321   -0.060313  -0.0037969   0.0033489
-0.011917   -0.018738   -0.012567    0.043625   -0.047971  -0.0024977    0.012768
-0.017439   -0.017114  -0.0073698  -0.0024977   -0.038876  -0.0011985     0.01894
-0.020687   -0.015165   0.0059473   -0.060963   -0.036602  -0.0018481    0.019914
-0.020037   -0.014191    0.021538    -0.16198   -0.032705  -0.0099683    0.013093
-0.018738   -0.011917    0.038753    -0.30424   -0.015165   -0.026533 -0.00022403
-0.016464  -0.0037969    0.062139    -0.44748    0.022837   -0.049595   -0.015165
-0.012892    0.009845    0.085525    -0.56506    0.067336   -0.076554   -0.027183
-0.0076946    0.023487    0.099492    -0.65926    0.097218   -0.099615   -0.034978
-0.0024977    0.031282    0.092346    -0.73851     0.10014    -0.11358   -0.043099
0.0036737    0.033556    0.064413      -0.796    0.079354    -0.11326    -0.04927
0.011469    0.029983    0.019914    -0.82459    0.046873   -0.099615   -0.050894
0.016341    0.025436   -0.039851    -0.81809    0.015042   -0.072656   -0.044398
0.01764    0.021863    -0.11001    -0.73786  -0.0076946   -0.036602   -0.025884
0.020239     0.01894    -0.17724    -0.51602   -0.011917   0.0049729  0.00075039
0.024461     0.01829    -0.21882    -0.10481   0.0023744    0.047847    0.029658
0.032257    0.019264    -0.21979       0.461    0.024461    0.087799     0.05142
0.040377    0.019914    -0.18439      1.0616     0.03453     0.11606     0.06019
0.050446     0.01829    -0.12463      1.5478    0.022188     0.12613    0.059865
0.061814    0.011469   -0.060313      1.7953  -0.0099683     0.11443    0.054668
0.065062  0.00075039  -0.0076946      1.7677   -0.048945    0.083251    0.046548
0.056617  -0.0093186    0.025436      1.5247   -0.085648    0.043625    0.036804
0.038753   -0.017439    0.038103      1.1814    -0.11066   0.0091954    0.025436
0.019264   -0.024585    0.036154      0.8433    -0.12203   -0.010618    0.013418
0.003024   -0.032055    0.028034     0.57144     -0.1243   -0.017114   0.0020496
-0.0063954   -0.037252    0.019264     0.37753    -0.12495   -0.013216  -0.0024977
-0.0093186   -0.036278    0.012768     0.25118    -0.11878   0.0010752  0.00042559
-0.0076946   -0.029782   0.0075714     0.17842   -0.095393    0.016666   0.0056225
-0.0041217   -0.019063   0.0043233     0.14237   -0.054792     0.02706   0.0078962
0.0033489  -0.0080194   0.0026992     0.12613  -0.0073698    0.030957   0.0095202
0.009845  -0.0018481   0.0026992     0.11898    0.032906    0.030308    0.011794
0.015042  -0.0011985   0.0049729     0.11541     0.06084    0.027709    0.016341
0.01829  -0.0044465     0.01017     0.10501    0.072208    0.023812    0.019589
0.01829  -0.0096434    0.012119    0.073507    0.061489    0.017965    0.020888
0.015692   -0.017114   0.0033489 -0.00087364    0.029983   0.0056225    0.018615
0.011469   -0.024909   -0.014516    -0.12073   -0.010618   -0.012892    0.011144
0.0065969   -0.030106   -0.030756    -0.26169   -0.041475   -0.031081   0.0020496
0.0023744   -0.030431    -0.03303     -0.3835   -0.053168   -0.043423  -0.0047713
-0.0034721    -0.02426    -0.01484    -0.45366    -0.04927   -0.044073   -0.008669
-0.010618   -0.010943    0.017965    -0.45463   -0.033679   -0.038551   -0.014191
-0.018088   0.0049729    0.054668    -0.40201   -0.014191   -0.036602   -0.023285
-0.020037    0.016991    0.081303    -0.33348  0.00042559   -0.046022   -0.035953
-0.016789    0.018615    0.090397    -0.30067   0.0049729   -0.064536   -0.048296
-0.011592   0.0088706    0.082277    -0.33607   0.0043233   -0.084349   -0.057065
-0.0083442  -0.0054209    0.063763    -0.44001   0.0026992   -0.099615   -0.063237
-0.0096434   -0.016789    0.045574    -0.58163   0.0049729    -0.10546   -0.068758
-0.011917   -0.019388    0.032582    -0.72422    0.014392    -0.10644   -0.075255
-0.015165    -0.01549    0.029983    -0.83693     0.02641    -0.10546   -0.082725
-0.019388  -0.0076946    0.032906    -0.89962    0.028359    -0.10546   -0.087597
-0.027833 -0.00022403    0.038753    -0.88727    0.012768    -0.10644   -0.089546
-0.038876   0.0046481    0.045249    -0.77034   -0.016464    -0.10221   -0.087272
-0.049595   0.0085458    0.053369    -0.53356   -0.042124   -0.090845   -0.080776
-0.050894   0.0091954    0.061165    -0.20225   -0.048945   -0.068109   -0.064536
-0.040175     0.01017    0.061814      0.1638   -0.036602   -0.030431   -0.038876
-0.021012    0.011469    0.048172     0.48341   -0.010943    0.015042  -0.0073698
0.003024    0.013093    0.021538     0.68902    0.015367    0.053369    0.020564
0.02706    0.011469   -0.017114     0.75268    0.033231    0.075781    0.041351
0.0433   0.0052977   -0.059339     0.69551    0.036804    0.087799     0.05142
0.045574  -0.0080194    -0.09994     0.56462    0.027709    0.093645    0.054668
0.031282    -0.02361    -0.13307     0.41326   0.0062721     0.09397    0.049796
0.0065969   -0.036278    -0.15483     0.28008    -0.02426    0.088773    0.040377
-0.020362   -0.042124    -0.16003     0.18167   -0.052193     0.07708    0.028034
-0.041799   -0.039526    -0.15126     0.11963   -0.071032    0.062139    0.015692
-0.053817   -0.032055    -0.13145    0.084876   -0.080451    0.042001   0.0052977
-0.050569   -0.023935    -0.10644    0.063113   -0.078827     0.01829  -0.0021729
-0.034978   -0.015165   -0.080127    0.042001   -0.068109  -0.0044465  -0.0050961
-0.01484  -0.0076946   -0.054142     0.01764   -0.050569   -0.019388  -0.0073698
0.00075039  -0.0028225   -0.031081   -0.012567   -0.030756   -0.019388   -0.010943
0.0085458  0.00010078   -0.011917     -0.0405   -0.016464  -0.0089938   -0.012892
0.0095202   0.0036737  0.00042559   -0.061613   -0.011267   0.0052977   -0.011267
0.0052977   0.0072465   0.0072465   -0.078503   -0.011592    0.014392  -0.0093186
-0.0018481    0.011144   0.0088706    -0.09182   -0.010943    0.016016  -0.0060706
-0.011917    0.014717   0.0095202    -0.10124  -0.0057458    0.010819  -0.0018481
-0.022311    0.016666   0.0075714    -0.10936   0.0046481   0.0026992 -0.00022403
-0.030106     0.01894   0.0046481    -0.11651    0.016341  -0.0080194  -0.0054209
-0.03238    0.019589   0.0010752    -0.13177    0.024786   -0.019063   -0.013216
-0.032055    0.019589  -0.0054209     -0.1688    0.029009   -0.028807   -0.021661
-0.031081    0.017316   -0.013541    -0.23506    0.030633   -0.034004   -0.029782
-0.027833    0.015367   -0.020687     -0.3338    0.031607   -0.034978   -0.034329
-0.023285    0.010495   -0.027833    -0.44846    0.032257   -0.033354   -0.030106
-0.019063   0.0056225    -0.03173    -0.54915    0.032906   -0.032705    -0.01614
-0.019388    0.003024   -0.031081    -0.59917     0.03453   -0.034329   0.0010752
-0.024909   0.0026992   -0.021337     -0.5904    0.036154   -0.037902    0.014068
-0.034654   0.0020496  -0.0054209    -0.53453    0.032582   -0.042124     0.01764
-0.046022   0.0039985    0.018615    -0.44456    0.023162   -0.044398    0.009845
-0.054142    0.010819     0.05272    -0.33185    0.015367   -0.039851  -0.0050961
-0.052193     0.02641    0.094945    -0.18829    0.023487   -0.025884   -0.020037
-0.041799    0.045249     0.13749    0.015692     0.05272  -0.0067202   -0.027508
-0.027833    0.060515     0.17257     0.26839    0.089748   0.0085458   -0.030106
-0.01614    0.063113     0.19044      0.5016     0.11183    0.013743   -0.033354
-0.011917    0.049796     0.18102     0.63997     0.10761   0.0043233   -0.034978
-0.015165    0.025111     0.14529     0.65296     0.07708   -0.012892   -0.034978
-0.020362   0.0017248    0.092021     0.55617    0.038103   -0.028482    -0.03173
-0.021337   -0.010618    0.033231     0.39149   0.0085458   -0.038876   -0.022961
-0.017439  -0.0099683   -0.020037     0.20993 -0.00054884   -0.038551  -0.0089938
-0.013216  -0.0047713   -0.058365    0.060515   0.0017248   -0.033679   0.0052977
-0.0089938 -0.00022403   -0.077853   -0.024909  0.00075039   -0.030106    0.018615
-0.0024977  -0.0011985   -0.079802   -0.038227   -0.018738   -0.031081    0.028684
0.0043233  -0.0089938   -0.070707   0.0072465   -0.058365   -0.036278    0.031607
0.0052977   -0.021661   -0.056416    0.080328    -0.10579   -0.040825    0.029333
-0.00022403   -0.032705   -0.043099     0.14886    -0.14476   -0.043748    0.025436
-0.010943   -0.036278   -0.034654     0.19271    -0.16263   -0.046347    0.022837
-0.021661   -0.030106   -0.034004     0.20311    -0.15938   -0.046347    0.022837
-0.032705   -0.019063   -0.036927      0.1755    -0.13437   -0.040825    0.026085
-0.041475  -0.0063954   -0.034004     0.11248   -0.096692   -0.027833    0.029333
-0.043099    0.003024   -0.023285    0.028359    -0.05804   -0.014516    0.029009
-0.035953   0.0075714  -0.0080194   -0.056416   -0.038551   -0.007045    0.026735
-0.021337   0.0052977  -0.0015233    -0.12463    -0.04992  -0.0083442    0.024786
-0.0015233 -0.00087364  -0.0083442    -0.16588   -0.090521   -0.019063    0.028034
0.019589  -0.0076946   -0.026858    -0.17854    -0.14444   -0.032705    0.037454
0.036154   -0.012242   -0.051219     -0.1753    -0.18764   -0.042774    0.048497
0.046223   -0.011917   -0.076229      -0.174    -0.20388    -0.04862    0.053694
0.047198  -0.0083442   -0.094743    -0.18374    -0.18959   -0.046671    0.049147
0.042326  -0.0034721    -0.10384    -0.20518    -0.15029   -0.037902    0.038428
0.03518   0.0017248    -0.10774    -0.23376   -0.095717   -0.022961    0.027385
0.032257   0.0065969    -0.11196    -0.25682   -0.035953  -0.0044465    0.019589
0.034855    0.010495    -0.12073    -0.25552    0.015367    0.015367    0.015692
0.038428    0.011469    -0.13275    -0.22337    0.040377    0.024786    0.015692
0.039078   0.0049729    -0.14411     -0.1636    0.026085    0.019264    0.017316
0.031607  -0.0060706    -0.14476   -0.078503   -0.019388   0.0017248    0.019264
0.01829   -0.014191    -0.12333    0.029333   -0.071032   -0.018088    0.022188
0.0043233   -0.010943   -0.075255     0.14789    -0.10221   -0.031406    0.027709
-0.00054884   0.0062721  -0.0073698     0.24923    -0.10026   -0.034329    0.032582
0.0049729    0.032257    0.064413     0.30867   -0.067459   -0.027508     0.03518
0.020564    0.056617     0.11963     0.32393   -0.018413   -0.021012    0.033556
0.039727    0.069934     0.14399     0.30737    0.029333   -0.018413    0.022837
0.054668    0.066037     0.13555     0.27489    0.063438   -0.016789   0.0078962
0.061814    0.049796     0.10631     0.23721    0.073507   -0.019063   -0.007045
0.057917    0.027385    0.072208     0.18979    0.057267   -0.026858   -0.019063
0.04395   0.0059473      0.0433     0.12255    0.016666   -0.039201   -0.030106
0.022512   -0.011267    0.021538    0.039727   -0.029457   -0.049595   -0.037252
0.0014   -0.021661   0.0065969   -0.036927   -0.057065   -0.052843   -0.038551
-0.010943   -0.027833  -0.0015233   -0.090845   -0.053817   -0.050894   -0.031081
-0.015165   -0.029782  -0.0011985     -0.1178   -0.025884   -0.047321   -0.018088
-0.014191   -0.027183   0.0059473    -0.11975    0.011794   -0.044073  -0.0073698
-0.013541   -0.021337    0.014068    -0.10091    0.041676   -0.041475  -0.0031473
-0.015815   -0.018088    0.021213   -0.072656    0.054668   -0.039201  -0.0093186
-0.020687   -0.019063    0.025111   -0.044073    0.049147   -0.039851   -0.020687
-0.02426   -0.023285    0.025436   -0.022636    0.030957   -0.043099   -0.034978
-0.025559   -0.031406    0.023162   -0.013866   0.0078962   -0.047971   -0.045372
-0.027508   -0.039851    0.017316   -0.016464   -0.012892   -0.052193   -0.048945
-0.029132   -0.047321   0.0091954   -0.025234   -0.028482   -0.054792   -0.048945
-0.029782   -0.052518   0.0020496   -0.030756   -0.034654   -0.055116   -0.046996
-0.030106   -0.052193  -0.0021729    -0.03173   -0.031406   -0.055441   -0.045697
-0.030756   -0.051544  -0.0044465   -0.026533   -0.025559   -0.053492   -0.043423
-0.030756    -0.04862  -0.0073698   -0.018413   -0.017764   -0.048296   -0.037252
-0.026209   -0.038876   -0.010943  -0.0099683  -0.0080194    -0.04115   -0.026533
-0.015815   -0.022636    -0.01614  -0.0037969   0.0023744   -0.031406   -0.014191
0.0020496  -0.0041217   -0.023285  -0.0011985     0.01017   -0.021337  -0.0034721
0.01829   0.0078962   -0.027833  -0.0031473    0.011144   -0.012242   0.0033489
0.024461    0.010819   -0.025234  -0.0050961   0.0069217  -0.0067202   0.0043233
0.016991   0.0065969    -0.01484  -0.0037969   0.0017248  -0.0063954 -0.00054884
0.0017248  0.00010078  -0.0034721    0.003024  -0.0028225   -0.010618   -0.008669
-0.016464   -0.007045      0.0014    0.012119  -0.0047713   -0.012567    -0.01614
-0.028482   -0.012567  0.00075039    0.018615  -0.0057458  -0.0060706   -0.020687
-0.034329   -0.017114  -0.0015233    0.020564  -0.0047713   0.0046481   -0.020687
-0.035953   -0.018413  -0.0054209    0.019914  -0.0041217     0.01017   -0.017439
-0.035303   -0.015165   -0.010293    0.022188  -0.0054209   0.0085458   -0.013216
-0.032705  -0.0080194   -0.013541    0.026735  -0.0093186   0.0020496   -0.012567
-0.027833  0.00010078   -0.013216    0.031282   -0.010943  -0.0028225   -0.018738
-0.02426   0.0039985   -0.010943    0.034206   -0.007045  -0.0044465   -0.027183
-0.023285   0.0036737  -0.0031473    0.037129  0.00075039  -0.0041217    -0.03238
-0.025559   0.0017248   0.0078962    0.040377   0.0091954  -0.0021729   -0.030756
-0.029782 -0.00087364    0.015692    0.041027    0.013743 -0.00054884   -0.022961
-0.034329  -0.0060706     0.01829     0.03583    0.013418 -0.00022403   -0.013216
-0.035953  -0.0099683     0.01764    0.029983   0.0095202  -0.0037969  -0.0060706
-0.032705   -0.011592    0.016341     0.02706    0.003024  -0.0080194  -0.0041217
-0.022311    -0.01484    0.016991    0.029658  -0.0037969   -0.008669  -0.0063954
-0.0076946   -0.019388    0.015692     0.03518  -0.0083442  -0.0050961   -0.012242
0.0052977   -0.022636    0.012768    0.037129   -0.010943    0.003024   -0.020037
0.011794   -0.024909    0.009845    0.037129   -0.012567    0.011469   -0.028482
0.0091954   -0.023285   0.0069217    0.034855   -0.011592    0.015692   -0.036278
-0.0028225   -0.019712   0.0065969    0.032582  -0.0067202    0.011794   -0.042449
-0.021012    -0.01484    0.010819    0.030633 -0.00087364    0.003024   -0.045047
-0.039201   -0.012567     0.01764    0.028034   0.0023744  -0.0063954   -0.043423
-0.050894   -0.012567    0.025761    0.025111  0.00010078   -0.013541   -0.037252
-0.052518   -0.013866    0.032257    0.022837  -0.0063954   -0.017764   -0.028807
-0.042449    -0.01549    0.032582    0.018615   -0.011917   -0.016789   -0.020362
-0.027508   -0.017439    0.025761    0.012119   -0.012567   -0.015165   -0.014516
-0.012892   -0.021337    0.014068   0.0017248   -0.010618   -0.014516   -0.015165
-0.0018481   -0.028807  -0.0041217    -0.01614  -0.0057458   -0.012892   -0.018738
0.0078962   -0.034654   -0.027183   -0.042449  -0.0018481   -0.012567   -0.020687
0.016341   -0.037252   -0.055116   -0.078827 -0.00054884   -0.014191   -0.020037
0.021538    -0.03303   -0.084024    -0.11845  -0.0011985   -0.017439    -0.01549
0.020564   -0.020362    -0.10903    -0.14606  -0.0037969   -0.013866  -0.0076946
0.017316 -0.00087364    -0.12333    -0.14769   -0.007045  -0.0044465   0.0026992
0.01829     0.01894    -0.12333     -0.1178   -0.012567     0.01017     0.01764
0.028684    0.037454    -0.11033   -0.061937   -0.020687    0.027385    0.033231
0.047523    0.050121   -0.087597    0.010819   -0.036278    0.044275    0.047847
0.065387    0.056617   -0.062262    0.088773   -0.059989    0.055318    0.058891
0.073832    0.056292   -0.038551     0.15763   -0.085648    0.057267    0.063438
0.069934    0.054019   -0.021337      0.2044    -0.10644    0.050121     0.06019
0.055968    0.053044  -0.0099683     0.22357    -0.11618    0.038753    0.050446
0.038103    0.054993   0.0017248     0.22065    -0.11521    0.025436    0.038428
0.025111    0.058891    0.013743      0.2044    -0.10676    0.009845    0.026085
0.021538    0.066686    0.024137     0.18557   -0.092469  -0.0067202    0.015692
0.024461    0.072208    0.031282     0.17062   -0.075904    -0.02361    0.009845
0.028034    0.072533    0.033556     0.15958    -0.05804   -0.039201   0.0059473
0.029009    0.067336    0.032257     0.15016   -0.038876   -0.055766   0.0020496
0.026735    0.056942    0.026085     0.13847   -0.019063   -0.067784  -0.0047713
0.020239    0.042975     0.01829     0.11606  -0.0028225   -0.068109   -0.011917
0.015692     0.02641   0.0078962    0.078055   0.0069217   -0.055441    -0.01614
0.012443     0.01017   -0.007045    0.021863   0.0072465   -0.034978   -0.015815
0.0095202  -0.0028225   -0.024585   -0.053492   0.0056225   -0.010943   -0.010618
0.0036737   -0.017114   -0.045047    -0.14411   0.0065969    0.014717   0.0033489
-0.0028225   -0.031406   -0.070058    -0.23538    0.012768    0.037454    0.022512
-0.0041217   -0.042124    -0.09994    -0.30847    0.022512    0.054344     0.04395
-0.00087364   -0.044723     -0.1295    -0.35556    0.032582    0.065062    0.060515
0.0039985   -0.039201    -0.15061    -0.38122    0.042651    0.068635    0.070259
0.0023744   -0.030756    -0.16068    -0.38512    0.045899    0.066686    0.069285
-0.0044465   -0.019712    -0.15516    -0.34225    0.038103    0.063438    0.058891
-0.010293  -0.0089938     -0.1334    -0.21005    0.020888    0.058891    0.044275
-0.011917   0.0020496   -0.092145    0.014717 -0.00022403     0.05207    0.031932
-0.0080194     0.01017   -0.039851     0.28171   -0.019063    0.042975    0.024461
-0.0024977    0.012768   0.0059473     0.50518   -0.035303    0.028684    0.021538
-0.0011985   0.0075714    0.033231     0.62081   -0.051219    0.009845    0.015692
-0.010618  -0.0011985    0.042975     0.61366    -0.06681   -0.008669   0.0056225
-0.02426   -0.008669    0.041676     0.51427   -0.077528   -0.022636  -0.0073698
-0.034004   -0.013541    0.037778     0.37168   -0.078503    -0.03303   -0.020687
-0.036602   -0.015815     0.03453     0.23169   -0.072656   -0.041475   -0.030106
-0.035303   -0.017439    0.032582     0.12385   -0.066485   -0.045697   -0.034978
-0.030106   -0.019388    0.030633    0.056292   -0.061937   -0.046671   -0.036278
-0.02426   -0.019388    0.028034    0.021538   -0.060963   -0.046996   -0.035628
-0.02426   -0.020037    0.023162   0.0072465   -0.058689   -0.050569   -0.030756
-0.034329   -0.019712     0.01829   0.0043233   -0.052843   -0.053492   -0.020037
-0.048945   -0.018088    0.015042   0.0020496   -0.039851   -0.052843  -0.0050961
-0.05804   -0.013216    0.011794  -0.0044465   -0.021986   -0.045697   0.0065969
-0.059664  -0.0044465    0.008221   -0.014516  -0.0034721   -0.034978    0.011144
-0.04992   0.0017248   0.0033489   -0.026209    0.010819   -0.027183   0.0059473
-0.034654   0.0026992 -0.00054884   -0.036602    0.018615   -0.026209  -0.0028225
-0.021661 -0.00087364   0.0010752   -0.041799    0.019914   -0.030431  -0.0093186
-0.017764  -0.0067202     0.01017     -0.0405    0.013093    -0.03303   -0.012567
-0.025559   -0.013541    0.023487   -0.037902   0.0033489   -0.031406   -0.013541
-0.038227   -0.020362     0.03518   -0.040825  -0.0044465   -0.026533    -0.01484
-0.04992    -0.02361    0.041676   -0.050569  -0.0073698   -0.023285    -0.01549
-0.060638   -0.021986    0.042975   -0.070382  -0.0034721   -0.020687   -0.012892
-0.067459   -0.015165    0.039078   -0.098965   0.0049729   -0.019063   -0.008669
-0.066485   -0.008669    0.033881    -0.13275    0.013743   -0.020037  -0.0099683
-0.05804  -0.0047713    0.025436    -0.16523    0.021213    -0.02361   -0.015165
-0.046347  -0.0034721    0.012119    -0.19836     0.03583   -0.025559   -0.022311
-0.036927  -0.0018481  -0.0044465    -0.23181    0.058566   -0.028807   -0.029457
-0.03303 -0.00022403   -0.020687    -0.26364    0.084226   -0.034004   -0.032705
-0.036278   0.0039985   -0.033679    -0.27793     0.10469   -0.039851   -0.034004
-0.046022   0.0088706   -0.039201     -0.2526     0.11378   -0.044073   -0.031406
-0.053492    0.017316   -0.035303    -0.18277     0.10794   -0.043748   -0.026209
-0.058365    0.024786   -0.020687   -0.081101    0.083901   -0.035303   -0.016789
-0.056741    0.024461   0.0010752    0.025436    0.046873   -0.023285   -0.010618
-0.051868    0.021538    0.023812     0.12028  0.00042559   -0.017764  -0.0080194
-0.047971     0.01894      0.0433     0.19434   -0.051544   -0.022961  -0.0099683
-0.048296     0.01829    0.055318     0.23851    -0.10384   -0.039201   -0.015165
-0.048945    0.014068    0.057592     0.25735    -0.14736   -0.059339   -0.020687
-0.04927   0.0072465    0.045899     0.26125    -0.16685   -0.076554   -0.025234
-0.046347  0.00010078    0.020564     0.25345    -0.15776   -0.081101   -0.025884
-0.039851  -0.0063954  -0.0089938     0.21545    -0.12787   -0.074605    -0.02361
-0.030106   -0.012892   -0.036602      0.1258   -0.096692   -0.061937   -0.014191
-0.017114    -0.01614   -0.057065  -0.0015233    -0.07428   -0.047321   0.0010752
0.0026992   -0.013866   -0.066485    -0.11001   -0.059664   -0.034329    0.020239
0.030633  -0.0050961   -0.062262    -0.14996   -0.044398   -0.022311    0.039078
0.058566   0.0046481   -0.042774    -0.11943   -0.026533   -0.011267    0.054993
0.079354    0.009845   -0.021661   -0.062262   -0.017114  -0.0021729    0.064737
0.089423    0.013093  -0.0099683   -0.019388   -0.027833   0.0023744    0.064088
0.089098     0.01764   -0.011267  -0.0054209   -0.057715  0.00042559    0.054993
0.080003    0.022512   -0.021986   -0.018088   -0.094093  -0.0067202    0.042651
0.06961    0.028359   -0.034329   -0.041799    -0.12333   -0.017764    0.029983
0.063438    0.031932   -0.038227   -0.062262     -0.1308   -0.029132    0.023812
0.059865    0.029983   -0.030756   -0.073955    -0.11456   -0.037252    0.020564
0.054344    0.023487   -0.014516   -0.077528   -0.085973   -0.039851    0.016341
0.045899     0.01764   0.0049729    -0.07493   -0.059339   -0.036278   0.0095202
0.032906    0.015042    0.023162   -0.064861   -0.040175   -0.028482    0.003024
0.016666    0.015367    0.037129   -0.050569   -0.029782   -0.019712  -0.0015233
0.0033489    0.014392    0.046548   -0.037252   -0.027183   -0.013541  -0.0054209
-0.0050961    0.009845    0.048497   -0.032705   -0.028482   -0.010618   -0.012892
-0.008669   0.0039985    0.042001   -0.042449   -0.022636   -0.010943   -0.021986
-0.0060706 -0.00054884    0.029658   -0.066485  -0.0076946   -0.012567   -0.026533
0.0020496  -0.0034721    0.010819   -0.098641    0.012443   -0.011592   -0.026858
0.010819  -0.0073698   -0.013216    -0.13275     0.03453  -0.0080194   -0.023935
0.013418    -0.01614   -0.035628    -0.15841    0.055318  -0.0041217   -0.022636
0.0088706   -0.025234   -0.048945    -0.16782     0.06831 -0.00022403   -0.021986
0.0017248   -0.029782   -0.054792    -0.15613    0.073832   0.0026992   -0.015815
-0.0011985   -0.028157   -0.057065     -0.1295    0.069934   0.0036737   -0.007045
0.0023744   -0.021012   -0.056416   -0.098316    0.061489   0.0020496  -0.0018481
0.0091954   -0.013866   -0.052193   -0.069083    0.053044  -0.0031473  -0.0015233
0.016341   -0.012567   -0.045372   -0.045697      0.0433  -0.0096434  -0.0063954
0.023812   -0.015815   -0.033354   -0.028807    0.029658   -0.018738   -0.014516
0.029009   -0.021337   -0.017764   -0.019063    0.013743   -0.028157    -0.02426
0.032257   -0.025559  -0.0018481    -0.01549  0.00010078   -0.033354   -0.029782
0.029009   -0.024909   0.0088706   -0.013866  -0.0096434   -0.034329   -0.028157
0.020239   -0.021012   0.0078962   -0.016464    -0.01549   -0.036927   -0.022636
0.0085458   -0.016789 -0.00022403   -0.019063   -0.017764   -0.043099   -0.020037
-0.0037969   -0.015815  -0.0083442   -0.018413   -0.013541   -0.051868   -0.023285
-0.011267   -0.017764  -0.0093186   -0.014191  -0.0057458   -0.060313   -0.029132
-0.013541   -0.020687  0.00042559  -0.0089938   0.0065969   -0.063886   -0.034329
-0.012892   -0.023285    0.015042  -0.0073698     0.01829   -0.062262   -0.034654
-0.011267   -0.024585    0.026085  -0.0093186    0.028034   -0.056091   -0.028157
-0.011917    -0.02361    0.028684   -0.013866    0.031282   -0.045697   -0.022961
-0.016464   -0.021986    0.023162   -0.019388    0.024786   -0.037902   -0.021986
-0.023285   -0.022311    0.017965    -0.02426    0.010495   -0.037252   -0.027833
-0.03238    -0.02361    0.015692   -0.029132  -0.0063954   -0.046022   -0.035953
-0.042774   -0.026533    0.015042   -0.030756   -0.019712   -0.055766   -0.043423
-0.051544   -0.031081    0.015042   -0.029132   -0.025884   -0.061288   -0.047646
-0.058365   -0.034004    0.016341   -0.026858   -0.021661   -0.059339    -0.04927
-0.062262   -0.033354    0.021538   -0.026858  -0.0093186   -0.054142   -0.053168
-0.060638   -0.027508    0.029333   -0.030431    0.003024   -0.051219   -0.059989
-0.054142   -0.015165    0.037454   -0.038876    0.011144   -0.050894   -0.067459
-0.042774  0.00075039     0.04395   -0.046996    0.015367   -0.050569   -0.067459
-0.026858    0.013093    0.044599    -0.04992    0.016991   -0.044723    -0.05804
-0.007045     0.01894    0.037129   -0.044398    0.019264   -0.025884   -0.036927
0.012443    0.016666    0.019914   -0.035953    0.023487   0.0052977   -0.007045
0.023162   0.0091954 -0.00054884   -0.019712    0.026735    0.042975    0.028034
0.025436   0.0020496   -0.021337    0.017316     0.02641    0.076106    0.058566
0.024786  -0.0028225   -0.043748    0.071234    0.022512    0.098193     0.07708
0.022188  -0.0067202   -0.069733     0.12255    0.012443     0.10826    0.084876
0.013418   -0.010293   -0.096042     0.14919   -0.010618     0.10631    0.084226
-0.0024977   -0.014191    -0.12105     0.13814    -0.04927    0.096569    0.074482
-0.018738   -0.016789    -0.13015     0.10014   -0.097341    0.084551    0.060515
-0.026533   -0.013541    -0.11066    0.057592     -0.1334    0.067986    0.044924
-0.021986  -0.0024977   -0.054467    0.028359    -0.13437    0.041351    0.030633
-0.011917    0.016016    0.023812    0.021538    -0.10156  0.00042559    0.013418
-0.0024977    0.031282     0.10404     0.03583   -0.051219   -0.048945   -0.011267
-0.0024977    0.040702     0.16023     0.06019  -0.0096434   -0.096367   -0.042449
-0.013216    0.040377     0.17192    0.073182    0.003024    -0.12885   -0.072981
-0.027833    0.030308      0.1336    0.049472   -0.013866    -0.13762   -0.089221
-0.039851    0.016666    0.058891   -0.019388   -0.042774     -0.1204   -0.086948
-0.042774   0.0056225   -0.017439    -0.11683   -0.063561   -0.080127   -0.065186
-0.033354      0.0014   -0.067459    -0.21817    -0.06551   -0.027508   -0.029457
-0.011917   0.0026992   -0.089871    -0.31171   -0.047321    0.029333    0.011469
0.014717   0.0095202    -0.09994    -0.40331   -0.022311    0.078379    0.050446
0.037454    0.016666    -0.10968    -0.50368  -0.0031473     0.11216    0.082602
0.052395    0.021213    -0.12592    -0.62385   0.0020496     0.12678     0.10177
0.059865    0.021213    -0.14152    -0.77164  -0.0054209     0.12158     0.10631
0.062789    0.019264    -0.15191    -0.93047   -0.020362     0.10599     0.10177
0.062464    0.022837    -0.15905     -1.0607   -0.034004    0.087474    0.093321
0.059216    0.028684    -0.16523      -1.115   -0.039526    0.067661      0.0852
0.051096    0.033231     -0.1649     -1.0471   -0.037902    0.047523    0.078379
0.036479    0.033231    -0.15613    -0.82913   -0.039201    0.025761     0.06831
0.015692    0.029009    -0.13307    -0.44943   -0.052193   0.0062721    0.051096
-0.0024977    0.029009   -0.093119    0.067336    -0.06551  -0.0067202    0.033556
-0.011267    0.032906   -0.042449     0.64354   -0.061937   -0.015165    0.020564
-0.0089938    0.038753   0.0095202      1.1801   -0.038551   -0.019712    0.012768
0.0014    0.041351    0.050771      1.5744  -0.0047713   -0.022961   0.0052977
0.010495    0.042651    0.073507      1.7463    0.023162   -0.027508  -0.0015233
0.014392    0.040702    0.078379      1.6852    0.031932   -0.032705  -0.0076946
0.013093    0.034206    0.068635      1.4439    0.020239   -0.038227   -0.015165
0.0052977    0.021213    0.048822      1.1142  -0.0015233   -0.041799   -0.025559
-0.0060706   0.0072465    0.026085     0.78321    -0.02361   -0.044723   -0.034004
-0.019063  -0.0041217   0.0069217     0.51135   -0.037252   -0.047321   -0.038227
-0.029457  -0.0096434 -0.00054884     0.32491   -0.044723   -0.048945   -0.035303
-0.034329  -0.0067202   0.0075714     0.22097   -0.050894   -0.047321   -0.033354
-0.034978   0.0017248    0.022837     0.17192   -0.056091   -0.043748   -0.037252
-0.030756   0.0091954    0.037778     0.14886   -0.054467   -0.038227   -0.046022
-0.020687    0.012768    0.047847     0.13327   -0.045047   -0.034978   -0.056091
-0.0096434    0.012443    0.049796     0.11378    -0.03238   -0.039526   -0.058689
-0.0031473    0.011794    0.045899    0.084876   -0.019063   -0.048296   -0.051868
0.00042559    0.011469    0.042651     0.05142 -0.00054884   -0.059664   -0.042449
-0.00087364   0.0095202    0.043625    0.020239    0.019589   -0.070707   -0.034654
-0.0021729   0.0065969    0.048822  -0.0024977    0.035505   -0.079152   -0.029782
-0.0018481    0.003024    0.056292   -0.017114    0.046223    -0.08305   -0.027833
0.0020496  -0.0031473     0.06084   -0.021661    0.056292   -0.081426   -0.025884
0.010819  -0.0093186    0.053694   -0.021661    0.065387   -0.076229    -0.02426
0.019264    -0.01549     0.03453    -0.02426     0.06831   -0.069733    -0.02426
0.024461   -0.019063   0.0078962    -0.04927    0.058241    -0.06551   -0.024585
0.020888   -0.019063   -0.015165    -0.10644    0.033556    -0.05804    -0.02361
0.01017   -0.021012   -0.029457    -0.19024    0.003024   -0.042449   -0.018738
-0.0021729   -0.024909   -0.035628    -0.26851   -0.018413   -0.022961   -0.012567
-0.012242   -0.028157    -0.03303    -0.30554   -0.027183  -0.0073698   -0.010293
-0.018413   -0.030756   -0.028482    -0.28476   -0.029132  0.00075039   -0.015165
-0.020037    -0.03173   -0.027833    -0.21135   -0.032705   0.0010752   -0.022636
-0.023285   -0.031406   -0.031406    -0.11651   -0.042449  -0.0047713   -0.028157
-0.026209   -0.031406   -0.037577   -0.031406   -0.058689   -0.013541   -0.031081
-0.029457   -0.028482   -0.044073    0.022512   -0.075579   -0.020037    -0.03173
-0.030756   -0.020687   -0.045372    0.042001   -0.086623   -0.024909   -0.028157
-0.033679   -0.010943   -0.038876     0.03583   -0.087597   -0.026858   -0.022636
-0.035953  -0.0037969   -0.027508    0.017965   -0.080451   -0.026858   -0.019712
-0.04115   0.0017248   -0.018413  -0.0034721   -0.068434   -0.022311   -0.020687
-0.047971   0.0052977   -0.010618    -0.02426   -0.055116   -0.014191   -0.022961
-0.052193   0.0075714  -0.0024977   -0.042449   -0.040825  -0.0060706   -0.022636
-0.053492   0.0065969   0.0078962   -0.059989   -0.025559  -0.0018481   -0.019712
-0.051219 -0.00054884    0.017316   -0.076229   -0.012892  0.00042559   -0.016464
-0.04927   -0.013866    0.020239   -0.091495   -0.007045   0.0033489   -0.013216
-0.048296   -0.026533     0.01764    -0.10449  -0.0080194   0.0036737  -0.0099683
-0.045047   -0.034978    0.012443    -0.11586   -0.012242  -0.0018481  -0.0083442
-0.034978   -0.038227   0.0088706     -0.1217   -0.012242   -0.011267  -0.0093186
-0.021012   -0.036602     0.01017    -0.12203  -0.0050961   -0.019712   -0.013541
-0.010293    -0.03303    0.014068    -0.12105   0.0020496   -0.025234   -0.016789
-0.0083442   -0.029782     0.01894    -0.12268   0.0052977   -0.027508   -0.017764
-0.013541   -0.029132    0.019914    -0.12722   0.0062721   -0.028807   -0.016789
-0.018088   -0.027833    0.016016    -0.13567   0.0056225   -0.030756   -0.013866
-0.01549   -0.022961   0.0085458    -0.14606   0.0043233   -0.029457   -0.010618
-0.0083442    -0.01549   0.0023744    -0.15841   0.0078962   -0.023285   -0.007045
-0.0031473  -0.0063954  -0.0011985    -0.16912    0.016016   -0.012567 -0.00022403
-0.0011985   0.0036737  -0.0054209    -0.17659    0.028359  -0.0018481   0.0095202
-0.0021729    0.013093   -0.013216    -0.18309    0.041351   0.0046481    0.016666
-0.0041217    0.020564   -0.025884    -0.19673    0.049472   0.0069217     0.01829
-0.0018481    0.022837   -0.040825    -0.21849    0.050771   0.0078962     0.01829
0.0052977    0.022512   -0.051544    -0.24123    0.044599    0.010495    0.017965
0.013418    0.021538   -0.056741    -0.24448    0.033881    0.011144    0.014392
0.019914    0.019264   -0.056741    -0.20778    0.016341   0.0059473   0.0059473
0.023812    0.015367   -0.050894    -0.12008  -0.0083442  -0.0054209   -0.010293
0.020239    0.010819   -0.037252   0.0046481   -0.036927   -0.021986   -0.030431
0.009845   0.0056225    -0.01484     0.13587   -0.064536   -0.042124   -0.050569
-0.008669  0.00042559    0.013418     0.24338   -0.084349   -0.062912   -0.064861
-0.027508  0.00042559    0.039727     0.30445   -0.095393   -0.079152    -0.06616
-0.037902   0.0052977    0.056942     0.31386    -0.10156   -0.088572   -0.059664
-0.037902    0.012119    0.062139     0.28528    -0.10481   -0.088572   -0.048945
-0.028482    0.020239    0.053369     0.23559    -0.10221   -0.079477   -0.036602
-0.017764    0.024137    0.033881     0.17874   -0.092794   -0.068434   -0.025234
-0.0063954    0.020564    0.010495      0.1271   -0.077203   -0.061613   -0.013216
0.0010752    0.012119  -0.0067202    0.082277   -0.062912   -0.058689   0.0010752
0.0020496   0.0023744   -0.013216    0.047198   -0.051868   -0.055766    0.012443
-0.0041217  -0.0050961   -0.011917    0.020564   -0.043099   -0.051219    0.016666
-0.013866  -0.0093186  -0.0047713   0.0010752   -0.034004   -0.043423    0.014392
-0.016464   -0.011267   0.0017248   -0.011267   -0.024909   -0.036927   0.0059473
-0.0093186   -0.016789   0.0017248   -0.022636   -0.020687   -0.034654  -0.0031473
0.0043233   -0.021012  -0.0047713   -0.042124   -0.023285   -0.035303  -0.0080194
0.015367   -0.020687   -0.017764   -0.084674   -0.030756   -0.037577  -0.0057458
0.01894   -0.017764   -0.033354    -0.15548   -0.040825   -0.035303      0.0014
0.014717    -0.01614   -0.052518     -0.2513   -0.050894   -0.029782   0.0095202
0.0072465    -0.01614    -0.07428    -0.35686   -0.061613   -0.023935    0.015042
0.00042559   -0.019063   -0.094093    -0.44521   -0.072006   -0.018088    0.016991
-0.0034721    -0.02361    -0.10676    -0.49913   -0.084024   -0.011267    0.021213
-0.0037969   -0.029782    -0.11098    -0.51894   -0.094743  -0.0050961    0.027709
-0.00087364   -0.034004    -0.10286    -0.50368   -0.095068  -0.0011985    0.033556
0.0049729   -0.031081   -0.081751    -0.43319   -0.075904   0.0010752     0.03583
0.010819   -0.017439   -0.046022     -0.2867   -0.034654   0.0036737    0.038753
