-0.088572    0.070259    0.040052     0.18946      2.2309     0.21642  -0.0063954
-0.12365     0.06019    0.028034     0.15568      2.1942     0.22129   -0.022636
-0.14411     0.03518     0.01764      0.1349      2.0318     0.20798   -0.038876
-0.15353   0.0046481    0.014392     0.12093      1.7112     0.18167   -0.050244
-0.15223   -0.021661    0.021538    0.099817      1.1977     0.15049   -0.059339
-0.13729   -0.038876    0.037454    0.061165     0.50745     0.12353    -0.06616
-0.11163   -0.043099    0.051745  -0.0031473    -0.24708     0.10242   -0.071032
-0.084349   -0.036927    0.053369   -0.092469    -0.88143    0.085525   -0.075579
-0.069408   -0.029457    0.036804    -0.19576      -1.267     0.06831     -0.0824
-0.072006   -0.029782   0.0020496    -0.30392     -1.4031      0.0433   -0.088572
-0.085648   -0.042774   -0.042124    -0.41078     -1.3962      0.0014   -0.095068
-0.10806   -0.064861   -0.086298    -0.51959     -1.3917   -0.062587    -0.10416
-0.13859   -0.091495    -0.13015    -0.64627     -1.4797    -0.15126    -0.11683
-0.1727    -0.11845      -0.174     -0.8077     -1.6282    -0.25227    -0.13242
-0.20355    -0.13437    -0.21525    -0.99186     -1.7211    -0.33835    -0.14671
-0.22044    -0.13242    -0.24318     -1.1481     -1.6392    -0.38512    -0.15321
-0.21427    -0.11456    -0.25325     -1.2114     -1.3329    -0.37927    -0.14704
-0.18277   -0.085324     -0.2474     -1.1367     -0.8496    -0.32601    -0.12755
-0.13469   -0.052193    -0.23311    -0.86616    -0.29255    -0.24448   -0.096692
-0.0837   -0.020037    -0.20745    -0.35914     0.22877    -0.15873   -0.059014
-0.034654    0.010819    -0.16425     0.31192     0.63413   -0.081751   -0.021012
0.012443    0.042651    -0.09994     0.95698     0.89202   -0.019712    0.009845
0.055968    0.076106    -0.02426      1.4172      1.0096    0.021863    0.029009
0.090072     0.10501    0.048172      1.6391      1.0216    0.042975    0.038103
0.10761     0.11963     0.10566      1.6576     0.97485     0.05142    0.042651
0.10631     0.11671     0.14237      1.5459     0.91411    0.056292    0.049796
0.092996     0.10112     0.16056      1.3711     0.86929    0.062789    0.059541
0.076431    0.082927      0.1625      1.1788     0.84395    0.074157    0.067336
0.067336     0.06961     0.15211     0.98946      0.8053      0.0852    0.071558
0.069934    0.064413     0.13457     0.81115     0.72507    0.092671    0.071558
0.075456    0.062464     0.11801      0.6416     0.59677     0.09397    0.070259
0.074482    0.061814     0.10696     0.47854     0.43892    0.094945    0.073507
0.066686    0.057917     0.10469     0.32783     0.26255    0.099492    0.083901
0.060515    0.048822     0.10631     0.19856    0.066686     0.10729    0.096244
0.065387    0.037454     0.10404     0.10047    -0.12982     0.11703     0.10599
0.084551    0.031282    0.096569    0.033231    -0.28508     0.12548     0.10729
0.10404    0.026735    0.084226   -0.011592    -0.36661     0.13035    0.097868
0.10436    0.019264    0.065387   -0.048296    -0.36271      0.1323    0.080003
0.077405   0.0078962    0.045899   -0.086298    -0.28735      0.1336    0.059541
0.031932  -0.0041217    0.032257    -0.12333    -0.16555     0.13262    0.042001
-0.012242  -0.0083442    0.026735    -0.15256    -0.03173     0.12515    0.029009
-0.036927  -0.0031473    0.032906    -0.16945    0.069934     0.11346     0.01829
-0.035628    0.009845    0.049147     -0.1714     0.10014     0.10014   0.0095202
-0.017764    0.021213    0.071234    -0.16328     0.05207      0.0852  0.00010078
0.0039985    0.020239    0.093645    -0.15613    -0.04862    0.067011  -0.0083442
0.017965   0.0039985     0.10924    -0.15808    -0.16425    0.048822   -0.016789
0.013093   -0.018088     0.10956     -0.1688       -0.25    0.033231   -0.027508
-0.013541   -0.037902    0.090397    -0.18374    -0.27534    0.027385   -0.036278
-0.048945   -0.050244    0.050121     -0.2068    -0.23831    0.036804   -0.035953
-0.078503    -0.05804  -0.0063954    -0.23571    -0.16003     0.06084   -0.022961
-0.094743   -0.062912   -0.067784    -0.26039   -0.071682    0.089748  -0.0047713
-0.097666   -0.068758    -0.11975     -0.2591  -0.0041217     0.10794    0.013418
-0.090845   -0.073306    -0.15256    -0.21979    0.020564     0.10209    0.027709
-0.067784   -0.072006    -0.15776    -0.14639   0.0043233    0.072533    0.035505
-0.021661   -0.063237    -0.13957   -0.060963   -0.040825    0.030957    0.040702
0.047523   -0.047646    -0.10709  0.00075039   -0.097991  -0.0076946    0.048172
0.12807   -0.028482   -0.072981   0.0039985    -0.15061   -0.030106    0.058566
0.19693   -0.011267    -0.04992   -0.068434    -0.18926   -0.030431    0.074157
0.23331   0.0017248   -0.042449    -0.20843    -0.21492  -0.0080194    0.087149
0.22714   0.0036737    -0.04992    -0.37862    -0.23214    0.029009    0.097543
0.18232  -0.0060706   -0.063561    -0.53518    -0.22986    0.065387     0.10534
0.11866   -0.024585   -0.077528    -0.65504    -0.18569     0.09397     0.11054
0.057917    -0.04862   -0.091495    -0.72325   -0.072981     0.10664     0.10989
0.014717   -0.074605    -0.10676    -0.72584     0.11151     0.10371     0.10469
-0.010618   -0.096692    -0.11943    -0.65179     0.34342    0.088773    0.098517
-0.025559    -0.10968     -0.1204    -0.50335     0.58183    0.069934    0.093321
-0.03173    -0.10644    -0.10091    -0.29288     0.77119    0.055968    0.088448
-0.021012   -0.083375   -0.063561   -0.048296     0.86896    0.053044    0.082927
0.0095202   -0.043099   -0.017114     0.18849     0.85857    0.055318    0.075131
0.05142   0.0020496    0.025111     0.37363     0.75398    0.056942     0.06084
0.087474    0.037129     0.05272     0.48926      0.5919    0.049147    0.039727
0.10436    0.054993    0.063763     0.53668     0.41715    0.028359    0.015692
0.09397    0.053369    0.061814     0.53603     0.26319  -0.0015233  -0.0089938
0.058241    0.039078     0.05207     0.50777     0.13749   -0.035628   -0.034654
0.0010752    0.019589    0.042975     0.46133    0.031607    -0.06681   -0.059989
-0.066485   0.0065969      0.0433     0.39734   -0.068434   -0.085973   -0.083375
-0.13015   0.0049729    0.054344     0.31906     -0.1714   -0.091495   -0.098641
-0.18017    0.011469    0.067336     0.20018    -0.28833   -0.084349   -0.099615
-0.21297    0.013743    0.075131   -0.021661    -0.43871   -0.069408   -0.084349
-0.23214   0.0056225    0.071234    -0.37115    -0.63945   -0.051219   -0.056741
-0.24286   -0.014516    0.052395    -0.78431    -0.87883   -0.038227   -0.028807
-0.24773   -0.045047    0.016991      -1.165     -1.1078     -0.0405  -0.0083442
-0.24091   -0.084024   -0.035628     -1.4625     -1.2589    -0.05804   0.0023744
-0.21362    -0.12592    -0.10059     -1.6775     -1.2822   -0.080776   0.0056225
-0.16393    -0.15581    -0.16718     -1.7915     -1.1731    -0.10026    0.003024
-0.097341    -0.15808    -0.21492      -1.712    -0.96458    -0.11553  -0.0031473
-0.026858    -0.12463    -0.22597     -1.3206    -0.70441    -0.12268  -0.0060706
0.026085    -0.05804    -0.19154     -0.5878    -0.43579    -0.11326  -0.0047713
0.039402    0.020564    -0.12235     0.35706     -0.2068   -0.090845  -0.0021729
0.0039985    0.086824   -0.047971      1.2425   -0.054792   -0.063237 -0.00087364
-0.06616     0.11736   0.0059473      1.8619    0.011469   -0.042774 -0.00054884
-0.12625     0.11248    0.021863      2.1292   0.0046481   -0.038876  -0.0034721
-0.1295    0.087799   0.0017248      2.0795   -0.049595   -0.053817   -0.008669
-0.060638    0.063763   -0.035303      1.8226    -0.12463   -0.079477    -0.01484
0.054993    0.057592   -0.055116      1.4725    -0.18277    -0.10319   -0.016789
0.169    0.075781    -0.03173      1.1119    -0.19543    -0.11651   -0.015815
0.24403     0.11054    0.038428     0.78646    -0.15288    -0.11326   -0.014516
0.26709     0.14724     0.13295     0.51265   -0.069083    -0.10059   -0.016464
0.25053     0.16575     0.21317     0.27749    0.027709   -0.086623   -0.017114
0.21707     0.15633     0.24695    0.056617     0.11054   -0.080127   -0.018088
0.18232     0.12288     0.22584     -0.1714      0.1651   -0.079802   -0.021661
0.14951    0.075456     0.16283    -0.40851     0.19044     -0.0824   -0.030756
0.10794    0.025761    0.078055    -0.62938     0.18914   -0.083375   -0.046347
0.049796   -0.019712  -0.0047713    -0.79145     0.16478   -0.083375   -0.064536
-0.021661   -0.049595   -0.070058    -0.86291      0.1323   -0.082076   -0.081101
-0.093119   -0.060963    -0.11228    -0.85252     0.11313   -0.076879   -0.092469
-0.14996   -0.055766     -0.1308    -0.78009     0.13392   -0.063561   -0.094743
-0.18666   -0.040175    -0.12787    -0.64984     0.20213   -0.044398   -0.089871
-0.20908   -0.018738    -0.10611    -0.45138      0.3025   -0.023285   -0.079802
-0.21914  0.00042559   -0.070382      -0.174     0.40708  -0.0089938    -0.06616
-0.2133    0.016666   -0.027183      0.1768     0.48601  -0.0054209   -0.051544
-0.19121    0.029009    0.017316     0.52856     0.52434   -0.014191   -0.042124
-0.15711    0.035505    0.053369     0.75008     0.52466   -0.030106   -0.038876
-0.11358    0.031282    0.071234     0.72994     0.51525   -0.043099    -0.04115
-0.073631    0.015367    0.066037     0.46068     0.54026   -0.044073   -0.042124
-0.044723  -0.0089938    0.041676    0.043625      0.6351   -0.031406   -0.036927
-0.035303   -0.037577    0.011469    -0.36726     0.79231   -0.012242   -0.029782
-0.046996   -0.062912  -0.0057458    -0.66121     0.93295   0.0036737   -0.026858
-0.077853   -0.075579   0.0059473    -0.76352     0.90924   0.0088706   -0.027833
-0.11163    -0.06616    0.054993    -0.59397     0.54935    0.003024   -0.029457
-0.12755   -0.035628      0.1258    -0.14931    -0.19478   -0.010943   -0.029132
-0.10903  0.00010078     0.19563     0.41131     -1.1205   -0.023935   -0.027508
-0.061937    0.026735     0.23948     0.85434     -1.9215    -0.03238   -0.024909
-0.008669    0.033556     0.24436      1.0226     -2.3603   -0.038551   -0.021986
0.02641    0.021863     0.20733     0.88812     -2.3648   -0.046671   -0.021012
0.035505   0.0043233     0.14074      0.5578     -2.0072   -0.055441   -0.024909
0.025111   -0.008669    0.057592     0.19044     -1.4352   -0.062912    -0.03173
0.0036737  -0.0099683   -0.019063   -0.090845    -0.79405   -0.073631   -0.039526
-0.017114      0.0014   -0.074605     -0.2487    -0.20485   -0.084999   -0.043748
-0.026533    0.024137   -0.097666    -0.29515     0.26125   -0.093769   -0.045372
-0.014191     0.05272   -0.092794    -0.25747     0.59028   -0.097991    -0.04115
0.020888    0.077405   -0.073631    -0.16555     0.79393    -0.10026   -0.033354
0.073832    0.089423    -0.05739   -0.059339     0.89267    -0.10286   -0.021661
0.13425    0.079679   -0.056416    0.019914     0.93652    -0.10351  -0.0067202
0.18004    0.046223   -0.068758    0.046873     0.99011    -0.10091    0.008221
0.19499  -0.0018481   -0.089221    0.013743      1.0957   -0.090845     0.01894
0.17517   -0.049595    -0.10514   -0.060638      1.2389   -0.072331    0.022837
0.13684     -0.0837    -0.10838    -0.15613      1.3513   -0.048945    0.020564
0.094945    -0.10124    -0.10091     -0.2526      1.3649   -0.022961    0.009845
0.057267    -0.10709   -0.088896    -0.33672      1.2607   0.0026992  -0.0037969
0.027709    -0.10579   -0.076229    -0.40169      1.0671    0.025436   -0.018738
0.0010752    -0.10124   -0.062587    -0.43969     0.83323    0.039078   -0.030106
-0.02361   -0.092469   -0.044723    -0.44359     0.60911    0.038428   -0.037577
-0.048945   -0.075255   -0.016789    -0.41273     0.42657    0.020564   -0.045372
-0.06551   -0.047646    0.022512    -0.35914     0.28398  -0.0096434   -0.062587
-0.068758   -0.019712    0.065712    -0.30262     0.13912   -0.042124   -0.088572
-0.061288  -0.0034721    0.096244    -0.26137   -0.065186   -0.065835    -0.11456
-0.050894  -0.0063954     0.10404    -0.23636    -0.36433   -0.078827    -0.12982
-0.041475    -0.02361    0.086175    -0.21622    -0.72519   -0.081101    -0.12852
-0.037902   -0.043423    0.050771    -0.18926       -1.05    -0.07428    -0.11651
-0.047321   -0.054467    0.013743    -0.15451     -1.2332   -0.059664   -0.097017
-0.065186   -0.048945    -0.01549    -0.12657     -1.2296   -0.035303   -0.072006
-0.084349   -0.029782   -0.040825     -0.1256     -1.0701  -0.0037969   -0.043423
-0.096692   -0.010618   -0.066485    -0.15418    -0.82783    0.024137   -0.015165
-0.10026  -0.0047713   -0.096692    -0.19673    -0.57059    0.033556    0.011794
-0.095068   -0.014516     -0.1321    -0.23506    -0.32016     0.01764    0.032257
-0.079477   -0.034978    -0.17107    -0.27046   -0.072006    -0.01484    0.045249
-0.056091   -0.056741     -0.2107    -0.31626     0.17452   -0.046671    0.057917
-0.021661   -0.072981    -0.23993    -0.37603     0.40708   -0.061288    0.068635
0.030308   -0.074605    -0.24903    -0.44001     0.60587   -0.050569    0.078379
0.091047   -0.060313    -0.23051    -0.48776     0.75041   -0.021986    0.088448
0.15016   -0.034004    -0.18894    -0.49945     0.83161    0.014392    0.098842
0.19661  -0.0031473    -0.13762    -0.46437     0.84915    0.053044     0.10696
0.22097    0.024461   -0.088896    -0.38967     0.81115    0.088448     0.10989
0.22162    0.045249   -0.056416    -0.30229     0.73611     0.11671     0.11183
0.20018    0.063438   -0.047971    -0.23798     0.64549     0.13555     0.11443
0.16315    0.078055   -0.064861    -0.21557     0.53961     0.15049     0.11638
0.1219    0.088773   -0.097341    -0.22337     0.39279     0.16705     0.11443
0.085525    0.091696     -0.1269    -0.22629     0.17387     0.18394     0.10989
0.055318    0.088448    -0.14314    -0.18731    -0.12917     0.18849     0.10371
0.032257    0.076755    -0.14054   -0.092469    -0.50595       0.169    0.093321
0.019589    0.058241    -0.12008    0.040702    -0.92105      0.1206    0.076755
0.01894     0.03453   -0.087272     0.17095     -1.3254    0.049472    0.057267
0.029333   0.0075714   -0.054142      0.2567     -1.6545   -0.028807     0.03518
0.05142   -0.012567   -0.027833     0.28008     -1.8416   -0.094093    0.015042
0.081627    -0.01549   -0.007045      0.2541     -1.8507    -0.13275   0.0017248
0.10534  -0.0031473   0.0069217     0.20376     -1.7048    -0.14769   -0.007045
0.10177   0.0095202    0.014068     0.15406     -1.4489    -0.14899   -0.014191
0.064737   0.0049729    0.014392     0.11768     -1.1312    -0.14964   -0.018088
0.0065969   -0.016464   0.0095202    0.099492    -0.79178    -0.15678   -0.023285
-0.04927   -0.046347  -0.0011985    0.096244     -0.4595    -0.16977   -0.025234
-0.079477   -0.069733  -0.0099683     0.10436    -0.17627    -0.18049   -0.020037
-0.076229   -0.078178  -0.0096434     0.11638    0.030308    -0.17562  -0.0080194
-0.048296   -0.065835    0.003024     0.13002     0.15341    -0.15191   0.0072465
-0.015165   -0.038227    0.023162     0.14302     0.21058    -0.11098    0.017965
0.0043233  -0.0063954    0.041027     0.15991     0.21123   -0.063237    0.017965
0.00042559    0.025761    0.052395     0.18394     0.16543   -0.019712   0.0095202
-0.022636    0.053044    0.058566     0.21772     0.10274    0.015692 -0.00087364
-0.054467    0.069934    0.065062     0.25832    0.079029    0.041027  -0.0083442
-0.086948    0.074806    0.072208     0.29925     0.15341    0.056942  -0.0060706
-0.11358    0.072208    0.074806     0.33173     0.35219    0.070259   0.0059473
-0.13275    0.067011     0.06961     0.34927     0.64387    0.084876    0.024461
-0.13794    0.061489    0.056292     0.34082     0.96283    0.097868    0.040052
-0.12235    0.058566    0.038428      0.2921      1.2457     0.10729    0.048172
-0.088247    0.058566    0.021863     0.20148      1.4585     0.10989    0.042651
-0.043099    0.057917    0.010495    0.087799       1.604     0.10924    0.024786
-0.0021729    0.053044   0.0017248   -0.014516      1.7031     0.10599   0.0065969
0.024137    0.043625  -0.0015233   -0.072331      1.7583     0.10534  -0.0028225
0.029983    0.033881   0.0026992   -0.072331      1.7628     0.10956  -0.0018481
0.020564    0.027709    0.011469   -0.022636      1.7057     0.11703   0.0085458
0.0072465    0.024786    0.024786    0.056292      1.5699     0.12418    0.024461
-0.0073698    0.021863    0.043625     0.14789      1.3308     0.12613    0.040377
-0.026209    0.016666    0.063438     0.23721     0.95828     0.11703    0.049796
-0.047646   0.0069217    0.078055     0.32036     0.42852    0.093645    0.048172
-0.06551  -0.0034721    0.089748     0.39507    -0.25227    0.055318     0.03583
-0.073306   -0.015165     0.10242     0.46263    -0.99706   0.0046481    0.017316
-0.077528   -0.026209     0.11281      0.5081     -1.6548   -0.050569  -0.0076946
-0.08305   -0.035303     0.10761     0.49576      -2.077    -0.10091   -0.035628
-0.089546   -0.042449    0.080653     0.38175       -2.18    -0.13567   -0.061937
-0.088896    -0.04927    0.037778      0.1677     -1.9799    -0.15548   -0.079152
-0.065835   -0.047321  -0.0034721   -0.076879     -1.5742     -0.1597   -0.081751
-0.013866   -0.034004   -0.021337    -0.25292       -1.09    -0.14736   -0.069733
0.056942   -0.010943   -0.011592     -0.2854    -0.65309    -0.12235   -0.052193
0.11931   0.0069217    0.013418    -0.17952    -0.34842   -0.095717   -0.037252
0.14724    0.012119    0.039727   -0.013541    -0.19446   -0.076229   -0.026858
0.12807   0.0049729    0.058566     0.10761    -0.15483   -0.063561   -0.019388
0.075781  -0.0067202     0.06084     0.11476    -0.16165   -0.051544   -0.012892
0.011794   -0.019063    0.045574   0.0075714    -0.15711    -0.03303  -0.0076946
-0.042449    -0.03238    0.014068    -0.14996    -0.11098  -0.0096434  -0.0028225
-0.080127   -0.050569   -0.027508    -0.27891   -0.026858    0.011144  -0.0031473
-0.10514   -0.069083   -0.068109    -0.32795    0.071234    0.025111  -0.0083442
-0.11651   -0.080127   -0.091495    -0.26234     0.15568     0.02706   -0.016464
-0.11033   -0.076879   -0.083375   -0.062262     0.21025    0.021538   -0.020362
-0.089546   -0.052843   -0.043099     0.24273     0.23656    0.019914   -0.012892
-0.062262   -0.018738    0.015042     0.57176     0.25378    0.027709   0.0052977
-0.038227    0.015692    0.072858     0.83875     0.27781    0.042001    0.024786
-0.022311    0.046548     0.11801     0.98524     0.31029    0.058891    0.041027
-0.013866    0.074482     0.14399      0.9768     0.33693    0.071883    0.054344
-0.0037969    0.099167     0.14756     0.83778     0.34082    0.076106    0.066037
0.012119     0.11833     0.12678     0.63737     0.31257     0.07708    0.074157
0.034206     0.12483    0.082602     0.44606     0.25702    0.080653     0.07708
0.048822     0.11703    0.027385     0.31159     0.18394    0.093321    0.076106
0.041676    0.098842   -0.020037      0.2476    0.091047     0.10989    0.071234
0.011469    0.075131   -0.046022     0.24241   -0.028482     0.11768    0.062464
-0.03303    0.047198   -0.048945     0.25995    -0.16977     0.10956    0.051096
-0.069733     0.01829    -0.04115     0.24955    -0.31724    0.082927    0.037129
-0.076879  -0.0067202   -0.034978     0.18069    -0.44489    0.039078    0.021538
-0.052843   -0.022636   -0.038227    0.061165    -0.52284   -0.011267   0.0056225
-0.013541   -0.033354   -0.045697   -0.072006    -0.53453   -0.055116  -0.0073698
0.025111    -0.04115   -0.047971    -0.17822    -0.49198   -0.082725   -0.016789
0.049796   -0.044398   -0.040825    -0.23214    -0.41955   -0.088896   -0.021337
0.055318   -0.042449   -0.023285    -0.22661    -0.34582   -0.076554   -0.018088
0.04395   -0.038227  -0.0031473    -0.17302     -0.2906   -0.055116  -0.0093186
0.022188   -0.032705    0.012443   -0.098316    -0.26299   -0.029782  0.00010078
-0.0028225   -0.028482    0.016341   -0.038227    -0.25455   -0.007045    0.008221
-0.018413    -0.02361   0.0062721    -0.02361    -0.24123   0.0062721    0.016341
-0.020037   -0.020037    -0.01484   -0.062262    -0.18569    0.008221    0.025436
-0.0067202   -0.020037   -0.034329    -0.13242   -0.058365   0.0017248    0.032582
0.012768   -0.023285   -0.043748    -0.20193     0.13295  -0.0093186    0.031282
0.028034   -0.033354     -0.0405    -0.24545      0.3431   -0.021012    0.020239
0.028684   -0.050569   -0.027833    -0.25357     0.51135   -0.033354   0.0010752
0.011794   -0.070707   -0.012567    -0.23311      0.5932   -0.045372   -0.022636
-0.015815   -0.085648   0.0010752    -0.19836     0.57761   -0.054142   -0.045372
-0.040175   -0.089221    0.011469    -0.16523     0.48699   -0.061613   -0.059664
-0.048296   -0.081101    0.017965    -0.13794     0.35804   -0.068758   -0.062912
-0.042449   -0.064861    0.024786    -0.11813     0.23461   -0.075255   -0.058689
-0.029457    -0.04927    0.031607    -0.10189     0.15081   -0.078827   -0.050569
-0.010943   -0.035303     0.03518   -0.089221     0.11638   -0.076229     -0.0405
0.012119   -0.022636    0.036804   -0.081101     0.12093   -0.065835   -0.031406
0.028359   -0.013866    0.036804   -0.073631     0.14951   -0.051544   -0.026209
0.020888    -0.01614    0.029983   -0.070382     0.18881   -0.041799   -0.028807
-0.016789   -0.030431    0.013093   -0.076879      0.2135   -0.038227    -0.04115
-0.065835   -0.053168   -0.014516   -0.094418     0.19563   -0.040175   -0.059339
-0.095717   -0.071682   -0.047971     -0.1191     0.11703   -0.044073   -0.075579
-0.090196   -0.078503   -0.077203    -0.14541   -0.022311   -0.045697   -0.085648
-0.060638   -0.071032   -0.096367    -0.16685     -0.2042   -0.038876   -0.086948
-0.03173   -0.051219    -0.09994    -0.17724    -0.39844   -0.021337   -0.077203
-0.023285   -0.025559   -0.087272    -0.17952    -0.55857   0.0043233   -0.056091
-0.042124  -0.0028225    -0.06616    -0.17757    -0.64139    0.034206   -0.032705
-0.077528    0.011144   -0.045697     -0.1753    -0.63295    0.058566   -0.015165
-0.10806    0.021538   -0.027833    -0.17562     -0.5472    0.067661  -0.0080194
-0.1191    0.035505   -0.012242    -0.17822    -0.42182    0.060515  -0.0093186
-0.10254    0.055643   0.0039985    -0.17854    -0.28021    0.045574   -0.015815
-0.062262    0.078379    0.015367    -0.17237    -0.10579    0.028684   -0.025884
-0.016464    0.099492    0.014068    -0.16653     0.13262    0.015692     -0.0405
0.024137     0.11054  0.00075039    -0.16912     0.44898   0.0052977   -0.055441
0.057267     0.10664   -0.020037    -0.18147     0.81115  -0.0021729   -0.065835
0.082602    0.093645   -0.036602    -0.18731      1.1483  -0.0089938   -0.069083
0.096244    0.076431   -0.044723    -0.16458      1.3519   -0.016464   -0.065186
0.096569    0.058241   -0.041799   -0.097991      1.2759   -0.027183   -0.057715
0.083901    0.038428   -0.024585   0.0069217     0.78711   -0.042449   -0.051544
0.062139    0.016341 -0.00087364      0.1258    -0.10091   -0.066485   -0.051868
0.036804  -0.0057458    0.022188     0.22227     -1.0984   -0.096367   -0.056091
0.020239   -0.024909    0.039727     0.27359     -1.8279    -0.12885    -0.05804
0.022837   -0.040175    0.046548     0.27489     -2.0455    -0.15548   -0.051544
0.046548   -0.048945      0.0433     0.24013     -1.7191    -0.16977   -0.034329
0.076106   -0.052843    0.028684     0.18751      -1.012     -0.1675    -0.01614
0.10112   -0.052193    0.010495     0.13555    -0.17952    -0.15386  -0.0050961
0.11736   -0.046022  -0.0044465     0.09397     0.51719     -0.1334  -0.0050961
0.12937   -0.028807   -0.008669    0.062789     0.90891    -0.11488  -0.0054209
0.13879  0.00010078  -0.0031473    0.035505     0.96023    -0.10611  0.00075039
0.13717    0.031282   0.0036737    0.003024      0.7176    -0.11326   0.0065969
0.11476     0.05142      0.0014   -0.040825     0.27164    -0.13502  0.00075039
0.075131     0.05272   -0.012892   -0.098316     -0.2474     -0.1701   -0.021986
0.026085    0.038428   -0.034329     -0.1623    -0.70441      -0.212   -0.057715
-0.028807    0.012119   -0.055766    -0.21785     -1.0227    -0.25617   -0.092469
-0.090196   -0.016789   -0.075255    -0.25422     -1.1864    -0.29482    -0.11553
-0.15061   -0.040825   -0.085324    -0.26072     -1.2192    -0.32016    -0.12008
-0.19901   -0.055116   -0.087272    -0.23798     -1.1614    -0.32503    -0.10903
-0.22337   -0.063237   -0.085324    -0.20225     -1.0513    -0.30782   -0.089871
-0.212   -0.065835     -0.0824    -0.19121    -0.88922    -0.26916    -0.06616
-0.16165   -0.064536   -0.080127    -0.23116    -0.65374    -0.21849   -0.036602
-0.074605   -0.059664   -0.075904    -0.31301    -0.33705     -0.1649  -0.0063954
0.03453   -0.052518   -0.068109    -0.39616    0.027709    -0.11098    0.020564
0.14074   -0.043423   -0.059989    -0.44781     0.36226   -0.064861    0.038428
0.2148   -0.040175   -0.053168    -0.45333     0.54026    -0.03173    0.044599
0.22747   -0.042449   -0.052843    -0.42052     0.44444   -0.013541     0.03518
0.17485   -0.046671    -0.06551    -0.37278    0.079679  -0.0041217    0.013093
0.076755   -0.040825   -0.089221    -0.33348    -0.39194   0.0046481   -0.012567
-0.032705   -0.021012    -0.11261    -0.29775    -0.73916     0.01017   -0.034978
-0.1269   0.0046481    -0.12268    -0.24091    -0.80055    0.012768    -0.04862
-0.19738    0.027385    -0.11066     -0.1308    -0.56117    0.013743    -0.04992
-0.24708    0.038428   -0.075255    0.038753    -0.14216    0.015692   -0.042774
-0.27826    0.040052   -0.021661     0.23624     0.27846    0.025111   -0.032705
-0.28735    0.038753     0.03518     0.40643     0.56267    0.041676   -0.022636
-0.27014    0.041351    0.080978     0.50777     0.66693     0.06019  -0.0083442
-0.22791    0.049147     0.10501     0.52921     0.62503    0.078379    0.012119
-0.16815    0.060515     0.11021     0.48991      0.5055    0.097868    0.034206
-0.095717    0.076106     0.10566     0.41585     0.37688     0.11703    0.051745
-0.020687    0.088773    0.097543      0.3314     0.28106      0.1336    0.065062
0.044924    0.089423    0.086824     0.25313     0.23136     0.14919    0.076106
0.095594    0.073832    0.074806     0.18784     0.22097     0.16218    0.086175
0.12775    0.044599    0.054993     0.13392     0.23234     0.17225    0.095269
0.14172    0.012443    0.027385    0.079029     0.25248     0.17615    0.099492
0.13717   -0.010618   -0.007045    0.020564     0.27749     0.17842     0.10177
0.11054   -0.019063   -0.040175    -0.03173     0.29568     0.18362     0.10534
0.070584   -0.013216   -0.062587   -0.064536     0.28528     0.19401     0.10794
0.033881   0.0023744   -0.069733   -0.069733     0.23104     0.20343     0.11086
0.0085458    0.015042   -0.059339   -0.055116     0.16218     0.20635     0.10956
-0.0050961    0.016991   -0.034978   -0.027183     0.13847     0.19856     0.10436
-0.012567    0.009845  -0.0080194      0.0014     0.21447     0.17972    0.096893
-0.012567  -0.0024977    0.011469    0.023487     0.40319     0.15406    0.088773
-0.0034721  -0.0099683    0.017965    0.030308     0.65978     0.13035    0.082602
0.013743   -0.008669    0.009845    0.024137     0.90047     0.11281    0.075131
0.036804  0.00075039   -0.011592    0.016341      1.0603    0.096569    0.066686
0.06019    0.013093     -0.0405     0.01894      1.1145     0.07708    0.059216
0.080003    0.023162    -0.06551    0.039727      1.0843    0.054668    0.047523
0.0865     0.02641   -0.075904     0.06961      1.0148    0.029658    0.028684
0.067661     0.01764    -0.07428    0.091047     0.93717   0.0033489   0.0046481
0.015367  -0.0024977   -0.063237    0.096893     0.86539   -0.023935   -0.020687
-0.059664   -0.026858   -0.043423    0.091696     0.80335   -0.047971   -0.045047
-0.13112   -0.046347   -0.019388    0.085525     0.74846   -0.059989   -0.064861
-0.17172   -0.053168   0.0026992    0.084876     0.69779   -0.054792   -0.073955
-0.16945   -0.048945    0.014392    0.086175     0.64777   -0.037252   -0.072331
-0.13599   -0.046347   0.0095202     0.07773     0.57956    -0.01484   -0.066485
-0.090845    -0.04992   -0.010618    0.051745     0.47172   0.0046481   -0.059664
-0.050569   -0.060313   -0.038876   0.0088706     0.32393    0.019589   -0.051868
-0.019388   -0.066485   -0.064536   -0.038227     0.15828     0.02641   -0.043423
0.0039985   -0.058689   -0.079152    -0.07493     0.01764    0.024461    -0.03238
0.023487   -0.035303   -0.084349   -0.089871   -0.062262     0.01764   -0.020037
0.040702  -0.0015233   -0.078503     -0.0824   -0.066485    0.013093  -0.0073698
0.060515    0.036154   -0.061288   -0.053817   -0.012242    0.016016   0.0085458
0.088448    0.072208   -0.036278   -0.012567    0.073507    0.033231    0.027385
0.12807     0.10079  -0.0080194    0.030633     0.15861    0.063763    0.048497
0.1781     0.12028    0.015042    0.065387     0.22097    0.093321    0.062464
0.22974     0.13002     0.03453    0.087149     0.25215     0.11118    0.066686
0.27034     0.13197     0.05142    0.096893       0.258     0.11411    0.063113
0.28918      0.1258     0.06896    0.099492     0.24728     0.11054    0.058241
0.28366     0.11476    0.084876     0.09462     0.22584     0.10664    0.050771
0.25832    0.097868    0.096893    0.081627     0.20018     0.10501    0.041676
0.21935    0.075131     0.10014    0.063763     0.17127    0.098517    0.030633
0.17225     0.05207     0.09462    0.045249     0.13392    0.081952    0.016341
0.11898    0.031607    0.081952    0.029658    0.083251    0.056617  -0.0047713
0.061814    0.013418    0.070584    0.017316   0.0075714    0.025436    -0.03238
-0.0037969  -0.0031473    0.063438   0.0091954    -0.12398   -0.011267   -0.058365
-0.072656    -0.02361    0.058891  -0.0054209    -0.35329   -0.056091   -0.077853
-0.13469   -0.048945    0.054019   -0.043748    -0.69076    -0.11098   -0.088247
-0.17659   -0.073306    0.040702    -0.12625     -1.0786    -0.16555   -0.092794
-0.18082   -0.088572    0.019589    -0.26072     -1.4076    -0.20875   -0.090196
-0.13957   -0.088572  -0.0099683    -0.44781     -1.5824    -0.22661   -0.080127
-0.065835   -0.075579   -0.038876    -0.66381     -1.5707    -0.21135   -0.062262
0.01894   -0.056091   -0.065835    -0.87558     -1.4057     -0.1701   -0.039201
0.088773   -0.034654    -0.08305     -1.0565     -1.1517    -0.11813   -0.016789
0.1245   -0.013216   -0.085648     -1.1702    -0.87038   -0.073631  -0.0011985
0.11736   0.0065969   -0.073306     -1.1676    -0.60274   -0.040825   0.0052977
0.075131    0.023487   -0.047971     -1.0224     -0.3718   -0.017114   0.0056225
0.016991    0.041027   -0.016789    -0.74306    -0.19154  0.00075039   0.0091954
-0.03173    0.055968    0.012119    -0.35849   -0.072981    0.012443    0.021538
-0.058365    0.065387     0.03518    0.071883    -0.01549    0.021863    0.042975
-0.058689    0.067986     0.05272     0.48471  -0.0076946    0.029009    0.067011
-0.04115    0.067661    0.063763     0.82706   -0.033354    0.031607    0.087149
-0.01614     0.06831     0.06831       1.071   -0.074605    0.029983     0.10242
0.009845    0.069285    0.065387      1.2168    -0.10254     0.02706     0.11216
0.033556    0.066686     0.05142      1.2808   -0.086298    0.025436     0.11541
0.05142    0.056617    0.028034      1.2821  -0.0060706    0.027385     0.11216
0.058566    0.041027  0.00042559       1.235     0.12905    0.032906    0.097543
0.05142    0.023812   -0.019712      1.1551     0.28756    0.042326    0.076431
0.034206   0.0072465   -0.028482      1.0596     0.43697    0.045899    0.053369
0.013093  -0.0089938   -0.025884     0.95828     0.55325    0.033881    0.030957
-0.0028225    -0.02426   -0.018088     0.85824     0.61399   0.0095202   0.0088706
-0.012892   -0.039201   -0.014191     0.75171     0.61594   -0.020687   -0.010293
-0.019712   -0.050569    -0.01484     0.63055     0.57891   -0.048296   -0.027183
-0.026858   -0.057715   -0.018413     0.49576     0.51817   -0.066485    -0.04115
-0.036278   -0.062912   -0.024909     0.36811     0.42625   -0.070707    -0.04927
-0.046347   -0.069083   -0.041475     0.25215     0.27359   -0.061288   -0.052193
-0.054467     -0.0824   -0.072006     0.12775   0.0023744   -0.046671   -0.050244
-0.055116   -0.097017    -0.10481   -0.020362    -0.43417   -0.036927   -0.045047
-0.048945    -0.10449     -0.1217    -0.15808      -1.012   -0.037577   -0.035953
-0.036602   -0.098641    -0.10903    -0.22791     -1.6139   -0.053492   -0.027183
-0.02426   -0.079152   -0.069733    -0.22207     -2.0761   -0.079152   -0.019712
-0.020362   -0.048296   -0.015815    -0.18212     -2.2794    -0.10838   -0.015165
-0.027508   -0.016464    0.034855    -0.14769      -2.194    -0.13599   -0.015165
-0.04115   0.0078962    0.067011    -0.13469     -1.8828    -0.15548   -0.018738
-0.050569    0.021538    0.070909    -0.14704     -1.4648    -0.16328   -0.024585
-0.053492    0.021538    0.045899    -0.18114     -1.0682    -0.15873   -0.029782
-0.052518   0.0069217   0.0059473    -0.22597    -0.78723    -0.14574    -0.03303
-0.052193    -0.01484   -0.029132    -0.27404    -0.63977    -0.13015   -0.030756
-0.052518   -0.033679   -0.040825    -0.32731    -0.59202    -0.11261   -0.020687
-0.050894   -0.042124   -0.025559    -0.39032    -0.60274   -0.095393  -0.0073698
-0.042774   -0.036927   0.0075714    -0.45495    -0.65406   -0.080451   0.0026992
-0.029782   -0.024585    0.044599    -0.50465    -0.72974   -0.072006   0.0072465
-0.015165  -0.0099683    0.069285    -0.52251    -0.78139   -0.071682   0.0036737
-0.0050961   0.0023744    0.072858    -0.50952    -0.73396   -0.076879   -0.007045
-0.0015233   0.0043233    0.056942    -0.48451    -0.53616   -0.081751   -0.020037
-0.0018481  0.00042559    0.030633    -0.46437    -0.20485   -0.081751   -0.029457
-0.0054209   -0.007045   0.0036737    -0.44618     0.17322   -0.078503   -0.036602
-0.018738   -0.015165   -0.018738     -0.4124     0.48764   -0.075255   -0.044073
-0.048296   -0.026533   -0.035628    -0.34614     0.66498   -0.077853   -0.052193
-0.087922   -0.040175   -0.043748    -0.24675     0.69421   -0.087272   -0.060638
-0.1243   -0.046996   -0.044398    -0.13502     0.62633   -0.099615   -0.068109
-0.14574   -0.041799   -0.041799   -0.039526     0.56234    -0.10676   -0.072006
-0.15451   -0.030106   -0.041799     0.01829     0.60327    -0.10416   -0.070058
-0.15093   -0.018738   -0.046347    0.028359     0.80043   -0.093769   -0.065835
-0.13534   -0.015165   -0.057715   -0.010618      1.1223   -0.084349   -0.065186
-0.11715   -0.019712   -0.075904   -0.081751      1.4686   -0.080451   -0.067459
-0.099615   -0.030431   -0.093119    -0.15613      1.7326    -0.08305   -0.069083
-0.084024   -0.044073   -0.095717    -0.21102      1.8554   -0.086298   -0.068758
-0.072656   -0.050894   -0.072981    -0.23538      1.8271   -0.085973   -0.063886
-0.061288   -0.042774    -0.02426    -0.23733      1.6667   -0.085648    -0.05739
-0.045372   -0.020362     0.03583    -0.25845      1.4059   -0.090196   -0.052518
-0.029457     0.01017    0.088448    -0.34322      1.1025    -0.10416   -0.054142
-0.020687    0.032257     0.11573    -0.49588     0.82414    -0.12625   -0.063886
-0.029457    0.036154     0.11346    -0.68914     0.61724    -0.14541   -0.078503
-0.05804    0.015692    0.089423     -0.9308     0.50388    -0.14801   -0.087922
-0.094743   -0.013866    0.059541     -1.2653     0.48049    -0.12852   -0.085324
-0.11845    -0.03173    0.045574     -1.6642     0.52499   -0.089546   -0.072006
-0.11975   -0.023285    0.062464     -1.9595     0.60164   -0.034978   -0.052193
-0.10481   0.0091954     0.10891     -1.9585     0.65978     0.02641   -0.037252
-0.088896    0.049147     0.16153     -1.6389     0.63705    0.080978   -0.029457
-0.090196    0.074482     0.18297     -1.1945     0.49901     0.11411   -0.025884
-0.11456    0.067986     0.14074    -0.86389     0.28593      0.1206   -0.025559
-0.15029    0.031932    0.024786    -0.72065    0.099492     0.11086   -0.023285
-0.18017   -0.012892    -0.13112    -0.59105    0.019264    0.099817   -0.018413
-0.19348   -0.043099    -0.26429    -0.19901  -0.0093186    0.095919  -0.0063954
-0.18991   -0.043748    -0.31951     0.58833    -0.17042    0.099492    0.013093
-0.17205   -0.016464    -0.27826      1.6228    -0.58001    0.093321     0.03518
-0.14736     0.01764    -0.16847      2.6106     -1.1624    0.057917    0.050121
-0.12073    0.038103   -0.047321      3.2898     -1.7152   -0.017114     0.05142
-0.087922    0.036479    0.040377      3.5308     -2.0439    -0.12008    0.038753
-0.034329    0.025436    0.078379      3.3469      -2.065    -0.21849    0.019589
0.05207    0.022188    0.071883      2.8441     -1.8269    -0.28248   0.0049729
0.16218    0.035505     0.03518      2.1766     -1.4505    -0.29547   0.0059473
0.27229     0.06084    -0.01549      1.5036     -1.0617    -0.25845    0.027709
0.35512    0.087474   -0.063886     0.94951    -0.74338    -0.18764    0.065712
0.39377     0.10242   -0.097341     0.57469    -0.52609    -0.10091     0.10924
0.38078     0.10047    -0.11163     0.36389    -0.39649   -0.013866     0.14302
0.32556    0.082927    -0.11326     0.25118    -0.31789    0.063763     0.15828
0.25215    0.048822    -0.10806     0.16965    -0.25617      0.1297     0.15698
0.18589  -0.0021729    -0.10481    0.078704    -0.19576     0.18004     0.14724
0.14172   -0.063886    -0.10384   -0.029782    -0.12787     0.21123      0.1336
0.11801      -0.123    -0.10351    -0.14087   -0.043423     0.22454     0.11898
0.10371     -0.1662    -0.10286    -0.23538    0.054993     0.22357     0.10436
0.082927    -0.18082   -0.095068    -0.30002      0.1651      0.2083    0.091696
0.049472     -0.1649   -0.079477    -0.33088     0.29665     0.17615    0.080328
0.0062721    -0.13112   -0.060313    -0.33153     0.45775     0.13262    0.064413
-0.041799   -0.092794   -0.040175    -0.31496     0.63802    0.087474    0.038753
-0.08305   -0.055766   -0.020037    -0.29255     0.81732    0.058241   0.0065969
-0.10449   -0.017439  0.00075039    -0.27079      0.9742    0.054019   -0.022636
-0.10091     0.01894    0.023162    -0.25162      1.0703    0.072533   -0.036602
-0.072656    0.051096    0.042001    -0.24156      1.0424     0.10989   -0.031081
-0.03303     0.06896     0.04395    -0.24643     0.85369     0.14919   -0.010943
0.0036737    0.070584    0.027385    -0.26559     0.51654     0.17192    0.011794
0.030957    0.063438  -0.0021729    -0.29742    0.095269      0.1664    0.024786
0.041676    0.056942    -0.03238    -0.33055    -0.30132     0.13425     0.02706
0.03453    0.057917   -0.049595    -0.35296    -0.55792      0.0852    0.020564
0.014392     0.06019    -0.04992    -0.35589    -0.61963     0.03583   0.0095202
-0.013541    0.061165   -0.039851    -0.34127    -0.52284  -0.0041217  -0.0021729
-0.049595     0.06019    -0.02361    -0.31561    -0.37505   -0.030106   -0.014516
-0.097017    0.055318  -0.0044465    -0.28573    -0.29125   -0.046996   -0.029132
-0.14899    0.043625    0.013743    -0.25845    -0.31334   -0.058365   -0.044723
-0.18731     0.02641     0.02641    -0.23863    -0.39746   -0.067134   -0.059339
-0.19998   0.0075714     0.03518    -0.22304    -0.45236   -0.068109   -0.068109
-0.18699  -0.0096434    0.041676    -0.20648    -0.40623   -0.055441    -0.06681
-0.15029   -0.023285    0.044275    -0.19154    -0.24188   -0.033354   -0.059989
-0.094743   -0.029782    0.043625    -0.18179   0.0075714  -0.0089938   -0.054467
-0.028157   -0.027833    0.041027    -0.17757     0.28236   0.0088706    -0.04927
0.045899   -0.019712    0.035505    -0.17952     0.52694    0.015042   -0.046022
0.1232  -0.0076946    0.029333    -0.18309     0.70428   0.0088706   -0.043099
0.19076   0.0036737    0.026735    -0.18374      0.7988  -0.0037969   -0.039201
0.22909    0.010495    0.024461    -0.18277     0.81374   -0.016789   -0.029782
0.22032    0.009845    0.026735    -0.18049       0.766   -0.021661    -0.01549
0.15958   0.0033489    0.028359    -0.17659       0.677   -0.016789  -0.0011985
0.066362   -0.007045    0.027385     -0.1688     0.57371  -0.0047713   0.0072465
-0.03238   -0.018088    0.024786    -0.15418     0.47464    0.009845    0.010495
-0.10741   -0.025234    0.026085    -0.13275     0.39084    0.025436    0.011144
-0.14801   -0.025559    0.033881    -0.10936     0.32588    0.036804    0.011469
-0.15386   -0.021337    0.043625   -0.092469     0.27879    0.039402   0.0046481
-0.1334   -0.015815    0.052395   -0.079152     0.24371    0.029333  -0.0067202
-0.10351   -0.010618    0.055318   -0.071032      0.2148    0.010495   -0.020037
-0.07493  -0.0089938    0.046548   -0.069408     0.18622  -0.0089938   -0.029132
-0.04992   -0.015165    0.026085   -0.072656     0.15991   -0.022961   -0.031406
-0.026533   -0.027833  -0.0021729   -0.072331     0.13132   -0.028807   -0.028482
-0.0044465    -0.04115   -0.029132   -0.064861    0.089423   -0.027508   -0.022961
0.015042   -0.049595   -0.047646   -0.051868    0.023487   -0.021337   -0.017114
0.031932   -0.053492   -0.060638   -0.038227   -0.062262   -0.017439   -0.014516
0.04395   -0.058365   -0.068109   -0.036927    -0.15126   -0.016789   -0.012242
0.05207   -0.063561   -0.062262   -0.054792    -0.21979   -0.011267   -0.007045
0.057917   -0.061288    -0.03173   -0.085648    -0.25195   0.0036737   0.0026992
0.061489   -0.046671    0.021863    -0.11358     -0.2448    0.028684    0.014068
0.053369   -0.025559    0.084876    -0.12073    -0.19608    0.057267    0.021863
0.024461  -0.0076946     0.13457    -0.10449    -0.11033     0.07708    0.024137
-0.027183   0.0036737     0.15568   -0.069733   0.0010752    0.081303    0.021538
-0.088896   0.0062721     0.14367   -0.030756     0.11638    0.067661    0.014392
-0.14216    0.003024     0.11346  -0.0083442      0.2148    0.041351   0.0039985
-0.1675 -0.00087364    0.083901    -0.02361     0.28626    0.015042   -0.007045
-0.16165  -0.0015233    0.060515   -0.093444      0.3327  -0.0050961   -0.016464
-0.1321    0.003024    0.039402    -0.22629     0.36421   -0.017764   -0.022961
-0.093769    0.010819    0.016341    -0.41435     0.38695   -0.026533   -0.025559
-0.058365    0.016341  -0.0080194    -0.62288     0.39734   -0.036927   -0.025559
-0.030106    0.016991   -0.028157    -0.80347     0.38597   -0.046022   -0.026533
-0.0034721     0.01017   -0.040175    -0.90059     0.34017    -0.04862   -0.029132
0.028684  -0.0031473   -0.045697    -0.87201     0.25183   -0.044073   -0.030431
0.068635   -0.017114   -0.050244    -0.68492     0.12743   -0.038227   -0.028482
0.11313   -0.022961   -0.044723     -0.3312  -0.0050961   -0.034654   -0.022961
0.15568    -0.01484   -0.018088     0.14886    -0.11358    -0.03173   -0.014191
0.19109   0.0049729    0.026085     0.66985    -0.18049   -0.026533  -0.0021729
0.2187     0.02706    0.067661      1.1308    -0.21914   -0.020687    0.012119
0.23429    0.042326    0.089098      1.4319    -0.26234   -0.016464    0.024786
0.23689    0.045899    0.081303      1.5208    -0.33348   -0.018413    0.031607
0.22747    0.038428    0.054019      1.4111    -0.43319   -0.026858    0.031607
0.2057    0.024137    0.021213      1.1714     -0.5446   -0.039201    0.025436
0.16575    0.011144  -0.0060706     0.88877    -0.64821   -0.045697    0.020239
0.10794   0.0062721   -0.027833      0.6299    -0.71902   -0.042449    0.016666
0.037778    0.009845   -0.044723     0.42917    -0.73137   -0.029457    0.016016
-0.029457    0.021863   -0.054467      0.2921    -0.66478  -0.0099683    0.016991
-0.075579    0.037454   -0.059339     0.19921    -0.51797   0.0069217    0.016016
-0.087922    0.049796   -0.061937     0.12775     -0.2984    0.014392    0.010495
-0.06681    0.057592   -0.063237    0.065062   -0.021337    0.010819   0.0075714
-0.021661    0.062464   -0.063886   0.0095202     0.28171  0.00075039    0.014717
0.030957    0.064413   -0.064536   -0.030756     0.57241  -0.0080194    0.029983
0.074157    0.061814    -0.06616   -0.056741     0.83128  -0.0096434    0.042975
0.097868    0.054019   -0.064211   -0.071357      1.0528  -0.0044465    0.047847
0.10177    0.046223   -0.059339   -0.075255      1.2298   0.0023744    0.045899
0.090397    0.038103   -0.051544   -0.071032      1.3256   0.0046481    0.040377
0.068635    0.025761   -0.041475   -0.062262      1.2899  -0.0060706    0.031607
0.048822    0.012443   -0.031406   -0.061288      1.0762   -0.034978    0.016991
0.036479    0.003024   -0.029457   -0.068109     0.68155   -0.079477      0.0014
0.02706  -0.0011985   -0.035628     -0.0824     0.16445    -0.12463   -0.012242
0.014068      0.0014   -0.047646   -0.096042    -0.39064    -0.15711   -0.023935
-0.0037969   0.0072465   -0.053168    -0.10254    -0.94476    -0.16815   -0.030756
-0.022311    0.016666   -0.044398    -0.10254     -1.4943    -0.15905   -0.035628
-0.037577    0.023487   -0.026858   -0.095717      -2.003    -0.13892   -0.038876
-0.043423    0.025111   -0.007045   -0.085324     -2.3729    -0.12105    -0.04115
-0.040825    0.022188    0.010819   -0.071357      -2.497    -0.11293   -0.044398
-0.033354    0.019914    0.024137    -0.05739     -2.3431    -0.11001   -0.044723
-0.02426    0.019264    0.034206   -0.045047     -1.9923    -0.10319   -0.039851
-0.01484    0.021863    0.039078   -0.036278     -1.5882    -0.09117   -0.030106
-0.008669    0.024461    0.034855   -0.034329     -1.2439   -0.076879   -0.017439
-0.0024977    0.025111    0.020888   -0.042124    -0.98894   -0.067459  -0.0093186
0.0052977    0.022512   0.0039985   -0.059664    -0.78886   -0.063886   -0.010618
0.015692     0.01764   -0.011592   -0.081751    -0.59332   -0.064861   -0.021012
0.024461    0.010495   -0.025234    -0.10319    -0.38122   -0.067459   -0.035953
0.029009   0.0026992   -0.038876    -0.11553    -0.17757    -0.06616   -0.047971
0.029333  -0.0044465   -0.050244     -0.1178   -0.022636   -0.059664   -0.051219
0.019264  -0.0089938   -0.056091    -0.11683    0.063763   -0.043423   -0.043748
-0.0050961   -0.012242   -0.057715    -0.11456     0.10177   -0.021337   -0.029457
-0.04862    -0.01614   -0.053492    -0.10384     0.13262   0.0085458   -0.013866
-0.098316   -0.019712   -0.038876   -0.079152     0.19174    0.041676 -0.00054884
-0.13599   -0.019712   -0.013216   -0.045372     0.28008     0.06831   0.0046481
-0.14639    -0.01549    0.014717   -0.022636     0.36486    0.083901   0.0036737
-0.12592  -0.0076946    0.037778   -0.029457     0.39669    0.083901      0.0014
-0.079477   0.0026992    0.051745   -0.068434     0.32166    0.076106    0.003024
-0.02361    0.011794    0.054019    -0.12463     0.10209    0.069934   0.0075714
0.023162    0.013743    0.046873    -0.18017    -0.24318    0.066362    0.015692
0.039078   0.0062721    0.032582    -0.21525    -0.63035    0.061165    0.020888
0.012119  -0.0067202    0.012768    -0.21492     -0.9649    0.051745     0.01894
-0.047646   -0.018413   -0.012242    -0.18342     -1.1887    0.034855   0.0091954
-0.11391   -0.024585    -0.04115     -0.1321     -1.2796   0.0046481  -0.0083442
-0.161   -0.024585   -0.069083   -0.080127     -1.2345    -0.04115   -0.030756
-0.17724   -0.020037   -0.092145   -0.043423     -1.0552   -0.096042   -0.050244
-0.16847   -0.018413    -0.10579   -0.030431    -0.74078    -0.15288   -0.060313
-0.14834   -0.022636    -0.11261   -0.027183    -0.31399    -0.21005   -0.060963
-0.1334   -0.033354    -0.11293  -0.0047713     0.16835    -0.27079   -0.055116
-0.13372   -0.056741    -0.10514    0.053369     0.62243    -0.33997   -0.053817
-0.14834   -0.092145   -0.089871     0.13652     0.98784    -0.40753   -0.064211
-0.16393    -0.12885   -0.065835        0.22      1.2327     -0.4582   -0.080451
-0.16555    -0.15646   -0.037577     0.28268      1.3519    -0.47542   -0.092794
-0.14411    -0.16425    -0.01614     0.30802      1.3662    -0.45333   -0.096042
-0.10449    -0.14736  -0.0076946      0.2921      1.3217    -0.39519   -0.088896
-0.062912    -0.10968   -0.015815     0.24013      1.2633    -0.31399   -0.075904
-0.03173   -0.061288   -0.036278     0.16056      1.2191    -0.22304   -0.059664
-0.0073698   -0.015165   -0.064211    0.070584      1.1973    -0.13599   -0.039851
0.021213    0.016666    -0.09117   -0.010618      1.1902   -0.056741   -0.017764
0.06084    0.033231    -0.10741   -0.064536      1.1785     0.01017   0.0033489
0.10859    0.039078    -0.10871   -0.084999      1.1437     0.06084    0.019264
0.15926    0.041027   -0.098316   -0.076229      1.0746    0.091047    0.028684
0.20408    0.042975   -0.079802   -0.051544     0.97647     0.10339    0.031282
0.23169    0.047847   -0.059339    -0.02361     0.85954     0.10079    0.028034
0.22877    0.053369    -0.04115   0.0010752     0.73287    0.091696    0.023487
0.19304    0.054993   -0.028157    0.017316     0.59287    0.080003     0.01829
0.12743     0.05142   -0.021661    0.025436     0.44769     0.06896    0.012443
0.042001    0.039727    -0.01549    0.027385     0.30802    0.062464   0.0059473
-0.046996    0.020564  -0.0041217    0.026735     0.19336    0.063438  0.00075039
-0.11358   0.0017248    0.013743    0.028684     0.12872    0.075456   0.0023744
-0.14087   -0.008669     0.03583    0.030308     0.12613    0.094945    0.013093
-0.1282   -0.012242    0.056617    0.030957     0.17647     0.11768    0.028359
-0.090845   -0.011267    0.070259    0.032257     0.24468     0.13782    0.042001
-0.050894  -0.0080194    0.073507    0.037129     0.28723     0.15341    0.050771
-0.021337  -0.0028225    0.070909    0.040377     0.27586     0.16445    0.057267
-0.0037969   0.0023744    0.066362    0.039078     0.19596     0.17452    0.065387
-0.00022403   0.0085458    0.062464    0.032257    0.039727     0.18199    0.074806
-0.0050961    0.013743    0.061165     0.01764     -0.2068     0.18816    0.081627
-0.011917     0.01764     0.06084   -0.007045    -0.55629     0.18816    0.080653
-0.020687     0.01894    0.058891   -0.052193    -0.98472      0.1768    0.072208
-0.025884    0.014717    0.053044     -0.1191     -1.4105     0.15796    0.059216
-0.017764   0.0026992    0.040702    -0.20096     -1.7292     0.13782    0.047523
0.0049729   -0.017764    0.019914    -0.28313      -1.861     0.12223    0.041351
0.033231   -0.043423  -0.0050961    -0.35686     -1.7724     0.11573    0.040377
0.050121   -0.069733   -0.028807    -0.42994     -1.4843     0.12158    0.043625
0.053369   -0.090845   -0.050244    -0.51245     -1.0666     0.13457    0.049147
0.047523    -0.09994    -0.07428    -0.61476    -0.60534     0.15146    0.056617
0.039727   -0.093119    -0.11001    -0.71837      -0.161     0.16705    0.059541
0.032906   -0.078178    -0.14834    -0.72584     0.24468     0.17907    0.052395
0.024137   -0.059664    -0.16393    -0.52251     0.62113     0.18751    0.038753
0.0091954   -0.038551    -0.13047    -0.11098     0.97842     0.19336    0.023162
-0.017114   -0.013541   -0.045697     0.37103      1.3149     0.19401    0.009845
-0.054142    0.014392    0.063113      0.7634      1.6189     0.18751  -0.0018481
-0.085324    0.046548     0.15601     0.98037      1.8606     0.17874    -0.01614
-0.096692    0.081303     0.20343      1.0073      1.9938     0.16998   -0.027833
-0.0837     0.11151     0.20083     0.88812      1.9321     0.16088   -0.031406
-0.054142     0.11963     0.16088     0.69032      1.5455     0.14691   -0.026533
-0.021986     0.10047     0.10274     0.47627     0.78061      0.1232    -0.01484
0.0036737    0.059865    0.042975     0.28983    -0.20225    0.088124 -0.00022403
0.01764    0.013743  -0.0067202     0.14724     -1.0763    0.043625    0.010495
0.020239   -0.020362   -0.038227    0.047847      -1.596  -0.0044465   0.0069217
0.015042   -0.036927   -0.047646   -0.020037     -1.7061   -0.053817   -0.010943
0.0017248   -0.040175   -0.037902    -0.06551     -1.4839    -0.10156   -0.035953
-0.020037   -0.037902   -0.020362   -0.094743     -1.0636    -0.14476   -0.057065
-0.045047   -0.036602  -0.0099683    -0.10741    -0.57968    -0.18049   -0.070382
-0.06616   -0.037577   -0.012892    -0.10806    -0.13729    -0.20388   -0.076879
-0.084999   -0.039201   -0.021661    -0.10351     0.18102    -0.21362     -0.0824
-0.10384   -0.039851   -0.026209   -0.097341     0.33887      -0.212   -0.093769
-0.12495   -0.038227   -0.018088   -0.093769     0.35414    -0.19933    -0.10806
-0.14899   -0.030756  -0.0037969    -0.09117     0.27586    -0.18114    -0.11943
-0.16782   -0.017439   0.0049729   -0.089221     0.15926    -0.16035    -0.12203
-0.16458   0.0020496   0.0059473   -0.085648    0.048497    -0.13664    -0.11066
-0.12917    0.026735 -0.00022403   -0.073306    -0.03173    -0.10806   -0.086623
-0.06551    0.053694  -0.0060706   -0.051544   -0.073306   -0.073306   -0.054142
0.011144     0.07708  -0.0063954   -0.028807     -0.0824   -0.037577   -0.021012
0.081303    0.092346      0.0014   -0.010943   -0.067784   -0.010293   0.0065969
0.13522     0.09397    0.011794  -0.0037969   -0.039526   0.0052977    0.024137
0.1729    0.082602    0.023487  -0.0060706  -0.0024977    0.011794    0.030633
0.19693    0.065062    0.031282   -0.013541    0.032906    0.011469    0.029009
0.20538    0.047523    0.032257   -0.020362    0.062789   0.0088706    0.024137
0.19888    0.036804    0.026735   -0.026533    0.084226  0.00042559    0.017965
0.18297    0.032906    0.012119   -0.036602    0.096244   -0.013216    0.013418
0.1651    0.031932   -0.012892   -0.056416     0.10014   -0.030431    0.011144
0.14626    0.031932   -0.040175     -0.0824     0.10989   -0.045697    0.011794
0.1245    0.037129   -0.061613    -0.10709     0.13392    -0.05804    0.012443
0.095919    0.048497   -0.072656    -0.12398      0.1729   -0.070058   0.0088706
0.057917     0.06084   -0.073955     -0.1321     0.22324   -0.080451  0.00042559
0.0088706    0.067986   -0.065186     -0.1269     0.28106   -0.085648  -0.0096434
-0.046671    0.062139   -0.046671    -0.10871      0.3418   -0.084024   -0.014516
-0.10514    0.042975   -0.025884   -0.082725     0.39604   -0.077203   -0.012892
-0.15483    0.015042   -0.007045   -0.052193     0.43145   -0.068434  -0.0041217
-0.18374   -0.012567   0.0075714    -0.02426     0.44054   -0.061288   0.0059473
-0.18829   -0.033354    0.015692  -0.0050961     0.42657   -0.056416   0.0088706
-0.17757   -0.044723    0.016016    0.003024     0.39864   -0.055116   0.0046481
-0.16328   -0.046996    0.013093   0.0010752     0.36778   -0.059989  -0.0047713
-0.15743   -0.044723    0.011469   -0.011267     0.33628   -0.069083   -0.013216
-0.1597   -0.039851    0.016666   -0.032055     0.29633   -0.077528    -0.01484
-0.15548   -0.036927    0.028034   -0.056091     0.23786   -0.083375   -0.011267
-0.13437   -0.037252    0.037454   -0.081101     0.15309   -0.085648  -0.0063954
-0.090196   -0.040825    0.042975    -0.10221    0.037454   -0.084674  -0.0031473
-0.024585   -0.047321    0.050771    -0.10838    -0.10351   -0.079477  -0.0011985
0.055318   -0.055441    0.063113   -0.095393    -0.26754   -0.069733   0.0052977
0.13002   -0.060313    0.075781   -0.078178    -0.44391   -0.059989    0.015042
0.17777   -0.054792    0.075131   -0.079152    -0.61801   -0.052193    0.020564
0.18849   -0.042124    0.051096    -0.10644    -0.76677   -0.047646    0.014717
0.17095    -0.02426  -0.0015233    -0.15256    -0.86096   -0.042774   0.0017248
0.14594  0.00042559   -0.074605    -0.21005    -0.87655   -0.034329  -0.0031473
0.1323    0.034206    -0.14931    -0.26527    -0.80542   -0.020362   0.0056225
0.1284    0.071558    -0.19998    -0.28183    -0.66218  -0.0011985    0.026735
0.12028     0.10177    -0.20323     -0.2016    -0.48581     0.01829    0.050771
0.092021      0.1206     -0.1597  -0.0076946    -0.31789    0.033881    0.072208
0.042975     0.12807   -0.084999     0.22779    -0.21037    0.042975    0.091372
-0.014516     0.12678  -0.0011985     0.40903    -0.21817    0.042651     0.10826
-0.057715     0.12028     0.06831     0.48471    -0.35686     0.03583     0.12255
-0.068758     0.11216     0.10924      0.4597    -0.56734    0.022512     0.13327
-0.040175     0.10631     0.11963     0.38045    -0.75703   0.0078962     0.13814
0.01764     0.10242     0.10924      0.3051    -0.84083  -0.0031473     0.13522
0.081627     0.10112    0.089423     0.26709    -0.77749  -0.0034721     0.12385
0.13002    0.098193    0.069934     0.27196     -0.5943   0.0069217     0.10274
0.14659    0.090722    0.054344     0.30022    -0.35751    0.021213    0.077405
0.13002     0.07773    0.045899     0.32783    -0.14216    0.030633    0.055318
0.088124    0.062464    0.043625     0.33563 -0.00087364    0.032906    0.040377
0.036154    0.047198    0.046223     0.31516    0.047523    0.033231    0.031932
-0.013866    0.029333     0.05272     0.26839    0.038753    0.042326    0.027709
-0.05739   0.0075714    0.057592     0.20895    0.031607    0.067011    0.022837
-0.09117   -0.021337    0.053044     0.14821     0.08585     0.10501    0.016991
-0.11033   -0.053817     0.03518    0.093321     0.23916     0.14464    0.011794
-0.11066   -0.085324   0.0078962    0.048822     0.47822     0.17582   0.0078962
-0.094093    -0.10709   -0.026533    0.011144      0.7543     0.18914   0.0049729
-0.065835    -0.11358   -0.062587   -0.028157      1.0193     0.18069  0.00010078
-0.034004    -0.10546   -0.094418   -0.071682      1.2418     0.15309   -0.010293
-0.0047713   -0.086623    -0.11456    -0.11618       1.389     0.10956   -0.025884
0.026735   -0.060638     -0.1178    -0.15418      1.4127    0.057267    -0.04115
0.063113   -0.029132    -0.11001    -0.18082      1.2522   0.0033489   -0.052843
0.097543  0.00075039   -0.095393    -0.19478     0.85012   -0.045697   -0.063561
0.11833    0.023812   -0.075904    -0.19966     0.20083   -0.089871   -0.073955
0.10956    0.032906   -0.059339    -0.19771    -0.59397    -0.13404   -0.084999
0.06019    0.026735   -0.051868    -0.19413     -1.3456    -0.17789   -0.091495
-0.022961   0.0088706   -0.053492    -0.19511     -1.8981    -0.22109   -0.095717
-0.11651   -0.012892   -0.059989    -0.19316     -2.1595    -0.26299    -0.10189
-0.19381    -0.03303   -0.069083    -0.17042     -2.1222    -0.30782    -0.11066
-0.23603   -0.050244   -0.080776    -0.12495     -1.8474    -0.35361     -0.1191
-0.24091   -0.065835   -0.097017     -0.0824     -1.4638    -0.40071     -0.1282
-0.2107   -0.076554    -0.11456   -0.078503     -1.1013    -0.44131    -0.13307
-0.15613   -0.080451    -0.12365    -0.12398    -0.81387    -0.46762     -0.1282
-0.089546   -0.072331    -0.11326    -0.19641    -0.55792    -0.46697    -0.11066
-0.020687    -0.04992   -0.083375    -0.25877    -0.26072    -0.43059   -0.084999
0.042001   -0.019063   -0.038227    -0.28476     0.10826    -0.36141   -0.062262
0.088773     0.01017   0.0085458    -0.26754     0.49608    -0.27501   -0.051219
0.10794    0.028034    0.039078    -0.22174     0.80887    -0.19251   -0.055441
0.096244    0.031282    0.046223    -0.16718     0.96575     -0.1256   -0.067784
0.054344     0.01764    0.036804    -0.11456     0.91833   -0.071682   -0.078827
-0.0067202  -0.0080194    0.021863   -0.074605     0.64354   -0.024585   -0.083375
-0.066485   -0.035628    0.008221   -0.056741      0.1625    0.017965   -0.080776
-0.10741   -0.059989 -0.00087364   -0.058689      -0.428    0.048822   -0.070058
-0.11813   -0.081751  -0.0089938   -0.073306    -0.95548     0.06084   -0.055766
-0.10156    -0.10221   -0.019712   -0.088896     -1.2563    0.054993   -0.037902
-0.06551    -0.11845   -0.032055   -0.095717      -1.254    0.039402   -0.020687
-0.023935    -0.12755   -0.041799   -0.088247    -0.99089    0.026735  -0.0057458
0.0095202    -0.12755   -0.044723   -0.071032    -0.58618    0.019914   0.0020496
0.032582    -0.11683   -0.039526   -0.046671     -0.1688    0.022188      0.0014
0.041351   -0.095717   -0.029457   -0.020687     0.16998     0.03518  -0.0073698
0.033231   -0.070707   -0.022636  0.00042559     0.39702    0.056617   -0.019712
0.0039985   -0.053817   -0.024909    0.011144     0.52629    0.081303   -0.028482
-0.047646   -0.054467   -0.031081    0.010819      0.5867     0.10696   -0.028157
-0.11326    -0.06681   -0.037902   0.0056225     0.60457     0.13295   -0.021661
-0.17335   -0.082076   -0.037252   0.0043233     0.59255     0.15568   -0.013866
-0.2068   -0.085973   -0.027183    0.013743     0.56104      0.1729  -0.0073698
-0.20388   -0.078503   -0.011592    0.032906     0.52369     0.18394   0.0017248
-0.16523   -0.061937   0.0052977    0.058891      0.5003     0.18914    0.013743
-0.10319   -0.042774     0.01894    0.082277     0.51687     0.18524    0.028359
-0.04115   -0.026533    0.024461    0.096244      0.5893     0.17127    0.039402
0.0036737   -0.018738    0.020564    0.097543     0.70786     0.15081    0.044924
0.030957   -0.018738    0.012443    0.092021     0.83453     0.12645    0.047523
0.053369   -0.024585    0.010495    0.079029     0.91638     0.10469    0.051096
0.080653    -0.03238     0.01764     0.05142     0.90112    0.084551    0.056292
0.10826   -0.036278    0.028359   0.0010752     0.77217     0.06831    0.057592
0.11898   -0.037252    0.033881   -0.075255     0.56299    0.057917    0.051745
0.10242   -0.038876     0.02641    -0.17659     0.33173    0.050771    0.039727
0.064413   -0.042774   0.0075714    -0.28183     0.13165    0.042651    0.028034
0.022188   -0.045697   -0.017764     -0.3731   -0.017439    0.031607    0.021538
-0.0047713   -0.042774   -0.038551    -0.45236    -0.11845    0.016016    0.025111
-0.007045   -0.034329   -0.045047    -0.52154    -0.18374  -0.0057458    0.039078
0.0091954   -0.021661   -0.030431    -0.55759    -0.20453   -0.030431    0.056942
0.035505  -0.0015233   0.0036737    -0.51797    -0.14736    -0.04862    0.069285
0.062464    0.028684    0.051096    -0.37473    0.009845   -0.050894    0.072533
0.087149    0.061165     0.10404    -0.13697     0.25215   -0.034004    0.072208
0.10534    0.085525     0.14724      0.1297     0.50777  -0.0054209    0.074482
0.11508    0.095594     0.16478      0.3457     0.70104    0.023812    0.076755
0.11995    0.091047     0.15471     0.47789     0.80205     0.04395    0.074157
0.11638    0.079029     0.12385     0.54643     0.82674    0.056617    0.067661
0.10826    0.065387    0.084551       0.588     0.81634    0.066362    0.057267
0.093645    0.052395    0.049796     0.63737     0.80043    0.075781    0.045249
0.075456    0.039727    0.024461     0.71695     0.79945    0.084226    0.033881
0.056617    0.032257   0.0072465     0.82251     0.82251    0.089748    0.026735
0.036804    0.027709  -0.0063954     0.92418     0.85564    0.092671    0.024786
0.019589    0.020888    -0.01614     0.99076     0.83583    0.090722    0.031282
0.0043233   0.0062721   -0.025884      1.0002     0.66336    0.083901    0.039078
-0.0096434   -0.014191   -0.037577     0.95211     0.26255    0.071234    0.040702
-0.019712   -0.033354   -0.050569     0.85987     -0.3299    0.052395    0.036154
-0.020037   -0.045047   -0.061288     0.73417    -0.93469    0.034206    0.029983
-0.010943   -0.042774   -0.059014     0.57501     -1.3388    0.019589    0.027385
0.0075714   -0.022636    -0.04115     0.37623     -1.3988   0.0095202    0.026085
0.029333   0.0078962   -0.018413     0.14237     -1.1185   0.0036737    0.023487
0.053694    0.036154  -0.0083442   -0.097017    -0.65146  -0.0015233    0.016016
0.06896    0.054019   -0.018088     -0.2971    -0.22661   -0.007045 -0.00087364
0.073507    0.057267   -0.042449    -0.42345   -0.039201   -0.012242   -0.020362
0.070584    0.049147   -0.071682    -0.46372    -0.17724   -0.015815   -0.034654
0.063763    0.028034   -0.093444    -0.43482    -0.57968   -0.020687   -0.042124
0.05142  -0.0024977    -0.10319    -0.36661     -1.0822   -0.028807   -0.046671
0.03453   -0.030431   -0.096692     -0.2932     -1.5083   -0.038551   -0.049595
0.013418   -0.046347   -0.075579    -0.24091     -1.7376   -0.047321   -0.048945
-0.0057458   -0.043423    -0.04927    -0.22337     -1.7269   -0.053168   -0.045697
-0.014191   -0.024585   -0.029132       -0.25     -1.5064   -0.050894   -0.042774
-0.0073698   0.0033489   -0.020362    -0.32828     -1.1721   -0.042774   -0.038876
0.0056225    0.030957   -0.022311    -0.44521    -0.84342   -0.036927   -0.037252
0.013418    0.049796   -0.033354    -0.56279    -0.61314   -0.039201   -0.042124
0.0095202    0.055643   -0.046671    -0.65536     -0.5066   -0.050569   -0.055116
-0.0063954     0.05272   -0.053492    -0.73591    -0.48776   -0.061937   -0.067784
-0.033679    0.049147   -0.044398    -0.81549    -0.47964   -0.058689   -0.073631
-0.062262     0.05272  -0.0080194    -0.82264    -0.40396   -0.035303    -0.06551
-0.080776    0.066037    0.059216    -0.60989     -0.2172  0.00042559   -0.039851
-0.085973    0.089423     0.14302    -0.11261    0.074157    0.038753  -0.0054209
-0.081426     0.11151      0.2122     0.53506     0.41423    0.063763    0.021213
-0.069408      0.1206     0.23721      1.0892     0.72442    0.067336    0.029658
-0.059664     0.10924     0.20765       1.361     0.91119    0.048497     0.01894
-0.061288    0.078055     0.13002      1.2798     0.85175    0.015042  -0.0037969
-0.082076    0.031607    0.026735      0.9258      0.4701   -0.022311   -0.030106
-0.11521   -0.019063   -0.072981     0.47659     -0.1191   -0.057715   -0.052518
-0.14281   -0.059014    -0.13924     0.10859    -0.64269     -0.0837   -0.066485
-0.14964    -0.07493    -0.16263   -0.089871    -0.83888   -0.097341   -0.073955
-0.13632    -0.06551    -0.14801     -0.1321    -0.59495   -0.094418   -0.076879
-0.11456   -0.041475    -0.11228    -0.09182    0.016991   -0.079152   -0.072006
-0.096042   -0.015815   -0.073631   -0.043099     0.79198   -0.054142   -0.059339
-0.086298  0.00075039   -0.047646   -0.032705      1.4806   -0.026858   -0.044723
-0.084024   0.0069217   -0.039526   -0.067784      1.9148  -0.0067202   -0.038551
-0.0837   0.0049729   -0.042774    -0.12885      2.0535   0.0020496   -0.041475
-0.080451 -0.00054884    -0.04927    -0.18894      1.9678  0.00010078   -0.045697
-0.070707  -0.0063954   -0.052843    -0.23441      1.7924   -0.007045   -0.045047
-0.056741   -0.010943   -0.046671    -0.26234      1.6602   -0.016464   -0.039201
-0.037902   -0.013216   -0.034978    -0.27371      1.6339   -0.021337    -0.03173
-0.014516   -0.012567   -0.024909    -0.27404      1.7063   -0.019063   -0.025559
0.0062721  -0.0099683    -0.02426    -0.26754      1.8255  -0.0099683    -0.02426
0.017316   -0.007045   -0.026533    -0.26039      1.9236      0.0014   -0.028482
0.016991   -0.007045   -0.029132    -0.25357      1.9457   0.0085458   -0.034978
0.011144   -0.011917    -0.03238     -0.2448      1.8619   0.0033489   -0.039526
0.0085458   -0.021012   -0.036278    -0.23896      1.6534   -0.010293   -0.041475
0.016341    -0.03173   -0.034654    -0.24253      1.2941   -0.026209   -0.037252
0.027709   -0.038227   -0.025234    -0.25195     0.74781   -0.040175   -0.029457
0.036154   -0.038227   -0.013216    -0.26397  -0.0050961   -0.051544   -0.021661
0.038103   -0.036927  -0.0037969    -0.27274    -0.89962    -0.05804   -0.016464
0.030957   -0.034654  -0.0015233    -0.27436     -1.7759   -0.059664   -0.012567
0.01829   -0.026209  0.00075039    -0.26592     -2.4639   -0.056416  -0.0067202
0.0049729   -0.011917    0.008221    -0.24643     -2.8381   -0.043423   0.0017248
-0.007045   0.0017248    0.024137    -0.21785      -2.865   -0.020687    0.010819
-0.015815    0.012119    0.043625    -0.18569     -2.6062 -0.00054884    0.014717
-0.018413    0.022512    0.065062    -0.15029     -2.1732   0.0020496   0.0062721
-0.015815    0.033556    0.081952    -0.10059     -1.6925   -0.020037   -0.014516
-0.010293    0.044599    0.092671   -0.031081     -1.2806   -0.064211   -0.042774
-0.0041217    0.054668    0.095919    0.057267     -1.0308    -0.12138   -0.067459
0.0017248     0.06084    0.092996     0.15179    -0.96523    -0.17594    -0.08305
0.014068    0.061489    0.086824     0.22552     -1.0107    -0.21232   -0.085973
0.030308     0.05272    0.075456     0.26125     -1.0487    -0.21882   -0.073631
0.043625    0.028684    0.054993     0.24825    -0.98569    -0.19413    -0.04862
0.048172  -0.0067202    0.026085     0.19044    -0.79438    -0.14704   -0.012242
0.044599   -0.044398  -0.0080194     0.10112     -0.5066   -0.085648    0.029333
0.036154    -0.07428   -0.042774 -0.00087364    -0.16977   -0.026533    0.063763
0.032582   -0.089546   -0.068758   -0.093119       0.169    0.014392     0.08585
0.041676   -0.085973     -0.0837    -0.16003      0.4584    0.029333    0.095594
0.070259   -0.060313   -0.092145    -0.19966     0.65296    0.019914     0.09397
0.11671   -0.020037    -0.09994    -0.22239     0.72767  -0.0063954    0.087149
0.16315    0.022188    -0.11131    -0.23246     0.69129   -0.045697    0.078704
0.18427     0.05207    -0.12203    -0.22661     0.56624   -0.093769     0.06831
0.16056    0.065062    -0.12138     -0.2042       0.385    -0.14834    0.058241
0.098193    0.067336    -0.10871    -0.16328     0.18849    -0.20225    0.045574
0.01894    0.065387   -0.089546    -0.11098    0.017965    -0.24545    0.029658
-0.058365    0.063763   -0.067459   -0.065186    -0.10644    -0.26689    0.010819
-0.11098    0.064413   -0.043423   -0.044723    -0.18959    -0.26624  -0.0096434
-0.1321    0.065712   -0.019063   -0.094418    -0.25065    -0.24708   -0.025884
-0.12235    0.064737   0.0020496    -0.26299    -0.30652    -0.21232   -0.032705
-0.094743    0.058891    0.018615    -0.53973    -0.35459    -0.16718   -0.028807
-0.061288    0.047198    0.028684    -0.86356     -0.3744    -0.11228   -0.012567
-0.028482    0.030633    0.031932     -1.1676    -0.34809   -0.053492    0.012443
-0.0015233    0.010495     0.02706     -1.4193    -0.27144  0.00010078    0.037454
0.019264  -0.0099683    0.013418     -1.6129    -0.15321    0.038753    0.054668
0.032906   -0.023935  -0.0044465     -1.6947   -0.012892    0.056292    0.063763
0.040702   -0.026858   -0.020362     -1.5411     0.11931    0.057592    0.063763
0.0433   -0.017114   -0.030106     -1.0406     0.22552    0.054019    0.058891
0.041027  0.00075039   -0.028482    -0.21037      0.3012    0.050771    0.049796
0.031282    0.019264    -0.01484     0.74359     0.33011     0.05142    0.040052
0.016341     0.03518   0.0023744      1.5494      0.2921    0.053044    0.031282
-0.0028225    0.043625    0.013418      2.0506     0.19726    0.054993    0.029333
-0.01549    0.041676    0.014392      2.2224    0.077405    0.061489    0.033881
-0.014191    0.029658   0.0085458       2.139   -0.031406    0.072858    0.041676
-0.0018481    0.012119 -0.00054884      1.9028    -0.10838    0.085525    0.049147
0.012443  -0.0028225  -0.0099683      1.6085    -0.15386     0.09462    0.056292
0.024461   -0.010618   -0.017439      1.3308    -0.17822     0.10859    0.062789
0.032257   -0.008669   -0.018413       1.121    -0.19121     0.12937    0.069285
0.039078      0.0014   -0.013216     0.98492    -0.20485     0.14919    0.073182
0.047198    0.013743  -0.0067202     0.88845    -0.22239     0.15666    0.073507
0.054993    0.021213  -0.0018481     0.78484    -0.23506     0.14886    0.070909
0.057267    0.022837      0.0014     0.63835    -0.23279      0.1349    0.065062
0.051745     0.01764   0.0056225     0.43145     -0.2094      0.1232    0.054668
0.039078    0.008221    0.013093     0.17095     -0.1649     0.11346    0.038753
0.023162  -0.0031473    0.023162    -0.12625    -0.10189     0.10371    0.016666
0.0020496   -0.014516     0.03583    -0.43319   -0.024585    0.097218  -0.0073698
-0.019712   -0.022961    0.044275    -0.70765    0.061489    0.090722   -0.028807
-0.037252   -0.027183     0.04395    -0.90449     0.14237    0.087149   -0.041799
-0.047971   -0.028482    0.031932     -1.0039     0.20343    0.086175    -0.04115
-0.051544   -0.028157   0.0059473     -1.0081     0.23559    0.085525   -0.030756
-0.046671   -0.029457    -0.03238    -0.92268     0.24533    0.088773   -0.014191
-0.03238   -0.029457   -0.070382    -0.72779     0.25183    0.093321   0.0039985
-0.012567   -0.023935   -0.085973    -0.39357     0.26449    0.095594    0.020888
0.012768   -0.007045   -0.063237    0.080328     0.26092     0.09397    0.033881
0.039078    0.015692   -0.007045      0.6325      0.2083    0.083901    0.040377
0.059865    0.036804    0.065062      1.1431     0.11216    0.064737    0.040052
0.064413    0.047523     0.13132      1.4952   0.0059473    0.041027    0.033881
0.046873    0.045899     0.17517      1.6225   -0.067459    0.015042     0.02641
0.011144    0.031607     0.19011      1.5231    -0.05804  -0.0089938    0.020564
-0.031081   0.0072465      0.1781      1.2522    0.069285   -0.030106    0.016666
-0.06551   -0.017439     0.14496     0.89624     0.31841   -0.045372    0.017965
-0.080451   -0.033354     0.10501     0.53766      0.6364   -0.054142    0.019589
-0.071032   -0.038551    0.071883     0.22812      0.9323   -0.056741    0.022837
-0.041475   -0.037902    0.049147   -0.010943      1.1207   -0.054142    0.021863
-0.0047713   -0.036602    0.036479    -0.18666      1.1545   -0.053492    0.016016
0.028359   -0.035953    0.030308    -0.31366      1.0271   -0.057715   0.0046481
0.044924   -0.039851    0.026735    -0.39941     0.75073   -0.065186   -0.010618
0.037129    -0.04927    0.021538    -0.45268     0.32751   -0.076879   -0.027508
0.013418   -0.064211    0.014068    -0.49231    -0.23409   -0.092469   -0.043748
-0.015815   -0.080451  -0.0024977    -0.53226     -0.8772    -0.10481   -0.052193
-0.043423   -0.089221   -0.030431    -0.57773     -1.4628    -0.11131   -0.054467
-0.061937   -0.087597   -0.068758    -0.61931     -1.8321    -0.10838    -0.04992
-0.071682   -0.077528    -0.11683    -0.64074     -1.8854   -0.093119   -0.039851
-0.077528   -0.063561    -0.17075    -0.63003     -1.6259   -0.068109   -0.025884
-0.087597   -0.055766    -0.22207    -0.58228     -1.1504    -0.04115   -0.013866
-0.10806   -0.056741     -0.2539    -0.48679    -0.58845   -0.017439   -0.011267
-0.1321   -0.059989    -0.25487    -0.33965   -0.065835  -0.0031473   -0.017114
-0.14769   -0.056416    -0.22174     -0.1623     0.32816  0.00010078   -0.029132
-0.15093   -0.041799    -0.16815   0.0095202     0.56169  -0.0015233   -0.042449
-0.13924   -0.017439    -0.10644     0.14204     0.64842  -0.0044465   -0.054467
-0.11553    0.009845   -0.047321     0.22389     0.63575  -0.0080194   -0.062587
-0.083375    0.033881 -0.00022403     0.26742       0.588   -0.016464   -0.068434
-0.047321    0.051745    0.033556     0.28918     0.55747   -0.029132   -0.071032
-0.014516    0.056617     0.05142     0.30315     0.57436   -0.046022   -0.067784
0.012443    0.048822     0.06084     0.31549      0.6403   -0.061288   -0.057065
0.02706    0.032582    0.060515     0.32491     0.72572   -0.069083    -0.04115
0.030308    0.014068    0.049796     0.31744     0.77152    -0.06681   -0.025234
0.021863  -0.0063954    0.025436     0.27164     0.71793   -0.060638   -0.014516
0.0039985   -0.029457   -0.012242     0.16121     0.56527   -0.060638   -0.008669
-0.014191   -0.053817   -0.051219   -0.035628     0.37915   -0.071682  -0.0047713
-0.022311   -0.066485   -0.073955    -0.29677     0.24306   -0.087922  -0.0050961
-0.017764   -0.056416    -0.06616    -0.56117     0.19434    -0.10124  -0.0047713
0.00075039   -0.021986   -0.027508    -0.76027     0.19304    -0.10416  -0.0041217
0.022512    0.024137    0.022188    -0.86519     0.15049   -0.097991  -0.0076946
0.034206    0.062464    0.054668    -0.88175  -0.0024977   -0.088896   -0.018738
0.024137    0.076755    0.048822    -0.84245    -0.25325   -0.080451   -0.035628
-0.007045    0.063438   0.0088706    -0.78106    -0.51862   -0.069733   -0.052193
-0.052518    0.029983   -0.052193     -0.7109    -0.69499   -0.052193   -0.062912
-0.10254   -0.010293    -0.11391    -0.62515    -0.72292   -0.030431   -0.068109
-0.14411   -0.045372    -0.15743    -0.51212    -0.60924   -0.012242   -0.073306
-0.16555   -0.064536    -0.16718    -0.37213    -0.41793  -0.0054209   -0.078178
-0.16425   -0.064861    -0.13437    -0.21849    -0.22272   -0.012242   -0.079802
-0.13892    -0.04927   -0.065835   -0.073955   -0.075579   -0.022311   -0.073955
-0.096692   -0.026533    0.016666    0.029333   0.0017248   -0.026858   -0.060313
-0.043748  0.00042559    0.091696     0.06831    0.017316   -0.021337   -0.040175
0.009845    0.028359     0.14074    0.041351   0.0023744  -0.0099683   -0.017114
0.056942    0.051745     0.15763   -0.019063   -0.020687    0.003024   0.0052977
0.091696    0.065712     0.14756   -0.078503   -0.039526    0.014068    0.017965
0.10469    0.067661      0.1219    -0.11391   -0.056741    0.017316    0.019914
0.09462    0.061814    0.095919    -0.12268     -0.0824    0.014392    0.012768
0.068635    0.054344    0.075781    -0.11358     -0.1191    0.008221    0.003024
0.037129    0.049796    0.062789   -0.098641    -0.15905  -0.0037969  -0.0034721
0.010495    0.049472    0.053694   -0.092145    -0.19608   -0.018088  -0.0054209
-0.0083442    0.053694    0.042001   -0.094743    -0.22207   -0.030431  -0.0011985
-0.018738    0.061165    0.026735   -0.097341    -0.23084   -0.038876   0.0023744
-0.02361    0.069934    0.014717   -0.092469    -0.22207   -0.042124  0.00042559
-0.028482    0.070259   0.0072465   -0.082076    -0.20096   -0.037577  -0.0096434
-0.040175    0.063113   0.0026992   -0.070382    -0.17757   -0.029457   -0.027183
-0.060638    0.045574  -0.0015233   -0.055441    -0.15938   -0.019063   -0.046022
-0.085324     0.01764  -0.0067202   -0.038551    -0.14736  -0.0037969   -0.058689
-0.10774   -0.016464   -0.013866   -0.020687    -0.13632    0.015042   -0.060313
-0.1217   -0.050894   -0.020362  -0.0067202    -0.12203    0.035505   -0.047646
-0.12365   -0.079802   -0.022636   0.0043233    -0.10481     0.05272   -0.024909
-0.10903   -0.094418   -0.020037    0.015692   -0.079802    0.062464 -0.00022403
-0.075904    -0.09182   -0.012242    0.028034   -0.046022    0.061814    0.018615
-0.029132   -0.072331  -0.0021729    0.038103   -0.013541    0.050771    0.029983
0.021538   -0.043423   0.0039985     0.04395    0.013093    0.037129    0.031932
0.065062   -0.010943  0.00042559    0.041027    0.032906    0.029333    0.027385
0.093645    0.015042  -0.0096434    0.028034    0.048172    0.029333    0.020888
0.10989     0.02706   -0.017114   0.0091954    0.061489    0.031282     0.01764
0.11671    0.023162   -0.014191  -0.0096434    0.075131    0.032906    0.019264
0.11541   0.0036737  -0.0015233   -0.020362    0.089098    0.034206    0.024461
0.10047   -0.025559    0.015367   -0.015165    0.097218    0.033881    0.026735
0.076431   -0.057065    0.028359   0.0069217    0.096244    0.031282    0.021213
0.042326   -0.083375    0.031282    0.042001    0.084551    0.024137   0.0062721
0.0046481   -0.097341    0.023162    0.089098    0.065062    0.014068   -0.010293
-0.023935   -0.089546   0.0065969     0.14139      0.0433   0.0078962   -0.021012
-0.034004   -0.054467   -0.020687     0.15146    0.021863   0.0072465   -0.020037
-0.025234      0.0014   -0.059664     0.07773   0.0059473    0.012768   -0.013866
-0.0024977    0.059541    -0.10449   -0.055766    0.014392     0.01829   -0.010618
0.02706     0.10144    -0.13892    -0.14574    0.064737     0.01829   -0.011592
0.052395     0.11346    -0.15191    -0.10156     0.15016    0.011469   -0.010293
0.066037    0.089098    -0.14541    0.074157     0.24598  -0.0054209  -0.0060706
0.069934    0.041027    -0.13242      0.3025     0.32523   -0.029132 -0.00054884
0.066037  -0.0093186    -0.11586     0.48341      0.3772   -0.051868      0.0014
0.057917   -0.039851   -0.087272     0.55715     0.40514   -0.061613   0.0010752
0.047523     -0.0405   -0.045047     0.53051      0.4152   -0.056091 -0.00087364
0.039078   -0.015815   0.0023744     0.44704     0.41358   -0.040825  -0.0028225
0.039727    0.020888    0.038753     0.35706     0.39994   -0.021986  -0.0037969
0.05142    0.050446    0.054344     0.29275     0.37103  -0.0099683  -0.0011985
0.065062    0.062464     0.05142     0.26612     0.32848   -0.007045   0.0065969
0.069934    0.061489    0.039402      0.2606     0.28203   -0.011917    0.014717
0.062139    0.055643    0.032906      0.2554     0.24143   -0.021986    0.021863
0.044599    0.047198    0.037778     0.23818      0.2096   -0.029782    0.025761
0.022837    0.037778    0.053694     0.20408     0.18654   -0.034004    0.026735
0.0026992    0.022188    0.064413     0.13782     0.15828   -0.034654    0.026735
-0.011592  0.00075039    0.054344    0.026735     0.10242   -0.035953    0.026085
-0.01549   -0.021337    0.021213    -0.12008  -0.0024977   -0.034978     0.02641
-0.0050961   -0.036278    -0.01614    -0.26332    -0.17627   -0.030431    0.032582
0.017316   -0.036278   -0.035628    -0.35719     -0.4215   -0.025234    0.045249
0.044924   -0.028482   -0.027508    -0.37213    -0.70116   -0.021337    0.059216
0.070909   -0.019388  -0.0021729    -0.30879    -0.94476   -0.026533    0.064737
0.081627   -0.014191    0.023812    -0.20031      -1.063   -0.042774    0.056942
0.065712   -0.013216    0.035505   -0.090196     -1.0088   -0.069083     0.03518
0.019914    -0.01549    0.032582  -0.0089938    -0.79438   -0.095393   0.0043233
-0.044398   -0.018738    0.019914    0.030308    -0.48159    -0.10806    -0.02426
-0.10968   -0.022311   0.0052977    0.042326    -0.15386    -0.10221   -0.044073
-0.15808   -0.026209  -0.0060706    0.044599     0.11281   -0.080127   -0.051544
-0.17984   -0.029457   -0.012892    0.044275     0.26807   -0.056416   -0.050569
-0.17562   -0.034004   -0.014516    0.040702     0.29308   -0.040825   -0.044398
-0.14769   -0.039201   -0.013866    0.033881     0.19466   -0.035303   -0.039526
-0.10091   -0.043423   -0.017764    0.023812  -0.0089938   -0.041475   -0.038227
-0.048945   -0.043748   -0.028482    0.013743    -0.27371   -0.060313   -0.043099
-0.0015233   -0.039526   -0.045047  0.00042559    -0.52771   -0.090196   -0.053168
0.038103    -0.03173   -0.063237   -0.010943    -0.69888    -0.12463   -0.063237
0.067336   -0.025559   -0.076229   -0.017439    -0.74176    -0.14964   -0.067784
0.080003   -0.027508   -0.079477   -0.013216    -0.64789    -0.15548   -0.063886
0.064737    -0.04115   -0.071682   0.0010752    -0.45138    -0.14119   -0.053168
0.024461   -0.065186   -0.058689    0.022188    -0.23538    -0.11131   -0.040175
-0.02426   -0.087272    -0.04115    0.039727    -0.10546   -0.075904   -0.027833
-0.067459   -0.095393   -0.024585    0.050446    -0.10254   -0.046347   -0.020687
-0.090845   -0.079477   -0.013216    0.054019    -0.19543   -0.032055   -0.017114
-0.084999   -0.042774  -0.0080194    0.051096    -0.30294   -0.036278   -0.014191
-0.053817   0.0033489   -0.011267    0.031932    -0.35037   -0.048296   -0.010293
-0.010943    0.042326   -0.029132   -0.012892    -0.30619   -0.059664  -0.0073698
0.028034    0.063763   -0.058365   -0.081101      -0.174   -0.061288  -0.0044465
0.050446    0.066037    -0.08305    -0.15418    0.016341   -0.047321      0.0014
0.047847    0.055643   -0.093444    -0.20843     0.22779   -0.021986    0.010819
0.023162    0.037454   -0.090196    -0.23311     0.42592    0.009845    0.023162
-0.012892    0.014392   -0.080127    -0.25033     0.58768    0.042975    0.034206
-0.045697  -0.0096434    -0.07428    -0.30554     0.71013    0.073507     0.03453
-0.070382    -0.03238   -0.075904    -0.40591     0.81179    0.094945    0.024137
-0.080776   -0.046347   -0.078503    -0.49685      0.9245     0.11086    0.012443
-0.073631   -0.039526   -0.064861    -0.50043      1.0749     0.12905    0.011469
-0.050894   -0.012242   -0.025234    -0.37538       1.273     0.15438    0.027709
-0.018413    0.025111    0.030957    -0.15158      1.4919     0.18037    0.050121
0.021213    0.055643    0.079029    0.092021      1.6667     0.19921    0.063113
0.061814    0.066362    0.098193     0.27976       1.692     0.20408    0.061814
0.10404    0.054668    0.081952      0.3889      1.4442     0.18914    0.053694
0.14756    0.032906    0.042326     0.45743     0.82349     0.15601    0.044924
0.18914    0.015042  -0.0015233     0.53149    -0.10091     0.10826    0.032582
0.22032    0.010495    -0.03303     0.63023     -1.0497    0.055318    0.016991
0.22584    0.020239   -0.044398     0.74423     -1.7363   0.0095202      0.0014
0.19434    0.032906   -0.036278     0.85467     -2.0189   -0.017114   -0.010943
0.12288    0.038428   -0.013216     0.94302     -1.9211   -0.034654   -0.019712
0.025111    0.033231    0.016341     0.99401     -1.5856   -0.054467   -0.029782
-0.075904    0.021213    0.042651      1.0021     -1.1926   -0.086623   -0.042124
-0.161   0.0039985    0.058891     0.95958     -0.8798    -0.13664   -0.055766
-0.21687   -0.015165    0.061165     0.86441    -0.69986    -0.19933    -0.06681
-0.23993    -0.03303    0.048497     0.71955    -0.64009     -0.2591   -0.072006
-0.23344   -0.043748    0.024786     0.53928    -0.65081    -0.30035   -0.069083
-0.20583   -0.046996  -0.0057458     0.34829    -0.68037    -0.31594   -0.053817
-0.16198   -0.041799    -0.04115     0.15698    -0.68589    -0.30294   -0.026533
-0.10254   -0.032055   -0.079802   -0.053817    -0.63555    -0.26397   0.0056225
-0.032055   -0.019063    -0.11456    -0.30879    -0.51439    -0.20745    0.036804
0.036479  -0.0018481    -0.14216    -0.58325    -0.33737    -0.14509    0.061165
0.088773    0.018615    -0.16198    -0.83303     -0.1334   -0.090196    0.075781
0.11476     0.03583      -0.174     -1.0354    0.072533   -0.054792     0.07708
0.11248    0.039078    -0.17562     -1.1991     0.27229   -0.040175    0.067011
0.084876    0.029009    -0.15581     -1.2839      0.4662   -0.036927    0.044924
0.04395    0.016991    -0.10221      -1.164     0.65329   -0.036927     0.01764
0.0085458    0.019264   -0.016789    -0.72877     0.82544   -0.034978  -0.0050961
-0.0063954    0.042326    0.077405   -0.030431     0.95861   -0.028482   -0.017439
0.00075039    0.073507     0.15016     0.69292      1.0174   -0.022961   -0.015165
0.020888    0.098842     0.17647      1.1967     0.98687   -0.022636  -0.0083442
0.039402     0.10501     0.15016       1.363     0.88715   -0.027833  -0.0011985
0.042326    0.090072    0.082277      1.2129     0.75723    -0.03238   0.0065969
0.02706    0.054993 -0.00054884     0.88065     0.64809    -0.02426    0.019589
0.0033489    0.011794   -0.067134     0.52889      0.5841 -0.00022403    0.040052
-0.01549   -0.026533   -0.096367     0.26807      0.5448     0.03453    0.067011
-0.021661   -0.054467   -0.084349      0.1349     0.48731     0.06896    0.090722
-0.016464   -0.071357   -0.045372    0.099817     0.38565    0.089098     0.10014
-0.00087364   -0.077528 -0.00022403    0.099167     0.23234    0.093645    0.092996
0.023487   -0.072981    0.032906    0.081952    0.037778    0.083576    0.074806
0.053369   -0.064861    0.045899    0.027385    -0.17205    0.063763    0.049796
0.075456   -0.065835    0.039402   -0.056416    -0.36336    0.039727    0.023162
0.079029     -0.0824    0.022837    -0.14704    -0.51245    0.017965 -0.00054884
0.066686    -0.10416   0.0091954    -0.21882    -0.60242   0.0046481   -0.015815
0.054344    -0.11261   0.0078962    -0.25877     -0.6323   0.0052977   -0.020037
0.059216   -0.094743    0.019589    -0.27176    -0.61314     0.01829   -0.014191
0.084876   -0.055441    0.037778    -0.27339    -0.55597    0.038753  -0.0011985
0.12093  -0.0083442    0.051096    -0.27793     -0.4543    0.054993    0.011144
0.15601    0.033231    0.053044    -0.29417      -0.288    0.058566    0.015367
0.17745    0.064088    0.044599    -0.31983    -0.03303    0.048172   0.0062721
0.17712    0.083901    0.031282    -0.34972     0.31484    0.032906   -0.014516
0.14659     0.09397    0.018615     -0.3744     0.71857    0.016666   -0.037902
0.083251    0.092996    0.009845     -0.3848      1.0996   0.0036737   -0.055441
-0.0015233    0.079354   0.0091954     -0.3783       1.374  -0.0015233   -0.063561
-0.079802    0.058241    0.017316    -0.35296      1.5056   0.0065969   -0.062262
-0.12787    0.039078    0.033556    -0.31561      1.5033    0.026735   -0.053817
-0.13892    0.028034    0.050121    -0.27534      1.3971    0.048172   -0.045697
-0.12527    0.024786     0.06084    -0.24026      1.2159    0.062139   -0.043748
-0.10936    0.029333    0.065062    -0.21525     0.98134    0.066362   -0.045047
-0.10416     0.03583    0.067336    -0.19933      0.7176    0.066362   -0.045697
-0.11196    0.041351     0.06831    -0.18764      0.4597    0.067336   -0.040825
-0.1269    0.044599    0.069285    -0.17302      0.2515    0.071883   -0.028482
-0.13924    0.045249     0.06831    -0.15451     0.11963    0.080003   -0.011267
-0.14022    0.041351    0.063113    -0.13924    0.058566    0.087799   0.0062721
-0.12657    0.033231    0.054668    -0.13664    0.015692    0.089098    0.019264
-0.10026    0.025761    0.043625    -0.14996   -0.089871    0.080653    0.027385
-0.068758    0.021538    0.028684    -0.17107    -0.32633    0.060515    0.029009
-0.037577    0.022837    0.011144    -0.19089    -0.69401    0.029983    0.021213
-0.011917     0.02641  -0.0080194    -0.20518     -1.0984  -0.0073698   0.0052977
0.0039985    0.026735   -0.022636    -0.21395     -1.3956   -0.040825   -0.017114
0.0046481    0.021538   -0.031081    -0.22239     -1.4901    -0.05739   -0.042449
-0.0093186   0.0095202   -0.031081    -0.22921     -1.3722   -0.052193   -0.062912
-0.033354  -0.0073698   -0.022311    -0.23019     -1.1068   -0.027508   -0.069733
-0.063237   -0.025884  -0.0054209    -0.22044     -0.7973   0.0059473    -0.05804
-0.090196   -0.038227    0.014717    -0.19868     -0.5394    0.037778   -0.034329
-0.11066   -0.044073    0.030633    -0.16945    -0.38967     0.06019   -0.011917
-0.12365    -0.04115    0.037454    -0.13859    -0.35329    0.064737   0.0026992
-0.1295    -0.03173    0.038753    -0.11066    -0.39487    0.050121   0.0056225
-0.12657   -0.018413    0.042651   -0.079802    -0.45885    0.021863  -0.0050961
-0.11358 -0.00054884    0.058891   -0.039201    -0.51017   -0.013866   -0.025884
-0.098965    0.020564    0.087474    0.012443    -0.55175   -0.052518   -0.055766
-0.090196    0.037129     0.11931    0.065062    -0.62385   -0.092145   -0.090521
-0.091495      0.0433     0.14172     0.10501    -0.76807     -0.1282    -0.12463
-0.10059    0.036479     0.14594     0.12223      -0.974    -0.14996    -0.14996
-0.11033    0.015042     0.12743     0.10599     -1.1799    -0.14769    -0.16068
-0.10611   -0.016464    0.088124    0.053369     -1.3043    -0.11878    -0.15126
-0.080776   -0.050244    0.032257   -0.029457     -1.2826   -0.071032    -0.12333
-0.034978   -0.079477   -0.037577    -0.12105     -1.0964   -0.013866   -0.079802
0.01829   -0.096692    -0.10871    -0.20031    -0.77586    0.049472   -0.026533
0.069285    -0.09929    -0.16782    -0.25715    -0.38545     0.11606    0.029658
0.11248    -0.09117     -0.2029     -0.2906  -0.0021729     0.18004    0.080003
0.14432   -0.076229    -0.20908    -0.29937     0.32069     0.22682     0.11801
0.16121   -0.062587    -0.18991    -0.28216     0.57436     0.24338     0.13912
0.15926    -0.04927    -0.15613    -0.23993     0.78354     0.22844     0.14269
0.14074   -0.041799    -0.11845    -0.17335     0.96478     0.18784      0.1271
0.11216   -0.039201   -0.086948   -0.090521      1.1116     0.13165    0.095919
0.076755     -0.0405   -0.065835   -0.014191      1.2068    0.072858     0.06084
0.042326   -0.042124   -0.057715    0.032257      1.2279    0.023487    0.033231
0.01829   -0.039851   -0.062587    0.029009      1.1577  -0.0080194    0.022837
0.011144   -0.029132   -0.080776   -0.022636     0.97387    -0.01549    0.028684
0.020888  -0.0099683    -0.11001   -0.096367     0.63413  -0.0031473    0.045249
0.038753    0.015367    -0.13632    -0.15256     0.11378    0.017965    0.064737
0.054993    0.042975    -0.14606    -0.15386    -0.53421    0.034855    0.075131
0.059865    0.064737    -0.12982   -0.079477     -1.1582    0.037129     0.06896
0.049147    0.073507   -0.091495    0.059216     -1.5895    0.019589     0.05207
0.031282    0.069934   -0.047321     0.21675     -1.7185   -0.008669    0.033556
0.01764    0.057917   -0.011917     0.33758     -1.5421   -0.036278    0.019264
0.016341    0.043625    0.003024     0.38662     -1.1582   -0.060963    0.011794
0.024137    0.027709   0.0010752     0.34797    -0.70343   -0.077528   0.0052977
0.032582    0.013093  -0.0076946     0.20213    -0.29482   -0.085324  -0.0034721
0.036804  0.00010078   -0.011917    -0.06616   0.0062721   -0.082076   -0.013216
0.033881  -0.0080194   -0.007045    -0.42247     0.19921   -0.071032   -0.022636
0.017965   -0.011917   0.0065969    -0.79081     0.31354   -0.058365    -0.03303
-0.011592   -0.012567    0.022512        -1.1     0.37558   -0.050244   -0.044398
-0.047646   -0.014191    0.036154     -1.3284     0.39767   -0.055766   -0.058365
-0.0824   -0.021337    0.041027     -1.4914     0.39409   -0.084024   -0.072981
-0.10871   -0.035953    0.029333     -1.5648     0.38207    -0.12398   -0.085324
-0.12495   -0.055441   0.0020496     -1.4508     0.37948    -0.15451   -0.092469
-0.13112    -0.06681   -0.031406     -1.0289     0.40026    -0.15905   -0.090196
-0.12333   -0.058689   -0.053817    -0.28281     0.43567     -0.1334   -0.078827
-0.10319   -0.028157   -0.054142      0.6338     0.44769   -0.093119   -0.062262
-0.078178    0.011144   -0.028482      1.4809     0.39214   -0.058365   -0.051219
-0.055766    0.042326    0.012119      2.0971      0.2476   -0.045697   -0.044723
-0.040175    0.054993    0.053694      2.4219    0.026735   -0.052518   -0.038876
-0.030106    0.048497    0.082277      2.4797    -0.22337    -0.06616   -0.030756
-0.025234    0.032582    0.091372      2.3368    -0.44456   -0.072656   -0.016464
-0.023935    0.015367    0.086824      2.0639     -0.5969   -0.066485   0.0036737
-0.021986   0.0052977    0.072858      1.7222    -0.69044   -0.054142    0.026735
-0.014516   0.0010752    0.055968      1.3604    -0.78171    -0.04115      0.0433
-0.0037969 -0.00022403    0.042651      1.0148    -0.89897   -0.035953    0.050121
0.0078962 -0.00022403    0.037778     0.71305    -0.98926   -0.043099    0.049796
0.018615  -0.0041217    0.038103     0.46458    -0.95386   -0.059014      0.0433
0.025111   -0.013541    0.043625     0.26352      -0.707   -0.074605    0.036154
0.025761   -0.024585    0.050121    0.097868    -0.23766   -0.085648    0.029983
0.025761   -0.035303    0.051745   -0.038876     0.37038   -0.088247    0.024137
0.028684   -0.040825    0.047847    -0.14704     0.96575   -0.078503    0.018615
0.037129   -0.037902    0.042975    -0.22661      1.4189   -0.057715    0.016666
0.05207   -0.028157    0.038103    -0.28476      1.6621   -0.032705    0.019264
0.065712   -0.011592    0.029009    -0.32601      1.6975   -0.012242    0.023487
0.06961   0.0072465     0.01017    -0.35264      1.5796  -0.0028225    0.024461
0.054344    0.021538   -0.019063     -0.3731      1.3731  -0.0050961    0.021213
0.026735    0.026735   -0.059989    -0.41078      1.1243   -0.017764    0.016016
-0.0018481    0.022512    -0.10774    -0.49133     0.86246   -0.034329    0.013743
-0.018413    0.016016    -0.15288    -0.62905     0.60554   -0.052193    0.015692
-0.015815    0.013743    -0.18569    -0.81029     0.36518    -0.07428    0.016991
0.0033489    0.017316    -0.19413    -0.98244     0.14464    -0.10644    0.017965
0.03453    0.025111    -0.17205     -1.0802   -0.046996    -0.14639    0.021863
0.069934     0.03453    -0.12203     -1.0549    -0.19836    -0.18926    0.024137
0.10209    0.042975   -0.058689    -0.88922    -0.30457    -0.22759    0.021863
0.12255    0.048172  -0.0015233    -0.58585    -0.36433    -0.25227    0.015692
0.12872    0.048822    0.042001    -0.16295    -0.37765    -0.25715    0.008221
0.12093    0.043625    0.069285     0.32361    -0.35361    -0.23766  -0.0011985
0.096244    0.034206    0.076431     0.78776    -0.31139    -0.20128    -0.01549
0.057267    0.024137    0.065062      1.1558    -0.27534    -0.15938   -0.033679
0.0085458    0.016991    0.041676      1.3617    -0.26202    -0.11943   -0.047321
-0.042124    0.010819    0.014717      1.3753    -0.26689    -0.08305   -0.046671
-0.085648      0.0014  -0.0063954      1.2237    -0.27404   -0.052843   -0.030756
-0.11228   -0.011592   -0.019388     0.96673    -0.25682   -0.032055   -0.010943
-0.11586   -0.026858   -0.025884     0.67148    -0.18861   -0.017114   0.0075714
-0.10091   -0.036927   -0.024585     0.39864   -0.061613   -0.007045    0.017965
-0.075579   -0.038227   -0.013541     0.18102     0.10924      0.0014    0.016341
-0.054467   -0.032055   0.0043233    0.025111     0.28333    0.009845    0.003024
-0.040825   -0.021337     0.01894   -0.085324     0.41553    0.019914   -0.016789
-0.033354  -0.0073698    0.024786    -0.16945     0.47367    0.029658    -0.03303
-0.024585    0.014068    0.024137    -0.21849      0.4584    0.035505   -0.041799
-0.0063954    0.041027    0.025436    -0.20225     0.39442    0.040052     -0.0405
0.01764    0.062139    0.034855    -0.10741     0.31322    0.047198    -0.03173
0.040052    0.067661    0.044275    0.028684     0.23071    0.053694   -0.018738
0.053369    0.054344    0.047198     0.14399     0.14951    0.056942  -0.0067202
0.049796    0.029983     0.03583     0.18849     0.06084     0.05272  -0.0018481
0.025761 -0.00022403   0.0088706     0.15309   -0.046347    0.047523  -0.0047713
-0.01549   -0.028807   -0.032055    0.045899    -0.17692    0.045574  -0.0096434
-0.063886   -0.047646   -0.076554    -0.12268    -0.31236    0.053044  -0.0073698
-0.10059   -0.054142    -0.11033    -0.32503     -0.4228    0.066362      0.0014
-0.11033   -0.047321    -0.12008    -0.48614    -0.48191    0.078379   0.0095202
-0.095717    -0.03238   -0.098316    -0.53128    -0.46892    0.080653    0.012443
-0.070058    -0.01614   -0.052193    -0.45625    -0.38967    0.071883   0.0085458
-0.047321  -0.0024977  0.00075039    -0.31854    -0.27209    0.054993      0.0014
-0.037902   0.0036737    0.044924    -0.18699    -0.14964     0.03453  -0.0060706
-0.041799   0.0026992     0.06896    -0.10319   -0.037902    0.019264   -0.012892
-0.052843  -0.0057458     0.06831   -0.078827    0.055968    0.015367   -0.019063
-0.062262   -0.018088    0.050446    -0.10351     0.12872     0.01894   -0.019712
-0.067134   -0.029782    0.026735    -0.15256      0.1729     0.02706  -0.0093186
-0.061288   -0.034004   0.0072465    -0.20258     0.18557     0.03453   0.0043233
-0.041475   -0.030756  -0.0034721    -0.23896     0.17322    0.038428    0.012119
-0.011267   -0.020687  -0.0044465    -0.26364     0.15438     0.03518    0.010495
0.022512  -0.0096434  -0.0011985    -0.28021     0.14561    0.025761   0.0062721
0.057267 -0.00022403  -0.0047713    -0.28833     0.15373    0.017316   0.0052977
0.093321   0.0062721   -0.010943     -0.2867     0.17225    0.014392   0.0091954
0.12678    0.011144   -0.019712    -0.27469     0.19206    0.014717    0.017965
0.15179    0.012443   -0.027183    -0.26007     0.20765    0.014068    0.029009
0.16121   0.0065969   -0.033679     -0.2474     0.20181    0.016016    0.037454
0.15179  -0.0060706   -0.038876    -0.22921     0.15536    0.019264     0.03583
0.12125   -0.022636   -0.040825    -0.19771    0.075456    0.023162    0.027709
0.074482   -0.038551   -0.042124    -0.15223  -0.0076946    0.025436    0.016991
0.023487   -0.054467   -0.047971   -0.099615   -0.056091    0.025111   0.0059473
-0.018413   -0.068758   -0.059664   -0.059664   -0.034978     0.01894  -0.0044465
-0.039526   -0.080776    -0.06681   -0.054467    0.071234   0.0039985    -0.01484
-0.034654   -0.079477   -0.050894   -0.096042     0.25313    -0.01549   -0.023935
-0.0080194   -0.056741  -0.0028225    -0.17627     0.47952    -0.03173   -0.029457
0.02706   -0.017439    0.070584    -0.26787     0.71045   -0.037902   -0.027508
0.053044    0.021213     0.14367    -0.33802     0.92905   -0.027508   -0.021337
0.062464    0.044924     0.18881    -0.36498      1.1399  -0.0063954  -0.0099683
0.057267    0.054019     0.19596    -0.34225      1.3422    0.021213   0.0046481
0.042001    0.055968     0.16835    -0.27534      1.4926     0.05272    0.016991
0.015042     0.05207     0.11995    -0.18796      1.4819    0.080328    0.019589
-0.025559    0.036154    0.061165    -0.12982      1.1506    0.086824    0.013743
-0.079802   0.0043233  -0.0037969    -0.16068     0.42787    0.064413  -0.0024977
-0.14152   -0.039526   -0.076879    -0.31496    -0.52544     0.01764   -0.027833
-0.19576   -0.084349    -0.15158    -0.57156     -1.3742   -0.033679   -0.050569
-0.22564    -0.11098    -0.21427    -0.86551     -1.8497   -0.070058   -0.059664
-0.22337    -0.10741    -0.24903     -1.1068      -1.861   -0.084024   -0.051544
-0.18959   -0.077203     -0.2474     -1.2105     -1.5015   -0.079152   -0.034978
-0.13794   -0.034978    -0.21102     -1.1244    -0.96133    -0.06551   -0.018738
-0.087272   0.0039985    -0.15451    -0.82621    -0.44001   -0.050569  -0.0089938
-0.054792     0.02706   -0.094743    -0.32795   -0.063237   -0.042774  -0.0073698
-0.038227     0.03518   -0.045697     0.28236     0.13782   -0.039851   -0.011267
-0.028157     0.03583   -0.011917     0.82674     0.19693   -0.040825   -0.013216
-0.0060706    0.038753   0.0062721      1.1551     0.17452   -0.038551  -0.0060706
0.033881    0.050121    0.015367      1.2181     0.12255   -0.026533    0.013743
0.081952    0.063438    0.022837      1.0765    0.066686  -0.0057458    0.042651
0.12385    0.071558    0.029333     0.83193   0.0088706    0.017316     0.06831
0.14756     0.06831    0.033231     0.57014   -0.061937    0.030308    0.082602
0.15179    0.056617    0.035505     0.34829    -0.15126    0.033231    0.086824
0.13944    0.037778    0.038753     0.20051    -0.25552    0.027385    0.079354
0.11086    0.012443    0.041027     0.12645    -0.36921    0.012768     0.06084
0.06831   -0.012567    0.038753     0.10469    -0.48938  -0.0076946    0.034855
0.023162   -0.028157     0.03453     0.10794    -0.61898   -0.032055    0.010495
-0.019712   -0.027508    0.032257     0.11898    -0.77749   -0.057715   -0.008669
-0.053817  -0.0093186    0.038428     0.12905     -1.0068   -0.081751   -0.021661
-0.07493    0.016991     0.05142     0.14107     -1.3056    -0.10221   -0.029132
-0.0824    0.039078    0.062789     0.15536     -1.5879    -0.11618   -0.030431
-0.072981    0.048172    0.063113       0.169     -1.7301    -0.12365   -0.027508
-0.047971    0.045249    0.049147     0.16705     -1.6467    -0.12398   -0.020037
-0.0080194    0.037454    0.022188     0.12937     -1.3264     -0.1191   -0.011917
0.0433    0.032582   -0.008669    0.048172    -0.83465    -0.10936  -0.0096434
0.09462    0.031932    -0.03303   -0.051868    -0.27274   -0.094418   -0.016789
0.1297    0.036479   -0.045372    -0.13892     0.24858   -0.072981   -0.034004
0.1349     0.04395   -0.046347    -0.18861     0.63153    -0.04927   -0.055441
0.11021     0.05272   -0.042124    -0.19836     0.81407   -0.029132   -0.075255
0.061165    0.055968   -0.039851    -0.18471     0.79068    -0.01484   -0.087597
-0.0041217    0.045574   -0.047321      -0.161     0.62211  -0.0073698   -0.085973
-0.071032    0.022837   -0.060313    -0.13502     0.40643  0.00010078   -0.072006
-0.12333  -0.0060706   -0.071682    -0.11488     0.24046    0.012768   -0.047321
-0.14996   -0.030756   -0.078827    -0.10319     0.17647    0.030308    -0.01614
-0.14801   -0.043748   -0.082076   -0.093444     0.21285    0.047847    0.011469
-0.12203   -0.046022   -0.081101   -0.080451     0.30769    0.061165    0.027709
-0.082076   -0.042449   -0.079477   -0.060963      0.4178    0.060515     0.02641
-0.044723   -0.038227   -0.080127     -0.0405     0.50388    0.046873    0.011144
-0.027833   -0.034978   -0.082725   -0.024909     0.52239    0.022188   -0.012567
-0.040825   -0.034978   -0.086623   -0.017764     0.42625  -0.0080194   -0.035953
-0.077528   -0.038227   -0.089871    -0.01484     0.19856   -0.037577   -0.053168
-0.11715   -0.043748   -0.090521  -0.0073698    -0.12787   -0.061613   -0.059989
-0.13924   -0.047971     -0.0824   0.0065969    -0.46178   -0.072981   -0.056416
-0.13859   -0.047646   -0.061613    0.028684    -0.68752    -0.06616   -0.047321
-0.12073   -0.042124   -0.034329    0.054668    -0.73039   -0.044073   -0.035953
-0.094418   -0.029457   -0.010293    0.077405    -0.57936   -0.011267   -0.024909
-0.064211   -0.011917   0.0026992    0.091047    -0.28248    0.022512   -0.018413
-0.034329    0.009845   0.0062721    0.099167    0.067661    0.047198    -0.01549
-0.014516    0.028684   0.0065969     0.10566     0.37363     0.06019   -0.015165
-0.015165    0.038103   0.0095202     0.11541     0.57696     0.06961    -0.01484
-0.034654    0.037454    0.015692      0.1245     0.66823    0.075456   -0.013216
-0.062262    0.029658    0.021213      0.1336     0.68057    0.079029   -0.011592
-0.081426    0.019914    0.025111     0.14269     0.65394    0.078704   -0.010618
-0.077203    0.011794    0.030308     0.15049     0.61983    0.070584  -0.0080194
-0.047971   0.0078962    0.040702     0.15373      0.5906    0.057267  -0.0044465
-0.0067202   0.0075714    0.054344     0.15503     0.56754    0.040052 -0.00022403
0.030308   0.0091954    0.064413     0.15698     0.53636    0.024786   0.0026992
0.05142   0.0091954    0.067986      0.1638      0.4623     0.01829   0.0026992
0.054993   0.0072465    0.064737      0.1768     0.29633     0.01764  -0.0015233
0.046223  0.00075039    0.057267     0.18881   -0.021012    0.013743  -0.0083442
0.028034  -0.0093186    0.048822     0.18979    -0.51602  -0.0028225   -0.017114
0.0010752   -0.022636    0.041027     0.17582      -1.127   -0.034978   -0.026533
-0.030756   -0.034329    0.033881     0.15114     -1.7081   -0.075904   -0.034004
-0.060963   -0.042774    0.025761     0.12515     -2.0933    -0.11456   -0.039201
-0.0824    -0.04862    0.016666     0.10469     -2.1768    -0.13794     -0.0405
-0.089871   -0.052193    0.008221    0.088448      -1.953    -0.14152   -0.035303
-0.082076   -0.053168    0.003024    0.074482     -1.5106     -0.1295   -0.024909
-0.059664   -0.052193  0.00075039    0.062789    -0.99154    -0.10903   -0.013541
-0.024909   -0.047971 -0.00087364    0.055318    -0.52349   -0.086948  -0.0047713
0.015042   -0.037577  -0.0031473    0.054668    -0.18114   -0.066485  -0.0031473
0.05142   -0.020037  -0.0063954    0.062139    0.036154   -0.047971  -0.0037969
0.079679   0.0020496   -0.010293    0.074806     0.18037    -0.03238  -0.0031473
0.098193    0.022188   -0.011917    0.088448     0.30672   -0.021986 -0.00087364
0.10436     0.03583  -0.0080194     0.10079     0.44801   -0.017764   0.0017248
0.10112    0.041027   0.0020496     0.10794     0.60717   -0.019712   0.0052977
0.091047     0.03518    0.016341     0.10891     0.77314   -0.021661    0.009845
0.080653    0.022837    0.032257     0.10339     0.93912   -0.015815    0.019264
0.075781   0.0088706    0.045899    0.095919      1.1048   0.0020496    0.033231
0.076431  -0.0037969    0.057267    0.087149      1.2591    0.027385    0.049147
0.079679   -0.014516    0.062464    0.073182      1.3675    0.052395     0.06084
0.086824   -0.022311    0.060515    0.053044      1.3939     0.06961    0.067011
0.097218   -0.027833    0.053694    0.022512      1.3139    0.075131    0.067011
0.10469    -0.03238    0.042001   -0.019388      1.1139    0.069285    0.062139
0.10436   -0.035628     0.02706   -0.069083       0.766    0.053369     0.05142
0.08585   -0.037577    0.009845     -0.1191     0.23851     0.02641    0.035505
0.043625   -0.037902  -0.0093186    -0.16035    -0.44878   -0.010943    0.017316
-0.020362   -0.039851   -0.033354    -0.18179     -1.1604   -0.055441  -0.0011985
-0.089546   -0.041799   -0.055116     -0.1714       -1.71    -0.10091   -0.020362
-0.14639   -0.040175   -0.061288    -0.11845      -1.951    -0.13762    -0.04115
-0.17465   -0.029132   -0.043423   -0.027183     -1.8412    -0.15711   -0.059014
-0.17205   -0.016464   -0.010293    0.084551      -1.456    -0.15711   -0.068109
-0.14411   -0.016789    0.020239     0.18459    -0.94801    -0.14184   -0.067784
-0.10449   -0.042774    0.033556      0.2476    -0.46015    -0.11456   -0.059339
-0.069733   -0.092794     0.02706     0.26579   -0.077203    -0.07493   -0.039201
-0.044723    -0.14866     0.01017     0.23754     0.19109    -0.02361  -0.0054209
-0.027833    -0.18407  -0.0067202     0.15991      0.3798    0.032582    0.037778
-0.01549    -0.18082   -0.014516    0.036154     0.53863    0.083251    0.074806
0.003024    -0.13567   -0.012567     -0.1295     0.69974     0.12158    0.089423
0.03518   -0.061613  -0.0057458    -0.34127     0.87318     0.14009    0.079354
0.07773    0.016666  -0.0031473    -0.60891      1.0418     0.13847    0.057917
0.1219    0.079679  -0.0024977    -0.91326      1.1697     0.12223    0.041027
0.15926     0.11768    0.003024     -1.1958      1.2123    0.092671    0.036804
0.18329     0.12905    0.012768     -1.4024      1.1301    0.055968    0.038753
0.18784     0.11931    0.020239     -1.5093     0.91021    0.016991    0.036154
0.1664     0.10047    0.029658     -1.5008     0.58768   -0.019388    0.022837
0.12093      0.0865    0.048172     -1.3163      0.2489   -0.047971   0.0056225
0.054668    0.086824    0.076755    -0.87461   -0.010618    -0.06681  -0.0089938
-0.013866    0.098517     0.11248    -0.18991    -0.13697   -0.080451   -0.015815
-0.060963     0.11248     0.13555     0.57176    -0.13697   -0.093119   -0.018413
-0.070058     0.11703      0.1258      1.1983   -0.065186    -0.10741   -0.021986
-0.0405     0.10729    0.078704      1.5897    0.012443    -0.12463   -0.025884
0.008221     0.08585   0.0075714      1.7544    0.054344    -0.14379   -0.026533
0.051745    0.057267   -0.065835       1.771    0.054993    -0.16685   -0.022961
0.075456    0.027385    -0.12722      1.7284    0.040377    -0.19348   -0.018088
0.079029   0.0020496    -0.17075      1.6742    0.037129    -0.22207    -0.01549
0.065712   -0.019388    -0.19836      1.6079    0.055318    -0.24286   -0.016789
0.045249   -0.034978    -0.20745      1.5007    0.088448    -0.24578   -0.017439
0.028684   -0.043423     -0.2016      1.3224     0.13295    -0.22109   -0.012242
0.019264   -0.043423    -0.18634      1.0794     0.18232     -0.1701   0.0023744
0.01829   -0.039851    -0.16718      0.8014     0.23429    -0.10286    0.024461
0.019914   -0.036927    -0.14639     0.53343     0.28691   -0.035953    0.043625
0.01829   -0.032705    -0.12398     0.30997     0.33498    0.019914     0.05272
0.011469   -0.025559   -0.097991     0.14561     0.37103    0.061165    0.049796
0.0017248    -0.01484   -0.070707    0.032582     0.38662    0.088773    0.039078
-0.010943 -0.00087364   -0.041799   -0.050244     0.37818     0.10209    0.023812
-0.025559    0.011144   -0.013216     -0.1191       0.347     0.10534   0.0095202
-0.038876    0.014068     0.01017    -0.18342      0.2986     0.10112      0.0014
-0.049595   0.0088706    0.026085    -0.23896     0.24695    0.095269  -0.0021729
-0.053168   0.0010752    0.039078    -0.27858     0.19823    0.092021  -0.0050961
-0.040175  -0.0041217    0.048497    -0.30165     0.14984    0.089098   -0.010293
-0.0089938  -0.0034721     0.05272    -0.31756     0.10014      0.0865   -0.018413
0.037454   0.0039985    0.048822    -0.33965    0.045249    0.082602   -0.023935
0.089748     0.01764    0.032906    -0.38025   -0.010618    0.077405    -0.02426
0.1336    0.032257 -0.00054884    -0.44424   -0.059664    0.073832   -0.017764
0.15406    0.042001   -0.048945    -0.51537   -0.097341    0.071558  -0.0054209
0.14432    0.042975   -0.095393    -0.56247     -0.1217    0.074157   0.0069217
0.10436    0.035505    -0.12235    -0.55175    -0.14249    0.084551    0.010819
0.046873    0.027385    -0.11878    -0.46762    -0.17497    0.098193   0.0049729
-0.011917    0.019914   -0.086623    -0.32211    -0.22889     0.11151 -0.00022403
-0.063886    0.013093   -0.037902    -0.15743    -0.29223     0.11638 -0.00022403
-0.10286   0.0049729   0.0088706   -0.027183    -0.34257     0.10729   0.0072465
-0.12625  -0.0021729    0.041676    0.032906    -0.34549      0.0865    0.016341
-0.13502   -0.007045    0.056942    0.019589     -0.2578    0.062464    0.024461
-0.13015  -0.0080194    0.062139   -0.042774   -0.077203    0.044275     0.02706
-0.11358  -0.0057458    0.066037    -0.12268     0.14367     0.03518    0.028034
-0.092469  -0.0021729    0.073832    -0.19576     0.31679    0.032257    0.027709
-0.073955  0.00075039    0.076755    -0.25195     0.37525    0.029009    0.024137
-0.060638   0.0020496    0.069285    -0.28995     0.31744    0.021863    0.020564
-0.04862   0.0010752    0.055643    -0.31626     0.19174    0.014068     0.01829
-0.034329 -0.00054884    0.042326    -0.33737    0.065712    0.008221    0.019264
-0.020037  -0.0031473    0.034206    -0.35946   -0.018088   0.0043233    0.024137
-0.0089938  -0.0054209    0.033231    -0.38577    -0.04992  0.00010078    0.027709
-0.007045  -0.0018481    0.034855    -0.41468   -0.052518  -0.0060706    0.022512
-0.015815     0.01017    0.036479    -0.44326   -0.061613   -0.010618   0.0075714
-0.036278    0.027709    0.032906    -0.46925    -0.10384   -0.011917   -0.014191
-0.067459    0.041351    0.026085    -0.48938    -0.17757   -0.011267   -0.036278
-0.096042    0.047523    0.016991    -0.50368    -0.26884   -0.010293   -0.054142
-0.10514    0.047847   0.0065969    -0.52836    -0.35167  -0.0054209   -0.062912
-0.087922    0.049147  -0.0076946    -0.60112    -0.40201   0.0052977   -0.059989
-0.053492    0.057917   -0.023935     -0.7645    -0.40883    0.021863    -0.04992
-0.014516    0.076755   -0.038551    -0.99901    -0.38155    0.044924   -0.038227
0.018615    0.096244    -0.04927     -1.2426    -0.35004    0.067661   -0.031081
0.038103     0.10306   -0.056416     -1.4388    -0.34127    0.083251   -0.030756
0.03518    0.089748   -0.059989     -1.5788    -0.35361    0.089423   -0.031406
0.010495    0.059541   -0.058689     -1.6798    -0.36044    0.087474   -0.030756
-0.022961    0.022188   -0.055116     -1.6957    -0.33413    0.076755   -0.024585
-0.044073   -0.013541   -0.053168     -1.4921     -0.2513    0.057267   -0.014191
-0.038876   -0.034978   -0.052193    -0.92852    -0.11423    0.031932  -0.0024977
-0.0076946   -0.036278   -0.046996   -0.014191    0.058241   0.0052977   0.0078962
0.037454   -0.022636   -0.028157       1.033     0.22617   -0.017114    0.016016
0.075456  -0.0041217   0.0033489      1.9291     0.34375   -0.031406    0.021863
0.09397   0.0075714    0.039727      2.4868     0.37948   -0.043423    0.023812
0.090397   0.0062721    0.070909      2.6505     0.32848   -0.055766    0.022512
0.06831  -0.0050961    0.092671      2.4849      0.2174   -0.068758    0.019914
0.03518   -0.018738     0.10469      2.1175      0.0852   -0.079802    0.016991
-0.00087364   -0.029132     0.10534      1.6742   -0.057065   -0.084999    0.012768
-0.033679   -0.035303     0.09397      1.2402    -0.24091   -0.080776   0.0072465
-0.055766   -0.036278    0.069285     0.85727     -0.5079   -0.072331  -0.0028225
-0.068434   -0.030431    0.036154     0.53279    -0.85349   -0.069733    -0.01614
-0.072656   -0.020037   0.0036737     0.25897     -1.2225   -0.078827   -0.028157
-0.071357  -0.0093186   -0.024909    0.027709     -1.5278   -0.094743   -0.036278
-0.068109  0.00010078   -0.050569    -0.15516     -1.6882    -0.10449   -0.036927
-0.06616   0.0046481    -0.07493    -0.27956     -1.6597   -0.098316   -0.025884
-0.067459      0.0014   -0.096692     -0.3429     -1.4576   -0.081101  -0.0050961
-0.069083  -0.0089938    -0.11261    -0.35199     -1.1393   -0.061937    0.016016
-0.068434   -0.021661    -0.12008    -0.32925    -0.78171   -0.046996    0.031932
-0.063561   -0.031081    -0.12203    -0.29255    -0.45301   -0.037252    0.039402
-0.053817   -0.033679    -0.11586    -0.25585    -0.19186   -0.029132    0.042975
-0.037252   -0.028807    -0.10156    -0.22597  -0.0034721   -0.026533    0.044599
-0.019063   -0.019388    -0.08305     -0.2029     0.13002    -0.03238    0.043625
-0.0057458  -0.0089938   -0.059014    -0.18342     0.23169   -0.047321    0.038753
-0.00022403   0.0023744   -0.030756    -0.16393     0.31257    -0.06681     0.02706
-0.0024977    0.011469  -0.0060706    -0.14541     0.37395   -0.085324    0.009845
-0.0096434    0.014392    0.012768     -0.1282     0.41228   -0.097666  -0.0060706
-0.011592    0.011469    0.024461    -0.11488     0.42982    -0.10709   -0.019063
-0.0057458   0.0023744    0.032582    -0.10936     0.42722    -0.11358   -0.029132
0.0033489   -0.010293    0.041676    -0.12138     0.41033    -0.11943   -0.035953
0.0069217   -0.022636    0.051096    -0.15256      0.3876    -0.12852   -0.038876
0.0023744    -0.03303    0.055643    -0.19608     0.36259    -0.14216   -0.041799
-0.0067202   -0.039851    0.053369     -0.2435     0.33433    -0.15418   -0.052518
-0.01614   -0.043423    0.044924    -0.28735     0.30185    -0.15808   -0.068109
-0.023285   -0.042774     0.03583    -0.32568     0.26417    -0.15093   -0.080127
-0.026858   -0.043748    0.028684    -0.35621     0.22747    -0.13404   -0.084999
-0.026858   -0.048945    0.021863    -0.37927     0.19206    -0.11196   -0.081426
-0.026858   -0.057715   0.0091954    -0.39714     0.15958   -0.088247   -0.071032
-0.026533   -0.065186   -0.011917    -0.41338     0.14042   -0.067134   -0.058365
-0.022311    -0.06681   -0.037902    -0.41208     0.14302    -0.04927   -0.046347
-0.01484   -0.062587   -0.061288    -0.37603     0.17452   -0.032055   -0.036602
-0.0073698   -0.055766   -0.075579    -0.33218     0.22617   -0.016789   -0.029132
-0.00087364   -0.047646   -0.071682    -0.33283     0.28171  -0.0083442   -0.025559
0.0069217   -0.033679   -0.046996    -0.39097     0.32426  -0.0037969    -0.02361
0.021538   -0.012892  -0.0050961    -0.46697     0.36356   0.0017248   -0.021661
0.041027     0.01017    0.037778    -0.49458     0.40156    0.008221   -0.014516
0.053044     0.02641    0.061489    -0.41858     0.42625    0.013418  -0.0034721
0.054344    0.030957    0.054344    -0.20225     0.44314     0.01764   0.0062721
0.046548    0.025436    0.029658     0.14139      0.4701    0.022512    0.013093
0.036154    0.016016    0.010495      0.5461     0.52499    0.027709     0.01764
0.028684   0.0095202    0.012443     0.92061     0.60684    0.032906    0.020888
0.026735     0.01017    0.041027       1.185     0.69551    0.036154    0.024137
0.033556     0.01764    0.088124      1.2857     0.77672    0.039078    0.024786
