0.0065969    -0.02361   -0.072006   -0.099615     0.32134    0.044275    0.018615
0.010819    -0.02426   -0.053492   -0.090845     0.30769    0.033556    0.028359
0.01764   -0.021337   -0.043748   -0.073955     0.27814    0.021538    0.031282
0.021213    -0.01549   -0.042124    -0.05739     0.24371    0.015367    0.024786
0.020564  -0.0076946   -0.044073   -0.042774     0.22129    0.018615    0.016991
0.017316  -0.0011985   -0.042449   -0.029782     0.23169    0.029983    0.015367
0.015042      0.0014   -0.034004   -0.015815     0.27846    0.043625    0.023162
0.012119   0.0017248   -0.021012  -0.0041217     0.34505    0.054993    0.032906
0.0072465   0.0039985   -0.010618   0.0017248     0.39214    0.054668    0.037129
-0.0031473   0.0091954  -0.0060706  0.00010078     0.37103    0.042001    0.032582
-0.019063    0.013743  -0.0054209  -0.0096434     0.27619    0.018615    0.022188
-0.04115    0.015042  -0.0018481    -0.02361     0.13002   -0.010293   0.0088706
-0.061613    0.010495  0.00010078   -0.035628    -0.03173   -0.040825  -0.0054209
-0.071357  -0.0028225 -0.00087364   -0.042774    -0.17757   -0.063886   -0.017764
-0.067134   -0.019063  -0.0060706   -0.043099    -0.28216   -0.072331   -0.028482
-0.057715    -0.03173  -0.0099683   -0.035953    -0.32893   -0.068109   -0.036602
-0.048296   -0.035303   -0.010293   -0.024585    -0.32308   -0.056091     -0.0405
-0.037252   -0.030431  -0.0067202   -0.012892    -0.28833   -0.043099   -0.038876
-0.026858   -0.018738  -0.0015233  -0.0028225    -0.26007   -0.033679   -0.034654
-0.017439   -0.008669  0.00010078   0.0023744    -0.27956   -0.035953    -0.03303
-0.010618  -0.0057458  -0.0050961 -0.00022403    -0.36791   -0.054792   -0.033354
-0.0063954  -0.0099683    -0.01484   -0.012892    -0.51439    -0.09182   -0.037902
-0.0060706    -0.01614   -0.023285   -0.029782    -0.68687    -0.13957   -0.043748
-0.010293   -0.020037   -0.023285    -0.04862    -0.86064    -0.19511    -0.04992
-0.021012   -0.017439   -0.019388   -0.065186     -1.0354    -0.25422   -0.058689
-0.034654   -0.011267    -0.01549   -0.077853     -1.2124    -0.30489   -0.068434
-0.043423  -0.0073698   -0.012242   -0.086298      -1.369     -0.3351   -0.076554
-0.039851   -0.008669   -0.010293   -0.086623     -1.4648    -0.33965   -0.078503
-0.023935   -0.011917  -0.0080194   -0.081426      -1.494    -0.32048   -0.072331
-0.0073698   -0.015165  -0.0054209    -0.07493     -1.4719    -0.28248   -0.062262
0.0033489   -0.016789  -0.0018481   -0.068109     -1.4187    -0.23051   -0.051868
0.0056225   -0.013216    0.003024   -0.058365     -1.3625      -0.174   -0.042124
0.0049729  -0.0037969    0.011794   -0.046671     -1.3212     -0.1269    -0.03303
0.0033489   0.0091954    0.024786   -0.036927     -1.2926   -0.094418   -0.024585
-0.0011985    0.020564    0.036479   -0.028157     -1.2608   -0.072656   -0.018088
-0.0050961    0.024461    0.046223   -0.016789     -1.2027   -0.055116   -0.010618
-0.0096434    0.019589     0.05142   -0.007045     -1.0955   -0.036602  -0.0060706
-0.011917    0.014717     0.05207   0.0010752    -0.92073   -0.017114  -0.0015233
-0.0076946    0.015367    0.049796   0.0065969    -0.68102   0.0033489   0.0046481
0.00042559    0.019914    0.045899    0.010819    -0.41468    0.023487    0.013418
0.0059473    0.022837    0.040377    0.020239    -0.17789    0.039402    0.023162
0.0075714    0.024786    0.033881    0.037454  -0.0089938    0.046223    0.028359
0.008221    0.022837    0.033556     0.06019    0.087799    0.037129    0.030308
0.0075714    0.020239    0.044924    0.082602     0.13652    0.014392    0.029009
0.0052977     0.01829    0.064413     0.10209     0.17615  -0.0093186    0.025436
0.0036737    0.017965    0.084876     0.11443     0.25443   -0.025559    0.021538
0.0023744     0.01894    0.098517     0.11573     0.40091    -0.02426    0.016991
0.00042559     0.01829     0.10112     0.10501     0.60749  -0.0076946    0.013743
0.00010078    0.016666    0.095594    0.084876     0.82739    0.019589    0.012443
-0.00054884    0.014392    0.086175    0.059865      1.0057    0.048497    0.013418
-0.0018481    0.010819    0.075456    0.036154      1.1005    0.070259    0.013418
-0.0024977   0.0075714    0.064088    0.015367      1.1155    0.078055    0.011144
-0.0034721    0.003024    0.052395  -0.0021729      1.0853    0.070909   0.0049729
-0.008669  -0.0034721    0.042326   -0.016789      1.0671    0.052395  -0.0073698
-0.020687   -0.013216    0.037454    -0.02361       1.097    0.032257    -0.02426
-0.035628   -0.022311     0.03583   -0.021661      1.1743    0.017965   -0.038551
-0.051219   -0.025234     0.03453    -0.01549      1.2685    0.012119   -0.046347
-0.061937   -0.018738    0.031932  -0.0089938      1.3438    0.016016   -0.043423
-0.061288  -0.0054209    0.027709  -0.0031473      1.3753     0.02641   -0.030106
-0.043423   0.0085458    0.022512 -0.00087364      1.3526    0.041027   -0.011592
-0.016789    0.020564    0.012768  -0.0018481      1.2847    0.056292   0.0059473
0.0033489    0.027709  -0.0011985  -0.0054209      1.1918    0.067986    0.016016
0.012768    0.028034   -0.015815   -0.012567       1.095    0.073182    0.016991
0.013418    0.026735   -0.026858   -0.022311      1.0028     0.06896    0.014392
0.011794    0.026735   -0.028807   -0.030431     0.90274    0.061814    0.014068
0.013093    0.029009   -0.017114    -0.03303     0.76307    0.054344     0.01764
0.020564    0.030308   0.0017248   -0.029132     0.54415    0.050121    0.025436
0.029658    0.028684     0.01894    -0.02426     0.21252    0.047847     0.03583
0.03518    0.024137    0.025761   -0.026209    -0.22564    0.042326      0.0433
0.033231    0.016991    0.019589   -0.029782    -0.70213    0.028034    0.044275
0.023812   0.0085458   0.0062721   -0.034329     -1.1091   0.0078962    0.042651
0.009845   0.0010752  -0.0083442   -0.038227     -1.3381   -0.010293    0.040702
-0.00054884  -0.0034721   -0.014191    -0.04115     -1.3329   -0.017114    0.037129
-0.0021729  -0.0047713   -0.013541   -0.040175     -1.1107   -0.011917    0.029333
0.0062721  -0.0050961  -0.0089938   -0.037252    -0.74436  0.00075039    0.021538
0.019589  -0.0050961  -0.0054209   -0.033679     -0.3351    0.017965     0.01764
0.031282  -0.0060706  -0.0018481   -0.028482    0.022837     0.03583    0.020239
0.037454   -0.008669   0.0039985   -0.021661     0.27099    0.053369    0.024786
0.037454   -0.012567    0.010495  -0.0093186     0.39214    0.067661    0.026735
0.03453   -0.017114    0.014717   0.0049729     0.40871     0.07708    0.025436
0.028034   -0.019063    0.016016    0.019914     0.37071    0.078055    0.025761
0.01894   -0.017114    0.016991     0.03583     0.32783    0.072858    0.029333
0.0088706   -0.015165    0.016991    0.048822     0.31192    0.064413     0.03518
-0.00087364   -0.019063    0.015042    0.054019     0.31971    0.059216    0.037129
-0.010943   -0.027183    0.011794    0.047847     0.33498    0.056617    0.032257
-0.019063   -0.034654    0.012443    0.034206     0.34959    0.057592    0.023487
-0.02361   -0.038876     0.01829    0.019264     0.36291    0.058566     0.01829
-0.022961   -0.036602    0.024461   0.0088706     0.37883    0.057917     0.01894
-0.019712    -0.03173     0.02706   0.0020496     0.39734    0.051096    0.022837
-0.013541   -0.025884    0.023162  -0.0037969     0.41001    0.037778     0.02706
-0.0057458   -0.021337     0.01829  -0.0083442     0.40741    0.021863    0.024461
0.00075039   -0.020687     0.01764  -0.0089938     0.38435   0.0095202    0.016991
0.0023744   -0.026209    0.022188  -0.0028225     0.35154 -0.00054884   0.0069217
-0.0021729   -0.031406    0.029333   0.0095202       0.334  -0.0083442  -0.0018481
-0.0076946   -0.030431    0.031932    0.024786     0.36389    -0.01549  -0.0047713
-0.0096434   -0.022636    0.031282    0.038428     0.43502   -0.018738  -0.0015233
-0.0044465   -0.013866    0.028684    0.046548     0.48796    -0.01484   0.0065969
0.0039985  -0.0073698    0.028359    0.049796     0.43209   -0.008669    0.017316
0.017965  -0.0037969    0.028034    0.048822     0.20116  -0.0041217    0.028684
0.031607  0.00042559    0.024461    0.047847    -0.19121  -0.0015233    0.037778
0.042651   0.0052977    0.019589    0.047847    -0.64627  -0.0015233    0.042975
0.046873    0.010495    0.017316    0.049472     -1.0425  -0.0028225    0.042651
0.042651    0.016341    0.021538    0.054019     -1.2826  -0.0063954    0.038103
0.037129    0.021213    0.030957    0.057917     -1.3287  -0.0080194    0.029333
0.032582    0.024786    0.039727     0.06084     -1.2059  -0.0060706    0.016666
0.031932    0.025761    0.042651    0.067011    -0.97822   0.0020496   0.0020496
0.029658    0.021863    0.039402    0.074482    -0.72584    0.010819   -0.010293
0.022512    0.015042    0.030633    0.079679    -0.51212    0.013418   -0.019712
0.009845   0.0085458     0.01829    0.080653    -0.36856   0.0026992   -0.029782
-0.0028225   0.0026992   0.0056225    0.073182    -0.28963   -0.017764   -0.039201
-0.0093186  -0.0011985  -0.0050961    0.056292     -0.2539   -0.038551   -0.044723
-0.012242  -0.0041217    -0.01484    0.037778    -0.24188   -0.054142   -0.044398
-0.012242   -0.007045   -0.021986    0.028034    -0.24188   -0.062912   -0.040825
-0.0099683  -0.0093186   -0.022961     0.03453    -0.24968   -0.059014   -0.033679
-0.0073698   -0.012242   -0.017764     0.05272    -0.26169   -0.045697   -0.021986
-0.0047713   -0.015815  -0.0096434    0.072533    -0.27436   -0.027508   -0.010293
-0.0037969   -0.017439  -0.0047713    0.079354    -0.28573  -0.0089938  -0.0024977
-0.0018481   -0.017764   -0.010943    0.072533    -0.28865   0.0059473 -0.00054884
-0.0011985   -0.018413   -0.027833     0.05272    -0.27339    0.012443  -0.0031473
-0.0018481   -0.018413   -0.051868    0.022188    -0.23701   0.0078962  -0.0063954
-0.0021729   -0.019712   -0.074605   -0.011267    -0.18569  -0.0076946  -0.0067202
-0.0024977   -0.025234   -0.087597     -0.0405    -0.12852   -0.029457  -0.0076946
-0.0047713    -0.03238     -0.0837   -0.059664   -0.075255   -0.054142   -0.013216
-0.0080194   -0.038227    -0.06616   -0.063237   -0.036278   -0.075904   -0.023935
-0.0099683   -0.039526   -0.047321   -0.050894   -0.010293   -0.085973   -0.034329
-0.0031473   -0.036602   -0.037252   -0.032055   0.0052977   -0.087922   -0.040175
0.0069217   -0.030756   -0.036278    -0.01614    0.011469   -0.082076   -0.040175
0.016341   -0.026533    -0.04115  -0.0096434   0.0039985   -0.076554   -0.037252
0.01829   -0.021012   -0.050244   -0.012892   -0.019063   -0.077203   -0.035303
0.0091954   -0.018088   -0.059339   -0.027508   -0.059339   -0.087922   -0.036927
-0.012567   -0.019388   -0.067784   -0.050569    -0.11553    -0.10579   -0.043748
-0.039851   -0.027508   -0.075579   -0.076554    -0.18731    -0.12755   -0.053168
-0.063886   -0.039851    -0.08305   -0.099615    -0.27696    -0.14444   -0.064211
-0.075579   -0.050244   -0.087597    -0.11651    -0.37733    -0.15191   -0.072656
-0.073306   -0.056091   -0.087597    -0.12463    -0.45983    -0.15061   -0.075579
-0.065186   -0.059014   -0.085324     -0.1256    -0.47996    -0.14346   -0.072331
-0.059339   -0.059339   -0.080127    -0.11521    -0.40461    -0.13372   -0.062912
-0.060963   -0.054792   -0.072006   -0.092794    -0.23441    -0.12203   -0.056416
-0.066485   -0.045372   -0.062262   -0.062587  -0.0047713    -0.10936   -0.054792
-0.067459   -0.030756   -0.053168   -0.034329     0.23169   -0.094093   -0.054792
-0.056741   -0.010293   -0.044723   -0.017439     0.42592   -0.076879   -0.049595
-0.038227    0.012119   -0.036602  -0.0096434     0.55455   -0.057715   -0.039526
-0.025559    0.030308   -0.028157  -0.0057458     0.61853   -0.038551   -0.026858
-0.022961    0.042975   -0.019388  0.00075039     0.63023   -0.021337   -0.017439
-0.025234    0.048172   -0.013216    0.010819     0.60587  -0.0080194   -0.011592
-0.026209    0.048822   -0.014191    0.024461     0.55715    0.003024  -0.0096434
-0.02426    0.046223    -0.02426    0.042326     0.49316    0.012768   -0.007045
-0.019063    0.043625   -0.045047    0.058241     0.42235    0.021213  -0.0028225
-0.013866    0.039727   -0.078178    0.065387     0.35479    0.024461   0.0036737
-0.0096434    0.034206    -0.12105    0.062789      0.3012    0.019264    0.011794
-0.0073698     0.02706     -0.1662    0.054668     0.27261   0.0072465    0.016666
-0.0076946    0.022188    -0.20388    0.049796     0.28203  -0.0034721    0.015692
-0.0096434    0.021538    -0.22921     0.05142     0.33498  -0.0076946     0.01017
-0.010293     0.01764    -0.24253    0.053694     0.41618  -0.0060706   0.0010752
-0.013216    0.010495    -0.24675     0.05142     0.47887  -0.0054209  -0.0089938
-0.02361   0.0036737    -0.24675    0.039078     0.45418   -0.013541   -0.017764
-0.038551  0.00042559    -0.24383    0.021538     0.29795   -0.030431   -0.019388
-0.050894    0.003024    -0.24838   0.0033489     0.02641   -0.053168    -0.01614
-0.055441    0.011144    -0.26884  -0.0089938     -0.2919   -0.078827   -0.010618
-0.052518    0.019914    -0.30977   -0.013541    -0.57124    -0.10286   -0.007045
-0.044073    0.025436    -0.35264   -0.010293    -0.75248    -0.11748  -0.0031473
-0.035303    0.028684    -0.34322   0.0023744    -0.82686    -0.11618   0.0059473
-0.024585    0.031282     -0.2081    0.019589    -0.82556    -0.10124     0.01829
-0.015815    0.034206    0.067011    0.031607    -0.78756    -0.07428    0.029658
-0.0073698    0.037129     0.40351    0.033881    -0.74208   -0.046671    0.034855
0.0010752    0.037129     0.68674    0.028359    -0.70148    -0.02361    0.037454
0.012119    0.034855     0.82576     0.01829    -0.65244  -0.0096434    0.037778
0.023162    0.032582     0.77996   0.0069217    -0.56766  -0.0024977    0.037778
0.03453    0.031282     0.57111  -0.0028225    -0.42475   0.0010752    0.037778
0.040377    0.031282     0.27261   -0.007045    -0.22824   0.0049729    0.037454
0.036479    0.030957   -0.031406  -0.0060706  -0.0031473    0.014068    0.037778
0.02641     0.02641    -0.27501  -0.0073698      0.2109    0.025436    0.038753
0.015692    0.022188    -0.41825  -0.0099683     0.37753    0.036479    0.041027
0.0059473    0.024137    -0.42962  -0.0099683     0.46945    0.042001    0.042326
-0.0041217    0.032582    -0.27826  -0.0018481     0.47789    0.038753    0.039727
-0.013216    0.040702    0.040052    0.009845      0.4152    0.029983    0.036804
-0.017764      0.0433     0.45938    0.016666     0.30964    0.024786    0.031932
-0.021661    0.039727     0.86246    0.016341     0.19823    0.028359    0.028684
-0.022961    0.036154      1.1295    0.012443     0.10664    0.041676    0.031932
-0.019388    0.033881      1.1902   0.0085458    0.050446    0.057592    0.040052
-0.010293    0.033231      1.0567   0.0049729    0.021538    0.067986    0.044275
0.0023744    0.032582     0.80432  -0.0018481  -0.0031473    0.069285    0.041676
0.012443    0.030633     0.52044   -0.017114   -0.059664    0.063113    0.034206
0.016341    0.027385     0.27067   -0.037902    -0.16912    0.054344    0.023162
0.015042    0.020564      0.0865   -0.057715    -0.31626    0.047198    0.012443
0.01017    0.015692   -0.028157   -0.069083    -0.45853    0.044599   0.0043233
0.0049729    0.011144   -0.090521   -0.067459    -0.54655    0.043625  -0.0024977
0.00042559   0.0095202    -0.12365   -0.055116    -0.55954    0.038753   -0.011917
-0.0021729    0.008221    -0.14704   -0.041475    -0.51309    0.027385   -0.022311
0.0014   0.0088706    -0.17172   -0.034329    -0.44229    0.009845   -0.030431
0.0046481    0.010819    -0.19771   -0.035628    -0.37245  -0.0073698   -0.032055
0.0033489    0.014392    -0.22272   -0.042124    -0.30814   -0.019388   -0.027833
-0.0021729    0.016341    -0.24675   -0.051868    -0.24026   -0.021986   -0.019712
-0.0073698    0.016666    -0.26689   -0.059339    -0.15743   -0.018738  -0.0099683
-0.0067202    0.012768    -0.28021   -0.055766   -0.052193    -0.01549  -0.0024977
-0.0028225   0.0033489    -0.28735   -0.041475    0.067011   -0.019388   0.0043233
-0.00022403  -0.0073698     -0.2893   -0.021661     0.18037   -0.032705   0.0078962
-0.0028225   -0.017439    -0.28476  -0.0041217     0.26612   -0.053817    0.009845
-0.010943   -0.023935    -0.27566    0.010819     0.30737   -0.077203   0.0072465
-0.02426   -0.023935    -0.26007    0.023487     0.29762   -0.093444   0.0026992
-0.037902   -0.019388    -0.24675    0.030308      0.2463   -0.098316  -0.0044465
-0.045047   -0.012892    -0.24091    0.026735     0.17712   -0.086298   -0.015165
-0.041799  -0.0089938    -0.24253    0.011144     0.11898   -0.062912   -0.026209
-0.032055  -0.0063954    -0.24838  -0.0037969    0.097543   -0.037252   -0.033354
-0.019712  -0.0057458    -0.25422   -0.016464     0.11606   -0.014516   -0.034329
-0.0083442  -0.0057458    -0.25552   -0.024585     0.14984  -0.0015233    -0.03173
0.0010752  -0.0060706    -0.25033   -0.029782     0.16705   0.0017248   -0.028157
0.0069217  -0.0060706    -0.24253    -0.03238     0.14789  -0.0073698   -0.026209
0.009845  -0.0063954    -0.23798    -0.03238    0.092671   -0.027508    -0.02361
0.012768  -0.0076946    -0.23928   -0.025559    0.016016   -0.055766   -0.024909
0.015042   -0.012892    -0.24838   -0.011592   -0.058689   -0.089221   -0.030106
0.013093    -0.02361     -0.2591   0.0085458    -0.11683    -0.11878   -0.036278
0.0062721   -0.034329    -0.26722     0.02706    -0.15061    -0.13404   -0.038227
-0.0028225   -0.038551    -0.27111    0.038428    -0.16718    -0.12982   -0.036602
-0.0089938   -0.035628    -0.27079    0.040702    -0.18179    -0.10871   -0.033354
-0.010293   -0.030431    -0.26981    0.040052    -0.20031   -0.081101   -0.027833
-0.0093186   -0.030756    -0.27176    0.034855    -0.20745    -0.05739   -0.021337
-0.0034721   -0.036927    -0.27436    0.028034    -0.17789   -0.041475   -0.012892
0.0069217   -0.046022    -0.27079    0.023812   -0.096367   -0.030106   -0.007045
0.017965   -0.053168    -0.25812    0.023812    0.023162   -0.018413  -0.0060706
0.026085   -0.054142    -0.23766    0.023812     0.14886  -0.0037969   -0.012567
0.030308    -0.04927    -0.21785    0.022512     0.25475    0.012119   -0.021986
0.025436   -0.042124    -0.20323     0.01894     0.32491    0.025111   -0.027833
0.013093   -0.037252    -0.19543    0.012119     0.36096    0.033231   -0.027183
-0.0034721   -0.033679    -0.19154 -0.00054884     0.36908    0.034206   -0.021337
-0.013216   -0.033679     -0.1753   -0.012892     0.36161    0.027709   -0.017114
-0.015165   -0.034004    -0.10968   -0.021012       0.347    0.021538   -0.018088
-0.013866   -0.034004    0.044599   -0.021986      0.3327    0.022512   -0.019388
-0.0096434   -0.032055     0.27391   -0.018413     0.32328    0.033881   -0.016464
-0.0034721   -0.028807     0.51037   -0.014516     0.31094     0.05207   -0.012892
0.00075039   -0.023935       0.677   -0.011917     0.28885     0.06961  -0.0096434
0.0020496   -0.019063      0.7228   -0.010293     0.24338    0.080653  -0.0073698
0.0010752   -0.014191     0.64939  -0.0076946     0.15438    0.084551  -0.0060706
-0.00087364   -0.010943     0.49738  -0.0018481    0.018615    0.080328  -0.0044465
-0.0018481  -0.0073698     0.32588    0.010495    -0.12625    0.073182 -0.00054884
0.0056225  -0.0024977     0.18232    0.029333    -0.22142    0.066362   0.0052977
0.01829   0.0052977    0.088124    0.049472    -0.22369    0.064088    0.012119
0.031607    0.012119    0.036804    0.064737    -0.12495    0.064088    0.020239
0.041027    0.014068    0.012443    0.074157    0.032582     0.06896    0.025111
0.042975    0.011794  0.00075039    0.076431     0.18459    0.072533    0.022512
0.032582   0.0046481  -0.0080194    0.071883     0.28203    0.067336     0.01017
0.010495  -0.0073698   -0.015815    0.059541     0.30834    0.051096   -0.010293
-0.014516   -0.021012   -0.025884    0.042001     0.27261    0.029658   -0.029782
-0.032055   -0.030756     -0.0405    0.026735     0.19758    0.009845   -0.039201
-0.042449   -0.035303   -0.061937    0.019589     0.11671  -0.0024977   -0.038551
-0.045047   -0.033679   -0.086948    0.021538     0.06896  -0.0015233   -0.034978
-0.040175   -0.028157    -0.10871    0.026735    0.079029    0.010819    -0.03238
-0.030756   -0.018413    -0.12008    0.032582     0.14042    0.028359   -0.030431
-0.02426  -0.0060706    -0.12105    0.031932     0.21545    0.044924   -0.026209
-0.024909   0.0043233    -0.11196    0.023487     0.26579    0.054668   -0.019712
-0.028482   0.0078962   -0.095717   0.0085458     0.27294    0.054668   -0.012567
-0.030756   0.0046481    -0.07428  -0.0076946     0.24923    0.049472  -0.0067202
-0.026533  -0.0028225   -0.052193   -0.022961      0.2109    0.044275 -0.00022403
-0.017439  -0.0080194   -0.041799   -0.030431     0.16575    0.039727   0.0062721
-0.008669  -0.0073698   -0.059664   -0.027508     0.10696    0.033556    0.013418
-0.0044465  -0.0054209    -0.10968   -0.019388    0.024461    0.019589    0.017316
-0.0011985  -0.0024977    -0.18017   -0.012242   -0.075904  -0.0015233    0.018615
0.0017248  0.00075039    -0.25455  -0.0096434     -0.1688   -0.027508     0.01829
0.0043233  0.00042559    -0.31691  -0.0099683    -0.22467   -0.052193     0.01829
0.0095202  -0.0021729    -0.35264  -0.0067202    -0.23051   -0.070382    0.017965
0.014392  -0.0067202    -0.35296  0.00075039    -0.19121   -0.078178    0.016341
0.014717   -0.011267    -0.31756   0.0095202    -0.12268   -0.078503    0.015042
0.0059473   -0.014191    -0.25942    0.011794   -0.036278   -0.075255    0.011794
-0.0099683    -0.01614    -0.19154  0.00010078    0.052395   -0.072656   0.0059473
-0.02361   -0.021986    -0.12592   -0.025559     0.13035    -0.07493  -0.0034721
-0.030756   -0.029457   -0.071032   -0.059339     0.18524   -0.084674   -0.015165
-0.032055   -0.037252   -0.025559   -0.090196     0.21025    -0.10449   -0.028157
-0.031081   -0.044073    0.020888    -0.11228     0.20895    -0.12885   -0.042124
-0.030431   -0.048296    0.078055    -0.12527     0.18849    -0.14931   -0.053168
-0.033679   -0.050244     0.15244     -0.1308     0.16121    -0.15938   -0.060313
-0.041475   -0.050244      0.2463     -0.1308     0.13425    -0.16198   -0.059664
-0.049595    -0.04992     0.35284    -0.12787     0.10242    -0.15386   -0.055441
-0.054792   -0.045697     0.45516    -0.12722    0.062139    -0.13307   -0.045697
-0.056091   -0.032055     0.53116     -0.1282    0.016991    -0.10416   -0.029457
-0.053817   -0.013216     0.56234      -0.123   -0.021661   -0.074605   -0.012242
-0.046996   0.0075714     0.54805    -0.10124     -0.0405   -0.050569  -0.0011985
-0.034654    0.028684     0.49706   -0.062912   -0.030106   -0.035628  -0.0011985
-0.015165    0.049472     0.43177   -0.012892   0.0075714   -0.025884   -0.008669
0.008221    0.070259      0.3746    0.039078     0.06019   -0.018413    -0.01549
0.030957    0.091047      0.3418    0.087149     0.11183   -0.013216   -0.018088
0.048822     0.10891       0.334     0.12678     0.14399   -0.010618   -0.014191
0.057267     0.11801     0.33628     0.15471     0.14107  -0.0093186  -0.0034721
0.055318     0.12028     0.32816     0.16738    0.090397  -0.0060706    0.010495
0.048497     0.11573     0.29308     0.16445   -0.028482 -0.00022403    0.024786
0.042326     0.10826     0.22649     0.15179    -0.24545    0.012443    0.038428
0.039727    0.096893     0.13912      0.1349    -0.56441    0.033231     0.05272
0.042001    0.084226    0.047523     0.11703    -0.94249    0.058241    0.064088
0.042975    0.075131   -0.030106     0.10274     -1.2982    0.077405    0.070584
0.040702     0.06831     -0.0824    0.090072     -1.5544    0.082602    0.070259
0.034855    0.062789    -0.10676    0.075131     -1.6626    0.072208    0.061165
0.023812    0.053044    -0.11391    0.053694     -1.6161    0.048497    0.040702
0.011469    0.038428    -0.11488    0.031282     -1.4424     0.01829    0.012443
0.0033489    0.020239     -0.1178    0.011794     -1.1838    -0.01484   -0.011917
-0.00054884   0.0043233    -0.12333  -0.0054209    -0.88857   -0.046022   -0.021661
-0.0034721  -0.0057458     -0.1308   -0.022636    -0.60307   -0.072981   -0.018738
-0.0080194  -0.0096434    -0.13729   -0.039526    -0.36173   -0.092145   -0.012567
-0.013866   -0.010293    -0.13794   -0.051219    -0.18536    -0.10026  -0.0096434
-0.019712   -0.011592     -0.1321   -0.061288    -0.06681   -0.095068   -0.010293
-0.022311   -0.013866    -0.12463   -0.067784    0.012119   -0.081751   -0.010943
-0.020037    -0.01484     -0.1178   -0.068109    0.067011   -0.062912   -0.014191
-0.01614   -0.013216    -0.11391   -0.059664     0.10826   -0.040175   -0.017764
-0.013866  -0.0093186    -0.11326   -0.044723     0.14496   -0.014516   -0.018738
-0.013866  -0.0031473    -0.11553   -0.028157     0.18264   0.0088706   -0.014191
-0.013541   0.0017248    -0.11553  -0.0093186     0.21415    0.021538  -0.0057458
-0.0073698   0.0065969    -0.11293   0.0072465     0.23201    0.018615   0.0033489
0.0033489    0.010819    -0.10384    0.021213     0.23396   0.0085458    0.013093
0.014717    0.012768   -0.094418    0.029658      0.2187   0.0010752    0.021538
0.019589    0.012119   -0.086623    0.032906     0.19856   0.0017248    0.029333
0.016991   0.0091954   -0.078503    0.031932     0.18784   0.0078962    0.034855
0.011144   0.0056225    -0.07428    0.028359     0.19856    0.018615    0.034206
0.0065969   0.0020496   -0.075579    0.023487     0.22877    0.033556    0.029333
0.0059473   0.0010752   -0.077203    0.022837     0.26384    0.047198    0.022188
0.0088706 -0.00022403   -0.079802    0.024461     0.28788    0.046873    0.014068
0.0088706 -0.00087364   -0.084024     0.02641      0.2921    0.028684   0.0046481
0.0043233 -0.00087364   -0.088896    0.023162     0.27651  -0.0011985  -0.0024977
-0.0011985  -0.0050961   -0.097017    0.016341      0.2593    -0.02426  -0.0076946
-0.0021729   -0.012892    -0.10709   0.0085458     0.26417   -0.029782   -0.010293
0.0014   -0.022636    -0.11683   0.0033489     0.30867   -0.019388   -0.010293
0.0052977   -0.026209    -0.12365      0.0014      0.3889  -0.0024977  -0.0050961
0.0033489   -0.022636    -0.12657   0.0059473     0.48569    0.011794   0.0033489
0.0010752    -0.01484     -0.1269    0.016016     0.57469    0.016991   0.0088706
0.0049729  -0.0089938    -0.12398    0.028034     0.63672    0.015042    0.012443
0.014392  -0.0096434    -0.11845     0.03583     0.66108   0.0095202    0.014392
0.023162   -0.012567    -0.10481    0.037129     0.64354   0.0062721    0.012768
0.02641   -0.016464   -0.084349    0.036804     0.59093   0.0078962    0.010495
0.019914   -0.017114   -0.063237    0.038103     0.51719    0.014068     0.01017
0.0085458   -0.014191   -0.049595    0.042326     0.43339    0.022512    0.011794
-0.0011985  -0.0099683   -0.040825    0.049147     0.34407    0.031282    0.013743
-0.0060706  -0.0060706    -0.03303    0.053694     0.24436    0.038428    0.011469
-0.0083442  -0.0057458   -0.021337    0.053369     0.13327    0.039078   0.0017248
-0.010618  -0.0099683  -0.0044465    0.049796    0.022837    0.033231  -0.0089938
-0.014191    -0.01614    0.013093    0.040377   -0.061937    0.022512   -0.013866
-0.017114   -0.026209    0.029983    0.025111    -0.10709    0.011469   -0.010293
-0.019063   -0.036602      0.0433   0.0059473    -0.11261 -0.00022403  -0.0031473
-0.019063   -0.046022    0.053044   -0.013541   -0.097017   -0.015165   0.0020496
-0.016789   -0.050569    0.064088   -0.027508   -0.099615   -0.035303   0.0049729
-0.015815   -0.050569    0.078704   -0.034004    -0.15873   -0.054142   0.0056225
-0.01614   -0.045047    0.098517   -0.032055    -0.27306   -0.067784   0.0049729
-0.016789   -0.036278     0.11703   -0.027833    -0.41078    -0.07428    0.003024
-0.014191   -0.029132     0.13002    -0.02426    -0.53258   -0.076879   0.0052977
-0.0083442   -0.023285      0.1323   -0.024909    -0.61021   -0.076554   0.0088706
0.00042559   -0.018088     0.12158   -0.025234    -0.63652    -0.07493    0.012119
0.0056225   -0.014516    0.095594   -0.023285    -0.61736   -0.071357    0.014068
0.0036737   -0.013216    0.061165   -0.017439    -0.56734   -0.068758    0.013093
-0.0067202    -0.01549    0.028359   -0.011592    -0.50497   -0.065835   0.0095202
-0.018738   -0.021012   0.0046481   -0.011592    -0.45398   -0.062262   0.0010752
-0.026858   -0.026858  -0.0080194   -0.018738    -0.42832   -0.056741  -0.0099683
-0.029782   -0.032055   -0.015165   -0.029457    -0.42767   -0.051868   -0.019063
-0.027833   -0.034004   -0.019712   -0.038551    -0.44131    -0.04927    -0.02426
-0.022961   -0.034004   -0.022311   -0.045047    -0.45528   -0.052518   -0.021661
-0.018413   -0.034329   -0.022311   -0.048296    -0.46048   -0.065835   -0.013866
-0.019063   -0.034654   -0.017439   -0.045697    -0.44683   -0.091495  -0.0054209
-0.029782   -0.034329   0.0036737   -0.034654    -0.39292    -0.12885  -0.0041217
-0.046022   -0.030756    0.057592   -0.017764    -0.27923     -0.1675   -0.011592
-0.059664   -0.022311     0.14399  0.00075039    -0.10806    -0.19316   -0.020687
-0.064536  -0.0073698     0.24858    0.017316    0.087799    -0.19316   -0.022636
-0.064211   0.0095202     0.34147    0.025111      0.2567    -0.16718   -0.013216
-0.057065    0.023162     0.39734    0.022512     0.36486    -0.12495   0.0039985
-0.046022    0.029983     0.40741    0.011794     0.42008   -0.076554     0.01894
-0.035303    0.031282     0.38045  -0.0015233     0.44898   -0.034654    0.028034
-0.028157    0.029658      0.3353   -0.013216     0.47854  -0.0057458    0.032582
-0.02426    0.025761     0.29405   -0.022311     0.50875   0.0052977     0.03453
-0.021012    0.024461     0.27391   -0.029132     0.51849 -0.00022403    0.035505
-0.024909    0.026735     0.28138   -0.035628     0.48309   -0.013866    0.032257
-0.036927    0.027709     0.30964   -0.042124     0.39831   -0.029457    0.023162
-0.051219    0.026085      0.3405   -0.045047     0.28008   -0.040175    0.012119
-0.060313    0.022837     0.34407   -0.043099     0.15211   -0.040175      0.0014
-0.056416    0.016341      0.2986   -0.035303    0.039727   -0.032055  -0.0073698
-0.042774   0.0052977     0.19888   -0.029132   -0.039526   -0.019388   -0.013866
-0.028807  -0.0083442    0.041027   -0.030756   -0.081426  -0.0011985   -0.019388
-0.02361   -0.021337    -0.19089   -0.042449   -0.075255    0.024786   -0.021661
-0.025884    -0.03303    -0.53031   -0.060963   -0.014516    0.057917   -0.017439
-0.030756   -0.042774    -0.98959   -0.080451    0.090397    0.089098  -0.0073698
-0.034978    -0.04992     -1.5054   -0.094093     0.20116     0.11118  0.00075039
-0.031406   -0.054142     -1.9286   -0.096692     0.27261      0.1206   0.0046481
-0.021661   -0.055441     -2.1124   -0.088247     0.27554     0.11671      0.0014
-0.013541   -0.050894     -1.9923   -0.073306      0.2057    0.097868  -0.0034721
-0.010293   -0.042449     -1.6096   -0.054142      0.0865    0.064088  -0.0067202
-0.011592   -0.033354     -1.0825    -0.03238   -0.044398    0.024786  -0.0047713
-0.012242    -0.02426    -0.54882  -0.0067202    -0.15711  -0.0093186   0.0039985
-0.0093186   -0.016789    -0.11488    0.022837    -0.23896   -0.025234    0.014068
-0.0028225  -0.0057458     0.16575    0.054668    -0.29515   -0.022311    0.023162
0.01017    0.012119      0.2999      0.0865    -0.34517  -0.0018481    0.029983
0.024137    0.035505     0.32458     0.11086    -0.40461    0.028359    0.033556
0.033881    0.053369     0.28756     0.12093     -0.4673    0.055643    0.033881
0.038103    0.060515     0.22552     0.11768    -0.52641    0.070584    0.028034
0.038103    0.059541     0.16738     0.10242     -0.5904    0.065712    0.017965
0.037778     0.05272      0.1258    0.080328    -0.68037    0.037778   0.0052977
0.040377    0.044275     0.10339    0.056617     -0.8077   -0.007045  -0.0050961
0.042651    0.037778    0.088124     0.03583    -0.96783   -0.058689   -0.012242
0.037778    0.036804    0.073832    0.019914     -1.1364    -0.10774   -0.016789
0.026085    0.037129    0.064737   0.0088706     -1.2563    -0.14509   -0.018088
0.011794    0.038753     0.06896   0.0056225     -1.2602    -0.16555   -0.017439
0.0020496    0.038428      0.0852    0.012119     -1.0945     -0.1662   -0.018738
0.00010078    0.037778    0.099817    0.023487    -0.75248    -0.15126   -0.023935
0.0014    0.036804     0.11313    0.030308    -0.27534    -0.12755    -0.03238
0.0023744    0.033556     0.15731    0.023812     0.24955    -0.10579   -0.045697
-0.0011985    0.028359     0.28463   0.0049729      0.7176   -0.090845   -0.059664
-0.0096434    0.023487     0.51102   -0.020037      1.0664   -0.081426   -0.068758
-0.020687    0.020564     0.77639   -0.042449      1.2938   -0.071682    -0.07428
-0.03173    0.016666     0.98459   -0.054792      1.4348   -0.058365   -0.076879
-0.038227   0.0095202      1.0599   -0.058689      1.5296   -0.042124   -0.080127
-0.035953  0.00010078      0.9794   -0.058689      1.5933   -0.019063   -0.085648
-0.026209   -0.010618     0.77931   -0.060313      1.6043   0.0056225   -0.094418
-0.018413   -0.019388     0.52726   -0.063561       1.526    0.023162    -0.10611
-0.017439   -0.026209     0.29275   -0.067459      1.3347    0.028684    -0.11391
-0.021337   -0.027508     0.12255   -0.068434      1.0408    0.026735    -0.11001
-0.02361   -0.024909    0.028684   -0.063237     0.70233    0.025111   -0.093769
-0.022311   -0.019063  -0.0031473   -0.051219     0.39019    0.026735    -0.07493
-0.018088   -0.011267      0.0014    -0.03238     0.15958    0.028359   -0.056741
-0.011917  -0.0044465    0.017316   -0.012892    0.025111    0.028684    -0.04115
-0.0060706 -0.00087364     0.02706  0.00042559   -0.038876    0.026085    -0.03238
-0.00087364  -0.0015233    0.025436   0.0036737   -0.075255    0.019264   -0.027833
0.0020496  -0.0050961    0.013418   0.0010752    -0.11228    0.011469   -0.023935
-0.00022403  -0.0093186  0.00010078  0.00042559    -0.15613    0.008221   -0.021337
-0.0099683   -0.013866  -0.0057458    0.003024    -0.20648    0.012119    -0.01614
-0.022311   -0.019712  0.00042559    0.010495     -0.2539    0.025111  -0.0099683
-0.029457   -0.021986    0.020888    0.015367    -0.27891    0.043625  -0.0080194
-0.02361   -0.018088    0.057592     0.01894    -0.27079    0.061814  -0.0089938
-0.0037969  -0.0093186     0.10014    0.020888    -0.23441    0.074482  -0.0080194
0.021213   0.0023744      0.1349    0.024461    -0.18082    0.080978  -0.0034721
0.047198    0.013743     0.14886    0.029983    -0.12495    0.082602   0.0039985
0.067986    0.021863     0.13717    0.037454   -0.072006    0.080328    0.011469
0.078055    0.028684     0.10339    0.045574   -0.021012    0.073182    0.017316
0.075781    0.032906    0.055643    0.050446    0.025111    0.066362    0.023487
0.062789     0.03453   0.0078962    0.050121    0.061489    0.061489    0.027385
0.046873    0.033881   -0.028807    0.047523    0.080328    0.060515    0.029333
0.03518    0.029983    -0.04992    0.047523    0.076755    0.057592    0.028684
0.030633    0.024461   -0.059014    0.050771    0.048822    0.045574    0.023487
0.031282     0.01764   -0.060963    0.057267  -0.0031473    0.025436    0.014392
0.032906    0.012443   -0.059339    0.066686   -0.064861   0.0033489 -0.00054884
0.030633   0.0091954   -0.060963    0.076755    -0.12268   -0.013216   -0.016789
0.025436   0.0091954   -0.069083    0.080653     -0.1662   -0.019712   -0.027183
0.019264   0.0085458   -0.079152    0.078379    -0.19056   -0.017764   -0.029457
0.015042    0.009845   -0.090196    0.071234    -0.19478   -0.012567   -0.026533
0.011144    0.013743   -0.096367    0.062464    -0.17757  -0.0037969   -0.019712
0.0056225     0.01829   -0.094418     0.05207    -0.13827   0.0049729   -0.010943
-0.0054209    0.021538   -0.086623    0.045249   -0.084024    0.012768  -0.0018481
-0.017439    0.024137   -0.080127    0.042326   -0.027833    0.019264   0.0052977
-0.025234    0.024786   -0.080776    0.041676    0.016666    0.017965   0.0078962
-0.022311    0.020888   -0.084349     0.04395    0.043625   0.0033489   0.0085458
-0.0093186    0.014717   -0.089221    0.045899    0.049147   -0.019063   0.0075714
0.0039985    0.010819    -0.10059    0.044275    0.039078   -0.043748    0.003024
0.012443   0.0052977    -0.12398    0.039402    0.023487   -0.061613  -0.0018481
0.014068  0.00010078    -0.15873    0.032906    0.011144   -0.071032  -0.0034721
0.014717  -0.0031473    -0.19706    0.028684   0.0059473   -0.069408   0.0033489
0.016991  -0.0037969    -0.23279    0.028684  0.00042559    -0.05804    0.013743
0.020564  -0.0047713    -0.26137    0.030633   -0.012892   -0.043423    0.022512
0.024786  -0.0044465    -0.27826    0.028359   -0.039851   -0.029132    0.028684
0.028359  -0.0018481    -0.28476    0.022512   -0.080776   -0.016464    0.034855
0.035505      0.0014    -0.28703    0.013743    -0.12852  -0.0057458    0.041676
0.044924   0.0043233     -0.2893   0.0043233    -0.17497  0.00075039    0.046548
0.05142   0.0078962    -0.29288 -0.00022403    -0.21525   0.0065969    0.046873
0.05207   0.0091954    -0.29742      0.0014    -0.25033    0.012768    0.042001
0.045574    0.011144    -0.30457   0.0078962    -0.28216    0.012768     0.03583
0.036479     0.01017    -0.31626    0.015042    -0.31464   0.0033489    0.029009
0.026735   0.0075714    -0.31366    0.018615     -0.3429  -0.0099683    0.023812
0.022837    0.003024    -0.23538    0.014392    -0.35816   -0.021337    0.022512
0.021213  -0.0047713   -0.018088   0.0052977    -0.35524   -0.030106    0.020564
0.01764   -0.013541     0.31841  -0.0034721    -0.33055   -0.035953    0.016341
0.0078962   -0.021337     0.67278  -0.0060706    -0.28378   -0.035303    0.008221
-0.0028225   -0.026209      0.9323  -0.0044465    -0.21817   -0.026533  -0.0015233
-0.013541   -0.029782      1.0167  -0.0021729    -0.13762   -0.013541  -0.0083442
-0.024909   -0.037902     0.91411  0.00010078   -0.042124  -0.0060706   -0.010293
-0.035953   -0.051868     0.67538  -0.0018481    0.062789  -0.0044465   -0.007045
-0.046347   -0.065835     0.38337  -0.0063954     0.16445  -0.0080194  -0.0024977
-0.054792    -0.07428     0.11931   -0.013866      0.2502    -0.01484  0.00075039
-0.057065    -0.07493    -0.06616   -0.024909     0.31841   -0.017439    0.003024
-0.051868   -0.067134    -0.16425   -0.035303     0.37915   -0.011917   0.0062721
-0.039851   -0.054467    -0.18894   -0.039526     0.43989  0.00042559    0.008221
-0.028482   -0.040825    -0.17172   -0.036927     0.49965    0.014068    0.010819
-0.021661   -0.030756    -0.14346    -0.03173     0.54838    0.022188    0.011144
-0.017764   -0.024585    -0.12398   -0.025234     0.56851    0.021213     0.01017
-0.011267   -0.020037      -0.123   -0.018413     0.54708     0.01017    0.010495
-0.0015233    -0.01614    -0.13242  -0.0089938     0.48082  -0.0037969    0.015042
0.010495   -0.014516    -0.14054  0.00010078     0.38175    -0.01549    0.021538
0.021213   -0.013216    -0.14314   0.0088706     0.26482   -0.019388    0.027385
0.023162   -0.011592    -0.14216    0.014717     0.14107   -0.013866    0.031282
0.015692  -0.0080194    -0.14054    0.017965    0.010819  -0.0054209    0.031932
-0.00022403  -0.0057458    -0.14509    0.019589    -0.14769  -0.0067202    0.030308
-0.018738  -0.0034721    -0.15516    0.017965    -0.37148   -0.021012    0.031607
-0.030431  -0.0034721    -0.16847     0.01017    -0.68752   -0.044073     0.03583
-0.035953  -0.0054209    -0.17952   -0.008669     -1.0763   -0.065835    0.041027
-0.0405  -0.0093186    -0.18309   -0.038876     -1.4729   -0.084024    0.044924
-0.047971    -0.01549    -0.18309   -0.078503     -1.7893    -0.10416    0.041676
-0.058365   -0.025234    -0.18407    -0.12138     -1.9549    -0.12722    0.030633
-0.067459   -0.039851    -0.18212    -0.15938     -1.9341    -0.14801    0.015692
-0.073631   -0.053817    -0.17562    -0.18731     -1.7422     -0.1623   0.0026992
-0.071357   -0.061288    -0.16653     -0.2042     -1.4323    -0.16815  -0.0034721
-0.062262   -0.059989    -0.15386     -0.2094     -1.0685     -0.1636  0.00042559
-0.050244   -0.055441    -0.14249    -0.20355    -0.70441    -0.14866    0.009845
-0.040825   -0.051219    -0.13047    -0.18764     -0.3783    -0.13047    0.017316
-0.036602   -0.046022     -0.1191    -0.16328    -0.10416    -0.10968    0.021213
-0.035953   -0.035628    -0.10903    -0.12592      0.1219    -0.09182    0.021538
-0.035953   -0.023935    -0.10384   -0.081101      0.3051   -0.078827     0.01829
-0.03173   -0.011592    -0.10351   -0.038876     0.44541    -0.06616    0.011469
-0.022636 -0.00087364    -0.10514  -0.0037969     0.54155   -0.044723   0.0056225
-0.012567     0.01017    -0.10936    0.022188     0.60002   -0.011592    0.003024
-0.0047713    0.021213    -0.11715    0.042975     0.62795    0.020888   0.0046481
-0.0044465    0.029009    -0.12463    0.058241      0.6364    0.042975   0.0085458
-0.011592    0.031607    -0.12722    0.063763     0.63283    0.052395    0.008221
-0.022961    0.030308     -0.1243    0.061489     0.61853    0.050121   0.0023744
-0.036278    0.027709     -0.1178    0.054019     0.59385    0.042001  -0.0063954
-0.04992    0.026735    -0.11423    0.047198     0.56884    0.030633   -0.010943
-0.058365     0.02706    -0.12008    0.041676     0.54903    0.017965   -0.007045
-0.058689    0.028684    -0.13404    0.036479     0.52434   0.0069217    0.003024
-0.048296    0.031607    -0.15646    0.029333     0.47042      0.0014    0.014392
-0.034654    0.032906    -0.18342    0.024461     0.37558  -0.0015233    0.018615
-0.024585    0.032906     -0.2094    0.023812     0.25215  -0.0054209    0.013743
-0.020687    0.028684    -0.23181    0.024461      0.1349   -0.013216 -0.00087364
-0.018738    0.019914    -0.24773    0.023812    0.060515   -0.021986   -0.019063
-0.015815   0.0085458    -0.25357    0.021538    0.044924   -0.031081   -0.034004
-0.0099683 -0.00087364    -0.24188    0.019914    0.067011   -0.037577   -0.043423
-0.0031473  -0.0076946    -0.18244    0.021538     0.07773   -0.046022   -0.047646
0.0026992  -0.0093186   -0.038551    0.022512    0.037454   -0.058365   -0.050569
0.0052977  -0.0083442     0.18784    0.019264   -0.062262   -0.076229   -0.052843
0.00010078  -0.0076946     0.43859    0.010819    -0.18959   -0.094743   -0.058365
-0.014191  -0.0080194     0.63185   0.0023744     -0.2932    -0.10546   -0.063561
-0.030756  -0.0096434     0.71175  -0.0028225     -0.3312    -0.10514   -0.063237
-0.044073   -0.013216     0.66855  -0.0044465     -0.2854   -0.096692   -0.059664
-0.046996    -0.01549     0.53993  -0.0037969    -0.16458   -0.083375   -0.056416
-0.035953   -0.013216      0.3798 -0.00022403   0.0095202   -0.067134   -0.053492
-0.012567  -0.0037969     0.23526   0.0052977     0.20863    -0.04992   -0.052193
0.015042   0.0078962      0.1323    0.013418     0.39799   -0.032055   -0.050569
0.036154    0.019589    0.073507    0.023812      0.5565   -0.012242   -0.047646
0.039078    0.029333    0.050771    0.033881      0.6757   0.0095202   -0.039201
0.025761    0.038103    0.054019    0.041676     0.75495    0.029983   -0.028807
0.0046481    0.042001    0.072858    0.047198     0.79296    0.044924   -0.016464
-0.010943    0.041027    0.094295    0.050771     0.76989    0.054344  -0.0034721
-0.012242    0.038103     0.10664    0.049796     0.66173    0.058891   0.0062721
0.0014    0.036154     0.10631    0.042001     0.44574    0.055968   0.0091954
0.016666    0.036479    0.092671     0.02706     0.11866    0.045574    0.011144
0.029009    0.031607    0.069934    0.009845    -0.28151    0.032257    0.009845
0.034206    0.017316    0.043625  -0.0024977    -0.67095    0.021538   0.0072465
0.033231  0.00010078     0.01764   -0.007045     -0.9623    0.013418   0.0023744
0.027385    -0.01484   -0.010293  -0.0024977     -1.1013   0.0075714  -0.0034721
0.017316   -0.024909   -0.036278   0.0046481     -1.0942   0.0017248  -0.0076946
0.0059473   -0.029457   -0.058689   0.0069217    -0.98894  -0.0057458  -0.0067202
-0.0011985   -0.027833   -0.073631   0.0033489      -0.834   -0.017764 -0.00022403
0.00075039   -0.023285   -0.079152  -0.0060706    -0.67225    -0.03173   0.0095202
0.010495    -0.01614   -0.078178   -0.018738    -0.52609   -0.043748    0.016991
0.024461  -0.0096434   -0.074605   -0.030431    -0.39941   -0.050244    0.015692
0.033556  -0.0076946   -0.071682   -0.036927    -0.28086   -0.047321   0.0043233
0.033881   -0.010943   -0.067784   -0.035628    -0.15678   -0.034004   -0.011592
0.023162   -0.014516   -0.062587   -0.022961   -0.013541   -0.013216   -0.021012
0.0072465    -0.01549   -0.053492  -0.0011985     0.15146    0.008221   -0.018413
-0.0037969   -0.008669    -0.04115    0.025436     0.32523    0.025111   -0.010293
-0.0021729   0.0033489   -0.030106    0.050446     0.48536    0.034206  -0.0011985
0.008221    0.015367   -0.025559    0.067336     0.61464    0.038103   0.0039985
0.016341    0.023487   -0.027183    0.076755     0.70298    0.041676   0.0062721
0.018615    0.031607   -0.024585    0.083901     0.75203    0.046548   0.0059473
0.016666    0.037129   -0.018088    0.089098     0.76665    0.053044   0.0069217
0.016016    0.040702   -0.012892    0.091047     0.74911    0.058891   0.0075714
0.020564    0.038753   -0.012567    0.088773     0.70493    0.066037    0.008221
0.029658    0.036154   -0.016464    0.080978     0.63672    0.072533   0.0075714
0.039402    0.034206   -0.020037    0.067336     0.55032    0.078055   0.0059473
0.045249    0.033556   -0.019712    0.051745     0.45353    0.083576    0.003024
0.050446    0.030957   -0.011592    0.042975     0.35641    0.091047   0.0017248
0.052395    0.025436 -0.00022403    0.046223     0.26287     0.10112   0.0033489
0.05207    0.019914    0.009845    0.060515     0.17842     0.11248   0.0085458
0.049147    0.014717    0.016016    0.080328     0.10177     0.12158    0.016991
0.044599    0.014717    0.020888     0.10436    0.021863     0.12807    0.024786
0.03453    0.019914    0.024137     0.13132   -0.082076      0.1284    0.028684
0.01829    0.027709    0.022512     0.15406    -0.24026     0.11931    0.028034
0.00042559    0.030633    0.016991      0.1638    -0.46567    0.096893    0.025761
-0.013541    0.029658     0.01017     0.15309    -0.73721    0.054668    0.021538
-0.021012    0.025111   0.0026992     0.11541     -1.0032  -0.0047713    0.016666
-0.020687    0.019264   -0.007045    0.062139     -1.1975    -0.07493    0.010495
-0.015165    0.015367   -0.017764   0.0075714     -1.2634    -0.13892   0.0036737
-0.0041217    0.015692   -0.026533   -0.038227     -1.1815    -0.18374  -0.0011985
0.0085458    0.016341    -0.03238   -0.071032    -0.98309    -0.20518  -0.0034721
0.013743    0.016016   -0.032055   -0.088247    -0.72812    -0.20713  -0.0028225
0.0072465    0.011469   -0.027508    -0.09117    -0.48808    -0.19154  -0.0024977
-0.007045   0.0010752   -0.021661     -0.0837    -0.31659    -0.16588  -0.0041217
-0.022311   -0.010943   -0.021661   -0.072006    -0.22304    -0.13697  -0.0096434
-0.03303   -0.022636   -0.030431   -0.064536    -0.18829    -0.10936   -0.020362
-0.042449   -0.033679   -0.048296   -0.069733    -0.18212   -0.089546    -0.03303
-0.049595   -0.042449   -0.073955   -0.087922    -0.17335   -0.086298   -0.044073
-0.052193   -0.044723   -0.098316    -0.10806    -0.14346    -0.10709   -0.051544
-0.053492   -0.037902    -0.11683    -0.12073   -0.086298    -0.14184   -0.054792
-0.058689   -0.027508    -0.12592    -0.11878   0.0049729    -0.17497   -0.056741
-0.065835   -0.019712    -0.12755    -0.11001     0.12483    -0.19381   -0.057065
-0.072006   -0.018413    -0.12527    -0.10319      0.2541    -0.19381   -0.061937
-0.078503   -0.021337    -0.11943    -0.09994     0.36129    -0.17465   -0.068434
-0.085324    -0.02361    -0.11196   -0.095717      0.4204    -0.14314   -0.075904
-0.089221   -0.021012    -0.10254     -0.0837      0.4256    -0.10644   -0.081101
-0.084674   -0.013216   -0.090845   -0.059339     0.40903   -0.072006   -0.080776
-0.073306  -0.0047713   -0.076554   -0.029782     0.41943   -0.043748   -0.072981
-0.059339    0.003024    -0.06551  -0.0044465     0.48601   -0.019063   -0.061613
-0.046347    0.009845   -0.059989    0.012119     0.59417   0.0026992   -0.051219
-0.037252    0.010819    -0.05804    0.017316     0.70298    0.017965   -0.043423
-0.03173   0.0043233   -0.050244    0.012119     0.77639    0.023162   -0.039851
-0.027833  -0.0060706   -0.024585  -0.0021729     0.80562    0.018615   -0.040825
-0.028807   -0.016789    0.033231   -0.021337     0.81667    0.008221   -0.044723
-0.034978   -0.024585     0.12678   -0.040175     0.84298  -0.0037969   -0.048945
-0.042774   -0.027833     0.23786   -0.054467     0.88975   -0.011267    -0.04927
-0.048945    -0.02426     0.32718   -0.060313     0.91638   -0.012242   -0.046671
-0.054142   -0.018738     0.36486    -0.05739     0.86474  -0.0096434   -0.043423
-0.059664   -0.016464     0.33952   -0.046996     0.70948   -0.011917   -0.037902
-0.059664   -0.017439     0.26709   -0.035303     0.48179   -0.020037   -0.025559
-0.053168   -0.019063     0.17452   -0.022636     0.24533   -0.023935  -0.0073698
-0.046347   -0.019388    0.087149  -0.0096434    0.063113   -0.017114    0.012443
-0.039526    -0.01614    0.024786   0.0043233   -0.039851   0.0017248     0.02706
-0.030431  -0.0096434  -0.0054209    0.019264   -0.076554    0.026735    0.031282
-0.017764  -0.0011985   -0.014516    0.036154   -0.081751    0.050446    0.027709
-0.0034721    0.008221   -0.018413    0.054668   -0.089871    0.069285     0.01894
0.010495    0.014068   -0.023935     0.06896     -0.1191    0.081303    0.012443
0.018615    0.016991   -0.034978    0.072858    -0.16685    0.087474    0.013418
0.024137    0.014392   -0.051544    0.065712    -0.21785    0.087149    0.023487
0.025761   0.0059473   -0.068434    0.049147    -0.25455    0.082927    0.041676
0.022512  -0.0037969   -0.080776    0.026085    -0.26559     0.07708    0.063113
0.016666  -0.0099683     -0.0837   0.0017248    -0.24318    0.075781     0.07773
0.010819   -0.013541   -0.081101   -0.017439    -0.19089     0.07708    0.083251
0.0069217   -0.017764   -0.077853   -0.030106    -0.11683    0.078055    0.083251
0.0052977   -0.024909   -0.074605   -0.034004   -0.038551    0.075131    0.081952
0.0046481   -0.027833   -0.069083   -0.030431    0.022837    0.066686    0.080003
0.010819   -0.025884   -0.061937   -0.023285    0.050121    0.054019    0.074482
0.025761   -0.017764   -0.054792   -0.017764    0.039078    0.044599    0.066362
0.043625   -0.010618    -0.04862    -0.01484 -0.00022403    0.039402    0.056617
0.055318   -0.007045   -0.046022   -0.012242   -0.049595    0.032582    0.047847
0.056942  -0.0063954   -0.046022   -0.010293   -0.097341    0.019589    0.038103
0.047198  -0.0050961    -0.04927   -0.007045    -0.13502      0.0014    0.028034
0.03453 -0.00022403   -0.051868  -0.0024977    -0.15905   -0.012567    0.019589
0.025111   0.0085458   -0.050244   0.0075714      -0.161  -0.0099683    0.016666
0.025111    0.019264   -0.042774    0.023162    -0.12527   0.0072465    0.021213
0.034855    0.029009   -0.029457      0.0433   -0.050569    0.029333    0.031282
0.046548    0.034206   -0.013541    0.061489     0.04395    0.050121    0.042975
0.054993     0.03453      0.0014    0.073507      0.1323    0.062139    0.049796
0.053369    0.028359     0.01017     0.07708     0.18784    0.062789     0.05142
0.042975    0.019914   0.0091954    0.068635     0.19628    0.050121    0.046873
0.02641     0.01017  -0.0011985    0.047523     0.15438    0.029658    0.037454
0.011469  -0.0015233   -0.016464    0.016991    0.075131   0.0043233     0.02706
-0.00022403   -0.012242   -0.030431   -0.010293    -0.02361   -0.017114    0.015042
-0.0067202   -0.018088   -0.039201   -0.027508    -0.12592   -0.029132   0.0043233
-0.0060706   -0.019063     -0.0405   -0.034978    -0.21882   -0.027508  -0.0018481
-0.0015233   -0.017439   -0.038551   -0.034654     -0.2958   -0.013866  -0.0015233
0.0059473   -0.013866   -0.036927   -0.031406    -0.35524   0.0085458   0.0033489
0.013743   -0.010293   -0.039526   -0.027183    -0.40136    0.030633   0.0049729
0.017965  -0.0060706   -0.047971   -0.021986    -0.43287    0.044275   0.0017248
0.015042  -0.0024977   -0.062912   -0.010293    -0.44424    0.043625  -0.0015233
0.010495   0.0017248   -0.076879   0.0010752    -0.42865    0.032906   0.0010752
0.0072465   0.0059473   -0.080776   0.0056225    -0.38674    0.016016   0.0059473
0.0078962   0.0059473   -0.070058   0.0020496    -0.33835  0.00010078     0.01017
0.0085458   0.0049729   -0.051544  -0.0080194    -0.32243   -0.014191    0.011469
0.0062721   0.0069217   -0.031081   -0.021012    -0.37765   -0.031406   0.0085458
-0.00022403    0.013743   -0.017764   -0.028807    -0.51147   -0.052518   0.0033489
-0.0050961    0.023487   -0.015165   -0.025559    -0.69336    -0.07428  -0.0031473
-0.0044465    0.031607    -0.02361  -0.0089938    -0.87006   -0.091495   -0.010943
0.0036737    0.033881   -0.033679    0.015042    -0.98731    -0.09994   -0.013216
0.013093    0.031282   -0.037577    0.036479      -1.012   -0.094093  -0.0096434
0.015692    0.027385    -0.03238    0.050121    -0.94184   -0.080451  -0.0050961
0.0039985    0.021213   -0.019712    0.053694     -0.8038    -0.06551  -0.0037969
-0.014516    0.014392  -0.0067202    0.048822    -0.64139   -0.052518  -0.0096434
-0.032705   0.0059473   0.0026992     0.03518     -0.4962   -0.044398   -0.022311
-0.044723 -0.00022403   0.0062721    0.018615    -0.39454   -0.045697   -0.039851
-0.046671  -0.0034721     0.01017   0.0043233    -0.34225   -0.056416   -0.055116
-0.039851  -0.0037969    0.032257  -0.0073698    -0.32178   -0.070058   -0.061937
-0.029457  -0.0034721    0.075456   -0.015165    -0.30847   -0.077853    -0.05804
-0.020362  -0.0050961      0.1245   -0.013866    -0.27728   -0.072981   -0.048296
-0.013541   -0.007045     0.15341  -0.0057458      -0.212   -0.061288   -0.033679
-0.0093186  -0.0083442     0.13327   0.0075714    -0.11715    -0.04992   -0.018738
-0.013216  -0.0089938    0.054019    0.022837  -0.0099683   -0.042774  -0.0063954
-0.02361  -0.0083442   -0.072981    0.032906    0.083251   -0.043099 -0.00087364
-0.035303  -0.0073698    -0.22012    0.033881     0.14269   -0.046671  -0.0057458
-0.042124   -0.007045    -0.35394    0.029658      0.1638   -0.054467   -0.019063
-0.042774   -0.008669    -0.45008    0.022188     0.16283   -0.062912   -0.035303
-0.038876   -0.012242    -0.49133    0.009845     0.15633   -0.068758   -0.044723
-0.033354   -0.016464    -0.47867   -0.007045     0.15406   -0.071357   -0.044398
-0.026858   -0.019388    -0.42442   -0.025559     0.16153   -0.070382   -0.036602
-0.021337   -0.021012    -0.35199   -0.042124     0.18362   -0.067784   -0.028157
-0.017439   -0.020687    -0.28378   -0.048945     0.22097   -0.063237   -0.023285
-0.015165   -0.018738    -0.23051   -0.045697     0.26839   -0.055441   -0.021012
-0.013216   -0.015815    -0.18991   -0.037252     0.32523   -0.046996   -0.019388
-0.011917    -0.01484    -0.15126   -0.030106     0.39117   -0.036927   -0.017114
-0.01549   -0.016464    -0.11066   -0.025234      0.4571   -0.025234   -0.014191
-0.021337   -0.021986   -0.055766   -0.019388      0.5107   -0.020037   -0.012567
-0.02361   -0.026858    0.039402   -0.013541     0.53928   -0.022636   -0.012892
-0.019388   -0.028157     0.21675   -0.012567     0.53831   -0.030106   -0.011917
-0.010943   -0.025559     0.50323   -0.014516     0.51849   -0.034004  -0.0076946
0.0017248   -0.018738     0.85532   -0.020362     0.49413   -0.032055  -0.0057458
0.011469  -0.0096434      1.1662   -0.025234     0.48569   -0.024909  -0.0073698
0.013418 -0.00054884      1.3299   -0.026209     0.50095    -0.01614   -0.011917
0.0091954   0.0065969      1.2993   -0.019388     0.53149  -0.0050961  -0.0096434
0.003024    0.012443      1.0989  -0.0073698     0.56007   0.0088706  -0.0031473
0.0023744    0.021213      0.8105   0.0085458     0.56624    0.022512   0.0065969
0.011469    0.033231     0.52629    0.022837     0.53733    0.029009    0.014392
0.029009    0.047523     0.31062    0.033231     0.47822    0.028359    0.017965
0.047198    0.057267     0.17842    0.032582     0.41131    0.020239    0.016341
0.059865    0.058241     0.10826    0.022512     0.36161   0.0059473    0.011469
0.065387    0.049472    0.062789   0.0085458     0.33855  -0.0073698   0.0075714
0.058891    0.032906    0.013743  -0.0063954      0.3444    -0.01614   0.0043233
0.041676    0.015042   -0.046022   -0.018413     0.37395   -0.017439   0.0010752
0.022188  -0.0034721    -0.11001   -0.023285     0.41131   -0.013216 -0.00054884
0.0046481   -0.021337    -0.16912   -0.020362     0.41813  -0.0060706 -0.00087364
-0.010293   -0.033354     -0.2146   -0.013541     0.34017  -0.0011985  0.00075039
-0.022311   -0.037902    -0.24123  -0.0080194      0.1219 -0.00087364   0.0033489
-0.030431   -0.034329     -0.2526  -0.0063954    -0.26657  -0.0099683   0.0088706
-0.036602   -0.026858    -0.25098   -0.010618    -0.78041   -0.030431    0.014392
-0.039851   -0.019712    -0.23993   -0.017114     -1.3066   -0.059014    0.015692
-0.040175   -0.014191    -0.22337   -0.018088     -1.7165   -0.084674    0.012768
-0.035303  -0.0089938     -0.2081  -0.0089938     -1.9176    -0.10189   0.0078962
-0.022961  -0.0057458    -0.20453   0.0056225     -1.8792    -0.10774   0.0033489
-0.0050961  -0.0037969    -0.20972    0.016016     -1.6347    -0.10254  0.00010078
0.013093  -0.0060706    -0.21817     0.01764     -1.2699   -0.085324  -0.0024977
0.021538   -0.010293    -0.22532    0.013418    -0.88273   -0.059339  -0.0076946
0.017316   -0.010618    -0.23181    0.009845    -0.54395   -0.031081   -0.013216
0.0072465  -0.0096434    -0.23538    0.010819     -0.2867  -0.0093186   -0.018088
-0.0018481   -0.010618    -0.23116    0.013093    -0.10221    0.003024   -0.020362
-0.0024977   -0.014516    -0.22142    0.014392    0.036804    0.008221   -0.018088
0.0010752   -0.020037    -0.20875    0.016666     0.15731   0.0091954  -0.0093186
0.0052977   -0.025559    -0.19673    0.024137     0.27586    0.011144    0.003024
0.0043233   -0.028807    -0.18634    0.034855      0.3876    0.012443    0.015692
-0.0034721   -0.030756    -0.17432    0.047198     0.48666    0.011794    0.024786
-0.014191   -0.028157      -0.161    0.055318     0.56462   0.0072465    0.028359
-0.018413   -0.019712    -0.14639     0.05272     0.61691  -0.0021729    0.025761
-0.014516  -0.0093186    -0.13697    0.044275     0.64907   -0.011917     0.01764
-0.0076946  -0.0018481    -0.13632    0.037454     0.66466   -0.014191    0.011144
-0.0057458  0.00042559    -0.14541     0.03518     0.65914  -0.0073698    0.009845
-0.012892  -0.0011985    -0.15126    0.037454     0.61853   0.0052977    0.013418
-0.022961  -0.0050961    -0.15093    0.037454        0.55     0.01764     0.01764
-0.028482  -0.0080194    -0.14639    0.031282     0.46652    0.026735    0.017316
-0.027183   -0.010293    -0.14022    0.020888     0.37623    0.031607    0.011144
-0.019063   -0.013216    -0.13794    0.009845     0.28528    0.030633      0.0014
-0.0073698   -0.016464    -0.13599  -0.0018481     0.20246    0.025436  -0.0063954
0.00075039   -0.019712    -0.13145   -0.010943     0.13425    0.023812   -0.012567
0.0023744   -0.021012    -0.12105   -0.015165    0.088124    0.027709   -0.015165
-0.0034721   -0.020037    -0.10741   -0.017114    0.059865    0.038103    -0.01484
-0.010618   -0.020037   -0.094418   -0.014191    0.043625    0.048172   -0.012892
-0.0099683   -0.019388   -0.088247  -0.0041217    0.020239    0.053369   -0.014191
-0.0018481   -0.017764   -0.087922    0.009845   -0.028157    0.051745    -0.01484
0.0052977   -0.014191   -0.090845    0.017316    -0.10189    0.044275   -0.017114
0.003024   -0.010293   -0.094093     0.01764    -0.18374    0.032906    -0.01614
-0.0060706  -0.0073698   -0.094093    0.016666    -0.24708    0.020239    -0.01484
-0.01614  -0.0041217   -0.090521    0.016341    -0.27469    0.011144   -0.016789
-0.026209  -0.0034721   -0.082725    0.016666    -0.27599   0.0023744   -0.022311
-0.033679  -0.0060706   -0.072656    0.015367    -0.27469   -0.007045   -0.029457
-0.034654   -0.012242    -0.06551   0.0072465    -0.28735   -0.021661   -0.036927
-0.030756    -0.01549   -0.061288  -0.0083442    -0.30717   -0.046671   -0.042774
-0.021661   -0.013866   -0.054467   -0.026858    -0.30879   -0.082076   -0.046996
-0.011917   -0.010618   -0.046671   -0.042774    -0.26851     -0.1217   -0.047321
-0.0083442  -0.0096434   -0.037577   -0.050894    -0.18439    -0.15256   -0.043423
-0.010943   -0.008669   -0.031081   -0.046671   -0.071032     -0.1675   -0.035953
-0.016789   -0.007045   -0.024909   -0.026858    0.052395    -0.16328   -0.030106
-0.020362  -0.0041217   -0.020687   0.0026992     0.17127    -0.14152   -0.028482
-0.019712      0.0014   -0.017439    0.033231     0.27359    -0.10774   -0.027183
-0.013866   0.0091954   -0.012242    0.051096     0.35187   -0.068758   -0.027183
-0.0054209    0.014392  -0.0060706    0.054019     0.39961   -0.028157   -0.026858
0.0039985    0.015367  0.00075039    0.047198     0.41715   0.0072465   -0.028482
0.0075714    0.013743   0.0052977    0.036804     0.40676    0.030633   -0.029782
0.0062721    0.011144   0.0046481    0.030633      0.3772    0.039727   -0.031406
0.00042559   0.0075714  0.00042559    0.031282     0.33693     0.03518   -0.032055
-0.0054209   0.0036737  -0.0021729     0.03518     0.29438    0.023487   -0.028482
-0.0099683   0.0033489   0.0056225    0.038428     0.26027    0.012443   -0.025884
-0.008669   0.0078962    0.024786    0.037129     0.24241    0.010819   -0.024585
-0.00022403     0.01764    0.047523    0.029658     0.23591    0.019589   -0.023935
0.01017    0.028034    0.063113     0.01764     0.23494     0.03583   -0.021012
0.015042    0.032906     0.06896   0.0023744     0.23169    0.048822   -0.019712
0.014068    0.028359    0.075131   -0.011592     0.22194    0.050446   -0.024909
0.0095202    0.022512     0.10501   -0.020687     0.20798      0.0433   -0.036927
0.0056225    0.019589     0.17095   -0.022961     0.19953    0.038428    -0.04927
0.003024    0.023812     0.26677   -0.017439      0.2083    0.041027   -0.056416
0.0017248    0.030957     0.37071  -0.0050961     0.24858    0.049147   -0.055766
0.0017248    0.038428     0.45646    0.009845     0.32036    0.054344   -0.044723
0.0026992    0.044275     0.50225    0.025111     0.40416    0.059216   -0.027833
0.0056225    0.046873      0.5055    0.040377     0.46652     0.06019   -0.013216
0.010495    0.045899     0.47627    0.053044     0.47789    0.055318  -0.0047713
0.016016    0.042651     0.43437    0.064737     0.42755    0.041351  0.00042559
0.022188    0.037454     0.39474    0.076106     0.33173     0.01894   0.0039985
0.029009    0.033556     0.36583    0.083251     0.22097  -0.0050961   0.0026992
0.03518    0.031607     0.34894    0.079354     0.11313   -0.023285  -0.0028225
0.036479    0.030308      0.3379    0.061814   -0.012242   -0.027508  -0.0076946
0.028034    0.029333     0.31257    0.030308    -0.19771   -0.023285  -0.0089938
0.012768    0.026085     0.25118  -0.0096434    -0.47899   -0.015165   -0.008669
-0.00054884    0.021538     0.14464   -0.047646    -0.86129   -0.013866  -0.0099683
-0.010618    0.013418  -0.0031473   -0.076554     -1.3128   -0.021012   -0.010293
-0.015815      0.0014    -0.20096   -0.096692     -1.7639   -0.035953  -0.0096434
-0.018088   -0.012892    -0.48191    -0.11293     -2.1163   -0.054792  -0.0044465
-0.021337   -0.028482    -0.84895    -0.12722     -2.2645   -0.076554   0.0026992
-0.026533   -0.045047     -1.2228    -0.13827     -2.1433   -0.097666    0.010819
-0.035628   -0.060638     -1.4849    -0.14834     -1.7717    -0.11131    0.015042
-0.04927   -0.066485     -1.5453    -0.16133     -1.2426    -0.11618    0.012443
-0.059989   -0.060638     -1.3774    -0.18017    -0.69076    -0.11553   0.0023744
-0.062262   -0.048296     -1.0347    -0.19673    -0.23409    -0.10806  -0.0083442
-0.060313   -0.034654    -0.63035     -0.2042    0.073507   -0.093444   -0.014516
-0.056416   -0.025234    -0.27696    -0.19641     0.24241   -0.077203   -0.013541
-0.050569   -0.021986   -0.046022    -0.17562     0.32361   -0.061613  -0.0076946
-0.044073   -0.023285    0.052395    -0.14736     0.36129   -0.044723  0.00075039
-0.038227   -0.026858    0.058566    -0.11878     0.37948   -0.030106    0.008221
-0.032705   -0.030106    0.032257   -0.092469      0.3863   -0.016789    0.011794
-0.026858    -0.03173    0.020239   -0.069408     0.38825  -0.0057458    0.011144
-0.016789   -0.031081    0.038103    -0.04992     0.39442 -0.00087364   0.0078962
-0.0080194   -0.027833    0.074806   -0.036927     0.41196  0.00042559   0.0049729
-0.0021729   -0.022961     0.11411   -0.029457     0.44054   0.0056225   0.0043233
-0.0028225    -0.01614     0.14529   -0.023935     0.47854    0.014068   0.0072465
-0.0093186  -0.0093186     0.16413   -0.013541      0.5159    0.027709   0.0095202
-0.014191  -0.0037969     0.16933   0.0017248     0.53896    0.039078   0.0095202
-0.01549  -0.0034721     0.16608    0.020564     0.53506    0.039727   0.0072465
-0.015815  -0.0093186      0.1651    0.041027     0.49836    0.029009   0.0072465
-0.014191   -0.017439     0.18329    0.061489     0.43437    0.015042    0.011144
-0.0096434   -0.022636     0.23754    0.078704     0.35641  0.00042559    0.016666
-0.0015233   -0.022961     0.33433    0.087149     0.28398   -0.015165    0.023487
0.0075714   -0.018413     0.45386      0.0852     0.23689   -0.030756    0.030633
0.014717   -0.007045     0.55877    0.074806     0.23981   -0.039851    0.036479
0.019914   0.0085458     0.61204    0.064737     0.30542   -0.038227    0.039078
0.020239    0.021538     0.60099    0.061489     0.42982   -0.025559    0.041676
0.014392    0.029658     0.53766    0.062139     0.58833  -0.0054209    0.048172
0.0065969    0.031607     0.44574    0.067986     0.74456    0.019264    0.058241
0.0023744    0.029009     0.35219     0.07773     0.86084    0.042651    0.067011
0.00075039    0.025111     0.27261    0.089748     0.90469    0.058891    0.068635
0.00042559    0.022512      0.2109    0.098193     0.86409    0.061814    0.058241
0.0020496     0.01829     0.16478    0.097218     0.74423     0.05207    0.039727
0.0072465    0.012443     0.12905    0.086824     0.56721    0.029983    0.019264
0.013743   0.0059473     0.10079    0.071234     0.36064   0.0023744   0.0043233
0.016991   0.0023744    0.074157    0.059216     0.14432   -0.022636  -0.0037969
0.014068      0.0014    0.044275    0.052395   -0.083375   -0.042774   -0.010293
0.0078962   0.0026992    0.013093    0.051745    -0.31301    -0.05804    -0.01549
0.0017248   0.0046481   -0.017764    0.056617    -0.51342   -0.067134   -0.013866
-0.00087364   0.0078962   -0.043099    0.063113    -0.64951    -0.06616  -0.0076946
0.003024    0.013093   -0.059989    0.067011    -0.69921   -0.057715   0.0010752
0.015692     0.01894   -0.071357    0.067986    -0.66251   -0.044073    0.009845
0.033881    0.024461    -0.08305    0.063763    -0.56864   -0.025884    0.017316
0.050771    0.029983   -0.096692    0.053694    -0.47119  -0.0089938    0.025436
0.061489    0.032582    -0.10903    0.037454    -0.44196  -0.0044465    0.029983
0.063438    0.031932    -0.11748    0.017316    -0.53811   -0.013866    0.029009
0.053044    0.027385     -0.1191 -0.00054884    -0.75118   -0.033679    0.025111
0.034206     0.01894    -0.11358   -0.013216    -0.99803    -0.05804    0.016666
0.013093    0.008221    -0.10351   -0.021012     -1.1549     -0.0824   0.0062721
-0.0024977  -0.0044465   -0.092145   -0.024585      -1.127   -0.098316  -0.0034721
-0.010618    -0.01549   -0.077853   -0.026858    -0.88305    -0.10611   -0.010618
-0.011917   -0.025559   -0.061288   -0.026209    -0.47087    -0.10806   -0.013541
-0.011917   -0.031406   -0.044398   -0.024585   0.0010752    -0.10286  -0.0089938
-0.015815   -0.030756   -0.028157   -0.022961     0.40059   -0.092145  -0.0024977
-0.022311    -0.02361   -0.008669   -0.022636     0.64192   -0.079152   0.0023744
-0.029782   -0.013216    0.045249   -0.021661     0.70721   -0.062587   0.0026992
-0.033354  -0.0021729     0.16868   -0.019712     0.63932   -0.043748  0.00010078
-0.031081   0.0046481     0.35706   -0.010943      0.5042   -0.024909  -0.0054209
-0.027833   0.0056225     0.55065   0.0069217     0.36064  -0.0073698   -0.011917
-0.022636    0.003024     0.67732    0.031932      0.2502    0.009845   -0.017764
-0.013866      0.0014     0.69811    0.054668     0.19141     0.02706   -0.017439
-0.0018481   0.0052977     0.61204    0.070584     0.18199    0.046223  -0.0093186
0.0085458    0.013743     0.46035    0.074482     0.20635    0.062139   0.0046481
0.011469    0.020239     0.28983    0.067661     0.24306    0.073832    0.020239
0.0033489    0.023162     0.13879    0.054344     0.27034    0.080978    0.031932
-0.010618    0.022512    0.028359     0.03518     0.27099    0.078055    0.036154
-0.024585    0.022512   -0.039201    0.014068     0.23461    0.064088    0.032582
-0.032705    0.024137   -0.072006  -0.0028225      0.1625    0.044599    0.023487
-0.034004    0.027385   -0.084674   -0.011267     0.06896    0.024786    0.011794
-0.032055    0.027709    -0.09182  -0.0047713   -0.026533    0.011144  0.00042559
-0.027508     0.02641    -0.10514    0.020888    -0.10903   0.0046481  -0.0080194
-0.021661    0.022188    -0.12722    0.058891    -0.17172   0.0023744   -0.011917
-0.020037    0.014068    -0.15808    0.091372    -0.22337  -0.0050961    -0.01549
-0.023935 -0.00087364    -0.19381     0.10469    -0.27371   -0.028807    -0.02361
-0.031081   -0.012892    -0.22824    0.095919    -0.31626   -0.069408   -0.034654
-0.036278    -0.01614    -0.25325    0.070909    -0.33185    -0.11066   -0.045047
-0.043423   -0.011917    -0.26429    0.039727    -0.30652    -0.13729   -0.052843
-0.049595  -0.0054209    -0.25942    0.015367     -0.2435    -0.13762   -0.054467
-0.053168  -0.0021729    -0.24123   0.0056225    -0.15938    -0.11326   -0.048296
-0.046671   0.0033489    -0.21947   0.0085458   -0.070382   -0.070707    -0.03303
-0.028482    0.016016    -0.20518    0.016016    0.017316   -0.025234   -0.010943
-0.00022403     0.03518    -0.19966    0.021213     0.10631    0.012119    0.013418
0.027385    0.053694    -0.19933    0.019914     0.19401    0.034206    0.030308
0.044275    0.065712    -0.19738   0.0095202     0.28041    0.041027    0.036479
0.046223    0.069285    -0.19219  -0.0076946     0.36031    0.036479    0.030957
0.03453    0.064737    -0.18342   -0.023935      0.4178    0.024786    0.019914
0.015367    0.054344    -0.17335   -0.038227     0.42885   0.0075714     0.01017
-0.0031473    0.042975    -0.16523   -0.043748     0.37948  -0.0099683   0.0072465
-0.011267    0.033231    -0.14964   -0.043099     0.27132   -0.026858   0.0095202
-0.010618    0.024461    -0.11748     -0.0405     0.11768   -0.040825    0.013743
-0.0063954     0.01764   -0.077528    -0.04115   -0.058365   -0.050244    0.013743
-0.0021729    0.012768   -0.042449   -0.048296    -0.22174   -0.055441   0.0036737
-0.00054884    0.008221   -0.021337    -0.05804     -0.3442   -0.060963   -0.012567
0.0020496      0.0014   -0.013541   -0.065835    -0.40721   -0.065186   -0.029457
0.0085458  -0.0054209   -0.017114   -0.062912    -0.41176   -0.063886   -0.043423
0.016666  -0.0096434   -0.027508    -0.04927    -0.37343   -0.057065   -0.047646
0.021538   -0.012892   -0.040825   -0.031406    -0.31983   -0.045047   -0.039526
0.019264   -0.016464   -0.056741   -0.012892    -0.26949   -0.032055    -0.02361
0.0091954   -0.018413   -0.070058   0.0049729    -0.23181   -0.020362  -0.0080194
-0.0037969   -0.018413   -0.070382    0.020239    -0.20518   -0.012892   0.0039985
-0.014516   -0.017114   -0.055441    0.030308    -0.18764   -0.011267    0.011469
-0.020687    -0.01484   -0.029132     0.03453    -0.17432   -0.013216    0.013418
-0.023935   -0.010943  0.00010078    0.031607    -0.15613   -0.017439    0.015042
-0.022961  -0.0063954    0.019264    0.019914    -0.12268   -0.020037    0.017965
-0.019388  -0.0021729    0.020239   0.0043233   -0.056091   -0.018738    0.023487
-0.014191   0.0026992   0.0062721  -0.0096434     0.05207  -0.0089938    0.031932
-0.0099683   0.0085458   -0.015815   -0.020362     0.18914   0.0095202    0.042001
-0.007045    0.011794   -0.041475   -0.025234     0.32556    0.028684    0.050121
-0.0067202    0.009845   -0.065835   -0.022311     0.43404    0.042001     0.05207
-0.0099683   0.0049729   -0.082076    -0.01549     0.49771    0.047523    0.046223
-0.012242  -0.0011985   -0.088572  -0.0057458     0.50907    0.048172    0.038428
-0.013866  -0.0076946   -0.088247   0.0056225      0.4701    0.044275    0.029658
-0.015815   -0.013541   -0.084349    0.019589     0.39767    0.038428    0.021538
-0.018088   -0.020362   -0.080451    0.030308     0.30932    0.033556    0.016666
-0.013216   -0.028157   -0.076554    0.036479     0.21025    0.034855    0.012443
-0.0011985   -0.034329   -0.071032    0.036804    0.089423    0.039727   0.0072465
0.0095202   -0.037252   -0.064861    0.031607   -0.088896    0.045899   0.0010752
0.013418   -0.037577   -0.058689    0.021538    -0.35751    0.050771  -0.0031473
0.008221   -0.033679   -0.054467   0.0065969     -0.7096    0.053694  -0.0041217
-0.0031473   -0.026533   -0.057715  -0.0037969     -1.0763     0.05272  -0.0041217
-0.011267   -0.018738   -0.067134  -0.0041217     -1.3563    0.053369  -0.0060706
-0.007045   -0.011592   -0.075904   0.0059473     -1.4697    0.058891   -0.008669
0.010495   -0.008669   -0.077203     0.01829     -1.3898    0.065712  -0.0093186
0.030957   -0.011267   -0.070058    0.024461      -1.163    0.064737  -0.0099683
0.042001   -0.019063   -0.059339    0.016341    -0.87785    0.049147   -0.013866
0.036804   -0.029132   -0.053817  -0.0044465    -0.62093     0.01764   -0.024909
0.016991   -0.040175   -0.053817   -0.032055    -0.43741   -0.026858   -0.038876
-0.0047713   -0.049595   -0.053492   -0.059664    -0.31269   -0.078827   -0.055441
-0.018738   -0.054142   -0.052518   -0.080776    -0.20063    -0.13112   -0.068109
-0.020687   -0.053168   -0.051868   -0.093769   -0.068434    -0.17107   -0.072656
-0.015165    -0.04927   -0.055766   -0.098316    0.092021    -0.18699   -0.068109
-0.0080194   -0.043423   -0.062587   -0.096367     0.27067    -0.17887   -0.054792
-0.0073698   -0.034004   -0.066485   -0.086948     0.45061    -0.15126   -0.037902
-0.017764    -0.02361   -0.063561   -0.070707     0.60359    -0.11358   -0.021012
-0.034654    -0.01549   -0.054792   -0.048945     0.69974   -0.073306   -0.013216
-0.051544   -0.013541   -0.042774   -0.026858     0.71987   -0.042449   -0.015165
-0.063237   -0.017764   -0.033679  -0.0093186     0.66791   -0.025884   -0.025559
-0.065835   -0.025559   -0.028807  -0.0028225     0.55909   -0.026533   -0.039526
-0.059339    -0.03173   -0.027833  -0.0083442     0.41975   -0.042449   -0.051868
-0.047971   -0.034978   -0.025884   -0.019388     0.27814   -0.067134   -0.059989
-0.037252   -0.033354    -0.02426   -0.028807     0.14756    -0.09117   -0.060963
-0.032055   -0.029782   -0.024585   -0.031081    0.036154    -0.10416   -0.058365
-0.032055   -0.024585   -0.025559   -0.026858   -0.054467    -0.10449   -0.051868
-0.032705   -0.019063   -0.025884   -0.022636    -0.12787   -0.091495   -0.041799
-0.031081   -0.016789    -0.02361   -0.027183    -0.19056    -0.06551   -0.031081
-0.030756   -0.019063   -0.021337   -0.042124     -0.2448    -0.03303   -0.023935
-0.036278   -0.022636   -0.017114   -0.064211     -0.2867  -0.0034721   -0.020037
-0.043748   -0.024909   -0.010293   -0.084349    -0.31074    0.015367   -0.019063
-0.045697    -0.02361  -0.0028225   -0.095068    -0.31529    0.023812   -0.021337
-0.034978   -0.019063   0.0049729   -0.092145    -0.29645    0.022188   -0.022961
-0.014191   -0.013541    0.016991   -0.077203     -0.2513    0.016341   -0.020037
0.008221  -0.0073698    0.033881   -0.050894    -0.18277    0.015042   -0.010293
0.020239  -0.0037969    0.050121  -0.0096434    -0.10838    0.022188   0.0033489
0.020888  -0.0057458    0.060515    0.040377    -0.05804    0.030633    0.015042
0.015692   -0.013541    0.064413    0.090072    -0.05804    0.030957    0.016341
0.0091954   -0.021012    0.063763     0.12548    -0.11651    0.019914     0.01017
0.0026992   -0.025559    0.056292     0.13425     -0.2042  -0.0024977  -0.0037969
-0.0037969   -0.026209    0.042326     0.11313    -0.26494   -0.027508   -0.020362
-0.0080194   -0.028482    0.023162     0.06896    -0.23766    -0.04927   -0.035953
-0.0083442   -0.033354   0.0023744    0.017965   -0.098641   -0.062262   -0.046347
-0.0018481   -0.035303   -0.016464   -0.026209     0.12288    -0.06681   -0.047646
0.0062721   -0.029457   -0.034004   -0.055766     0.36226   -0.064211   -0.041475
0.011794   -0.020037   -0.054792    -0.06616     0.55552   -0.055441    -0.03238
0.0085458  -0.0099683   -0.080776   -0.059014     0.67278   -0.038551   -0.023935
0.0020496 -0.00087364    -0.10806   -0.041799     0.72767   -0.015815   -0.016464
-0.0034721   0.0052977    -0.12917   -0.019063      0.7556    0.008221  -0.0089938
-0.0054209    0.009845    -0.14152   0.0065969     0.78581    0.031932  -0.0034721
-0.0034721    0.015042    -0.14736    0.033556     0.83161    0.055318 -0.00054884
0.0017248    0.024137    -0.14541    0.057267     0.88293    0.078704    0.003024
0.01017    0.032906    -0.14022    0.075781     0.91931    0.097543    0.012443
0.021538    0.039727    -0.13599    0.090722      0.9219     0.10924    0.029333
0.03518    0.045249    -0.13275     0.10177     0.87416     0.11054    0.049147
0.044924    0.049147    -0.13177     0.10339     0.76145     0.10371    0.066037
0.047847    0.050446    -0.13794    0.092346     0.57144    0.090397    0.069934
0.042651    0.046873    -0.13762    0.073182     0.31484    0.070584    0.062139
0.032906    0.040702   -0.090196    0.050771     0.04395    0.047523    0.044924
0.022188    0.036479    0.058891    0.029009    -0.17659    0.029333    0.028684
0.013743    0.033881     0.31711    0.012768    -0.29872    0.021213    0.019589
0.009845    0.030633     0.61496      0.0014    -0.31821    0.022188    0.022188
0.012119    0.024786      0.8498  -0.0054209    -0.27696    0.023487    0.033231
0.013743    0.018615      0.9375    -0.01484    -0.24578    0.017965    0.048497
0.015692   0.0088706     0.85305   -0.028482    -0.27469   0.0088706    0.059865
0.020564  -0.0041217     0.63997   -0.046347    -0.37538   0.0033489    0.061814
0.027385   -0.017439     0.37688   -0.064861    -0.51212   0.0026992     0.05207
0.031607   -0.025234     0.14367   -0.080776    -0.64074   0.0036737     0.03518
0.029009   -0.026858   -0.011917    -0.09182    -0.73364   0.0010752    0.017316
0.020239   -0.024909    -0.08305   -0.096367    -0.78139   -0.012242  -0.0021729
0.0062721    -0.02361   -0.094093   -0.097991    -0.78561   -0.034004   -0.021986
-0.010293   -0.024909   -0.078503   -0.095068     -0.7554   -0.059339   -0.037902
-0.026858   -0.026858   -0.062587     -0.0837    -0.69596   -0.078178   -0.043423
-0.035628   -0.026533    -0.05739   -0.062587    -0.61249   -0.087922   -0.038876
-0.035953   -0.022311   -0.059014   -0.037252    -0.51602   -0.088572   -0.027183
-0.030106   -0.019063   -0.060638   -0.012242    -0.42475   -0.082725   -0.013541
-0.024909   -0.019063    -0.05739   0.0049729    -0.35946   -0.070058  -0.0024977
-0.021986   -0.024585   -0.050569    0.012768     -0.3338   -0.056091   0.0046481
-0.020362   -0.032705   -0.047646    0.012768    -0.35199   -0.048945   0.0078962
-0.020037   -0.039851   -0.051219   0.0085458    -0.40688   -0.047646   0.0062721
-0.021337   -0.044073   -0.062262   0.0033489    -0.47055   -0.054467  -0.0034721
-0.024585    -0.04115   -0.076554      0.0014    -0.50985    -0.06681    -0.01614
-0.029782    -0.03238   -0.092469    0.003024     -0.5001   -0.081426   -0.026533
-0.035303   -0.018088    -0.10774    0.013093    -0.43384   -0.092145   -0.030431
-0.036927  -0.0018481     -0.1204    0.030308    -0.32341   -0.094418   -0.024585
-0.034004    0.012768    -0.13177    0.049147    -0.19446   -0.085324  -0.0089938
-0.029132    0.020888    -0.14249    0.063763   -0.084349   -0.064536    0.010495
-0.021986    0.022837    -0.14964    0.071883   -0.019712   -0.037577    0.029983
-0.012242    0.019914     -0.1623    0.076106  -0.0018481   -0.012567      0.0433
-0.00087364    0.021213    -0.19771    0.083251  -0.0054209   0.0049729    0.046223
0.0088706     0.02641    -0.26267    0.092671   0.0088706    0.015367    0.040377
0.016991    0.032257    -0.34192    0.098842    0.071558    0.021538    0.031607
0.022512    0.036804    -0.41793    0.098193     0.19239    0.028684    0.025436
0.026085    0.039078    -0.47022     0.09397     0.35512    0.042651    0.024461
0.027709    0.040702    -0.48419    0.090397     0.52434    0.065712    0.028359
0.026735    0.042001    -0.46113    0.090072     0.66141    0.088124    0.031932
0.020564    0.040052    -0.40818    0.090722     0.74034    0.098193    0.031607
0.011469    0.033556    -0.34095    0.088448     0.75918     0.09397    0.025436
0.0043233    0.023162    -0.27404    0.079354     0.73709    0.079354    0.014392
-0.00054884    0.011469    -0.21297    0.063763     0.70071    0.060515      0.0014
-0.0041217  0.00042559     -0.1597    0.040702     0.67603    0.040702   -0.010293
-0.012242  -0.0099683    -0.11098    0.015042      0.6848    0.020888   -0.018088
-0.024909   -0.020037   -0.063886    -0.01549     0.72864  -0.0018481   -0.022311
-0.037577    -0.03173  -0.0073698   -0.046671     0.79426   -0.028482   -0.027508
-0.045047   -0.042124    0.078055   -0.073306     0.85889   -0.054792   -0.037902
-0.045372    -0.04927     0.20798   -0.092794     0.89754   -0.072006   -0.053492
-0.046022   -0.054142      0.3876    -0.10806     0.89592   -0.077528   -0.071032
-0.047646   -0.054142     0.59612    -0.11715      0.8524   -0.072006     -0.0824
-0.050894   -0.048296     0.78126    -0.11586     0.78191   -0.059339   -0.082076
-0.053492   -0.034978      0.8878    -0.10189     0.70851   -0.047646   -0.073306
-0.052193   -0.018413     0.89397   -0.074605     0.64777   -0.035953   -0.060313
-0.045047      0.0014     0.81212    -0.04115     0.60229   -0.027508    -0.04992
-0.033679    0.021538     0.67732  -0.0089938     0.56527   -0.026533   -0.042774
-0.021986    0.041351     0.53084     0.01764     0.52694    -0.03303   -0.035628
-0.013866    0.060515     0.40903    0.037778     0.47757   -0.046347   -0.029782
-0.011917    0.073507     0.32069    0.049147     0.40481   -0.062262   -0.024585
-0.019388    0.076755     0.25345    0.050446      0.2999   -0.076229   -0.021986
-0.030431    0.069934     0.18687    0.043625     0.16121   -0.081751   -0.023935
-0.038551    0.055968     0.10566    0.031607   0.0043233   -0.079152    -0.03303
-0.0405    0.038753    0.016666    0.018615    -0.16295   -0.073306   -0.045372
-0.033679    0.022512   -0.064536   0.0091954    -0.32633   -0.066485   -0.052518
-0.019712     0.01017    -0.12787  0.00075039     -0.4582   -0.060638   -0.048296
-0.0050961   0.0020496    -0.17107  -0.0060706    -0.52414   -0.051868   -0.038227
0.0072465  -0.0024977    -0.19673  -0.0089938    -0.50822   -0.040175    -0.02361
0.019264  -0.0028225     -0.2081  -0.0024977     -0.4163   -0.028482  -0.0099683
0.029658 -0.00022403    -0.21037    0.013418    -0.27858   -0.019388  -0.0011985
0.03583   0.0033489     -0.2081    0.034206    -0.13275   -0.012242   0.0056225
0.036154   0.0056225     -0.2016    0.053694  -0.0067202  -0.0073698   0.0085458
0.032257   0.0072465    -0.19056    0.065712    0.082602  -0.0060706   0.0075714
0.023487    0.010495     -0.1753    0.066037     0.13035   -0.010943   0.0056225
0.016666    0.015367    -0.15678    0.058241     0.14756   -0.022636   0.0075714
0.01764     0.01894    -0.14346    0.048822     0.15211    -0.03238    0.015692
0.024786    0.019264    -0.13827    0.041027     0.13944   -0.030756    0.025111
0.033231    0.017965    -0.13924    0.036154    0.068635   -0.017764    0.031282
0.038103    0.014717    -0.14249    0.031932    -0.10254  -0.0044465    0.029333
0.037129   0.0078962    -0.14281    0.022512    -0.38934   0.0026992    0.019264
0.030957   0.0020496    -0.13697   0.0065969    -0.74533  -0.0024977    0.009845
0.019914 -0.00054884    -0.12398   -0.012242     -1.0851   -0.023935  0.00075039
0.0075714   0.0023744    -0.10968   -0.027833     -1.3238   -0.055441  -0.0096434
-0.0037969   0.0052977   -0.095393   -0.036602     -1.4118   -0.081751   -0.021337
-0.013866   0.0065969     -0.0837   -0.033354     -1.3618   -0.094418   -0.030106
-0.022311   0.0056225   -0.078178    -0.02426     -1.2488   -0.091495   -0.032705
-0.028807   0.0062721    -0.08305   -0.017764     -1.1747   -0.081751   -0.034329
-0.035628    0.009845   -0.098641   -0.019063     -1.2137   -0.079802   -0.035303
-0.04115    0.015042    -0.11845   -0.030431      -1.379   -0.091495   -0.035303
-0.042774    0.015367    -0.13469   -0.048945     -1.6158    -0.11813    -0.03238
-0.042774   0.0078962    -0.14216   -0.073306      -1.823    -0.15418   -0.030106
-0.040175  -0.0050961    -0.14509    -0.10059     -1.8942    -0.18699   -0.028807
-0.036927   -0.018088    -0.15061    -0.12333     -1.7649    -0.20388   -0.027833
-0.03173   -0.025884    -0.15776    -0.13307     -1.4498    -0.20063   -0.027183
-0.020362   -0.027833    -0.16165    -0.12787     -1.0263    -0.17854   -0.023935
-0.0073698   -0.025559     -0.1597    -0.10806     -0.5917    -0.14249   -0.018413
0.0056225   -0.022636    -0.15158   -0.077203    -0.22467    -0.10156   -0.011267
0.016341   -0.023285    -0.14087   -0.042774    0.038428   -0.062262  -0.0028225
0.023162   -0.024585     -0.1282   -0.013866      0.2109   -0.025234   0.0046481
0.024461   -0.024909    -0.11521   0.0062721     0.32686    0.012119   0.0095202
0.019589   -0.025884   -0.099615    0.016341     0.41748     0.05142    0.012443
0.012443   -0.029457    -0.08305    0.018615     0.49641    0.089098    0.013418
0.0026992   -0.031406   -0.069408    0.020564      0.5565     0.11866    0.012443
-0.007045    -0.03173   -0.061613    0.028359     0.59093     0.13327   0.0091954
-0.010618   -0.028807    -0.05739    0.038103     0.59742     0.13197    0.003024
-0.007045   -0.021986   -0.060313    0.042651     0.58378     0.11931  -0.0031473
-0.00054884   -0.013866   -0.064861    0.040702     0.57404    0.099492  -0.0067202
0.0046481   -0.007045   -0.062912    0.032257      0.5893    0.081627  -0.0057458
0.0059473  -0.0037969   -0.047971    0.024137     0.62665    0.072533  -0.0024977
0.003024  -0.0028225   -0.024585    0.019914     0.66043    0.070259   0.0017248
0.0010752 -0.00054884  -0.0015233    0.022188     0.66303    0.069934   0.0052977
0.0026992   0.0036737    0.012443    0.029658     0.62373    0.067336    0.012768
0.008221   0.0069217     0.01894    0.038428     0.54708    0.061814    0.020888
0.010495   0.0078962    0.021863    0.049147     0.45028    0.056292    0.029983
0.0095202   0.0078962    0.022837    0.058566     0.35512    0.053694    0.038753
0.0075714   0.0078962    0.023162    0.061165     0.27196    0.054668    0.041351
0.0091954     0.01017    0.020888    0.055318     0.19661    0.058241    0.040377
0.016341    0.016341    0.017316    0.047198     0.12288    0.065387    0.042001
0.029658    0.024461    0.011144    0.044599    0.055968    0.069934    0.047198
0.045249    0.032582   0.0023744    0.051096   0.0065969    0.075781    0.054344
0.057592    0.039727  -0.0015233    0.061814   -0.013866    0.087474    0.063113
0.066686    0.049796   0.0010752    0.067986  -0.0060706     0.10274    0.070584
0.073507     0.06019   0.0069217    0.065062    0.025436     0.11411    0.074806
0.078055    0.067661   0.0049729    0.050446    0.078055     0.12028    0.078704
0.078379    0.069285  -0.0057458    0.029983     0.14269     0.11931    0.082277
0.073832    0.064413   -0.020687    0.008221     0.20765     0.11086    0.083901
0.067986    0.057267   -0.031406   -0.011917     0.25702     0.09462    0.081303
0.061165    0.049796   -0.035303   -0.025884     0.27261    0.073182    0.076106
0.054668    0.040702   -0.031406    -0.03303     0.24241    0.046223    0.066362
0.046223    0.029983   -0.021337   -0.030756     0.16185    0.015042     0.05142
0.032582     0.01894  -0.0073698   -0.019712    0.042001    -0.01614    0.039402
0.021213   0.0088706   0.0036737  -0.0034721    -0.10774    -0.04927    0.033881
0.013418 -0.00022403   0.0059473     0.01017    -0.26916   -0.084674    0.028684
0.0043233   -0.008669 -0.00022403    0.011469     -0.4163    -0.11715     0.01829
-0.0063954    -0.01614    -0.01549 -0.00022403    -0.51699    -0.13664   0.0033489
-0.016789   -0.020687   -0.039526    -0.01614    -0.56344    -0.13794  -0.0093186
-0.026533   -0.022311   -0.073306    -0.03173    -0.57936    -0.12463   -0.019063
-0.034978   -0.022961    -0.11261   -0.047646    -0.58942    -0.11033   -0.027183
-0.042774   -0.025884    -0.14996   -0.066485    -0.58975    -0.10156    -0.03238
-0.047646   -0.030106    -0.17887   -0.086948    -0.53973   -0.097017   -0.034329
-0.051868   -0.032705    -0.18894   -0.099615    -0.39324   -0.094418   -0.034654
-0.056741   -0.028482    -0.17302    -0.10156    -0.13437   -0.089871    -0.03238
-0.062587   -0.019063    -0.12917   -0.095393     0.19953   -0.083375   -0.031406
-0.072981  -0.0076946   -0.068434   -0.089221     0.53701   -0.075579   -0.034004
-0.084999 -0.00022403   -0.014191   -0.082076      0.8053   -0.067134   -0.036278
-0.090845  0.00042559    0.016666   -0.068758     0.95731   -0.054792   -0.034654
-0.087922  -0.0015233    0.011794   -0.046671     0.99141   -0.037252   -0.029782
-0.074605  -0.0028225   -0.028482   -0.019063     0.94302   -0.014191   -0.018738
-0.055441  -0.0015233   -0.093444   0.0059473     0.86604    0.012443  -0.0057458
-0.037252   0.0056225    -0.15451    0.023812      0.8092    0.042001   0.0072465
-0.02426    0.016341    -0.14606    0.032906     0.79588    0.068635    0.017316
-0.019388    0.029658  -0.0015233    0.035505     0.81439    0.088773    0.027385
-0.018413    0.039402     0.26969    0.037129     0.83648     0.10014    0.036804
-0.015815    0.042975     0.57891    0.039078     0.82868     0.10371    0.042651
-0.013216    0.040052     0.81894    0.043625     0.77282     0.10112    0.045574
-0.013216     0.03583     0.91184     0.05207     0.66823     0.09462      0.0433
-0.015165    0.030957     0.83713    0.064737     0.52466    0.084226    0.037454
-0.017764    0.024137     0.62925    0.076106     0.35284    0.068635    0.029009
-0.018413    0.016341     0.35934    0.083901     0.16933    0.048172    0.019589
-0.01549   0.0095202     0.10339      0.0865 -0.00022403     0.02641   0.0072465
-0.010943   0.0062721   -0.086298    0.084226     -0.1295   0.0062721  -0.0047713
-0.0076946   0.0069217    -0.19348    0.072533    -0.20875  -0.0093186   -0.018088
-0.0060706    0.008221    -0.23474    0.050446    -0.24838   -0.019712   -0.033354
-0.0060706   0.0059473    -0.23506    0.025436    -0.26916   -0.029132   -0.047646
-0.007045  -0.0024977     -0.2016   0.0010752    -0.29515    -0.04115   -0.056416
-0.0083442   -0.014516    -0.11001   -0.017114    -0.33705   -0.055441   -0.055766
-0.0099683   -0.027833    0.060515   -0.026209    -0.40623   -0.071357    -0.04862
-0.011917   -0.037577     0.28236   -0.030106    -0.51667   -0.088896   -0.043099
-0.017114   -0.043423     0.48731   -0.029132    -0.65698    -0.10481   -0.042449
-0.02426   -0.043423     0.60619   -0.025884    -0.79405    -0.11423   -0.044398
-0.03303   -0.039201     0.60262   -0.023935    -0.88955    -0.11618   -0.046347
-0.038876   -0.033354     0.48861   -0.022311    -0.91358    -0.11715   -0.045047
-0.038551   -0.025884     0.31419   -0.023935    -0.85252    -0.11618   -0.044398
-0.035628   -0.021661     0.13879   -0.024585    -0.70538    -0.11001   -0.046022
-0.034978    -0.02361   0.0020496   -0.022636    -0.49361   -0.098965    -0.04862
-0.038227   -0.032055   -0.082076   -0.021337    -0.25357   -0.085973   -0.050244
-0.042124   -0.043099    -0.12203   -0.023285   -0.029132   -0.075904   -0.050244
-0.042124   -0.053168    -0.13664   -0.028157     0.14561   -0.069408   -0.046671
-0.035303   -0.062912    -0.14249   -0.028807     0.25313    -0.06616   -0.043099
-0.023285   -0.070058    -0.14769   -0.023935     0.29308   -0.063237    -0.04115
-0.012567   -0.072656    -0.15126   -0.018088     0.27976   -0.058365     -0.0405
-0.0089938   -0.070382    -0.15288    -0.01484     0.24078   -0.049595   -0.038551
-0.012567   -0.060638    -0.15483   -0.016464     0.19791   -0.035303   -0.034329
-0.016464   -0.047321    -0.14541   -0.018738     0.16088   -0.021012   -0.027833
-0.015815    -0.03173    -0.11033   -0.017114     0.11801  -0.0093186   -0.021337
-0.010943   -0.017114   -0.043099  -0.0063954    0.049796  -0.0041217    -0.01549
-0.0037969  -0.0031473    0.048822    0.013418   -0.046022  -0.0057458  -0.0096434
0.0017248   0.0095202     0.15244    0.036804    -0.14574   -0.010293  -0.0047713
0.0043233    0.021213     0.24663    0.061814    -0.22142   -0.013541  -0.0031473
0.0095202    0.030957     0.31224    0.085525    -0.25942   -0.013541  -0.0021729
0.018615    0.037778     0.34245     0.10631    -0.26949   -0.011917  0.00042559
0.029009    0.041027      0.3418     0.12028    -0.26787   -0.008669   0.0020496
0.034206    0.040377     0.32653      0.1258    -0.26397  -0.0044465   0.0039985
0.031607    0.036804     0.31127     0.11801    -0.25585      0.0014   0.0056225
0.025111    0.030957     0.30445    0.099817    -0.23636    0.009845   0.0056225
0.020564    0.023812     0.30932    0.078704    -0.21005    0.016341   0.0026992
0.021863    0.015692     0.32263    0.061165    -0.18764    0.018615  -0.0011985
0.023812   0.0091954     0.32166    0.044924    -0.18114    0.015367  -0.0037969
0.026735   0.0052977     0.28138    0.026085    -0.19251   0.0056225 -0.00054884
0.025761   0.0017248     0.19336   0.0026992    -0.20972   -0.012567   0.0059473
0.021863  -0.0041217    0.056617    -0.02426    -0.21525   -0.035303    0.012443
0.013743   -0.018088    -0.14281   -0.054142    -0.19543   -0.055116    0.015367
0.0033489   -0.039851    -0.44164   -0.080127    -0.14996   -0.067134    0.010819
-0.0060706   -0.067459    -0.87266   -0.094743   -0.094093   -0.069733   0.0020496
-0.013541   -0.092794     -1.4076   -0.097017   -0.049595   -0.062912  -0.0050961
-0.01549    -0.11001     -1.9315   -0.086948   -0.028482   -0.051219   -0.010293
-0.010618    -0.11163     -2.2904    -0.06616   -0.020362   -0.040175   -0.010943
-0.0021729   -0.095717     -2.3681   -0.038876   -0.015165   -0.034004  -0.0093186
0.0052977   -0.067459     -2.1358   -0.011267   -0.013866   -0.032705  -0.0060706
0.0088706   -0.035953     -1.6675    0.011144   -0.013866   -0.031406 -0.00087364
0.0062721   -0.012242     -1.0977    0.022512  -0.0076946   -0.029782   0.0056225
0.0020496   0.0023744    -0.57026    0.022188    0.023487   -0.027183    0.011794
-0.0015233   0.0056225    -0.17919    0.013093    0.092996   -0.022636    0.015042
-0.0037969   0.0023744    0.049472  -0.0050961     0.19596   -0.018088    0.014392
-0.0050961 -0.00022403     0.15016   -0.029132     0.31386   -0.017114   0.0078962
-0.0063954  -0.0037969     0.17842    -0.04992      0.4295   -0.018413  -0.0024977
-0.007045  -0.0076946     0.18069   -0.058689     0.53668   -0.020037    -0.01549
-0.010943   -0.010618     0.18102   -0.054792     0.63802   -0.023935   -0.027508
-0.020687   -0.012892     0.18784   -0.045697     0.72734    -0.03173   -0.036927
-0.034978   -0.015815     0.19986   -0.037577     0.78646   -0.044723   -0.042449
-0.048296   -0.020362      0.2161   -0.030431     0.78581   -0.057065   -0.043099
-0.05804   -0.023935     0.23526   -0.023285     0.71273   -0.065835   -0.042124
-0.068109   -0.026209      0.2515    -0.01614     0.57306   -0.069408   -0.038551
-0.073955   -0.027508      0.2593   -0.013216     0.37688   -0.069083    -0.03238
-0.071032   -0.026858      0.2567   -0.019063     0.14432   -0.072331   -0.025559
-0.064211   -0.023935      0.2489   -0.030106     -0.0837   -0.076879   -0.022636
-0.059989   -0.018088     0.24533   -0.041799    -0.25617   -0.079152   -0.022311
-0.05804  -0.0083442     0.24923   -0.048945    -0.34192   -0.072006   -0.024585
-0.052843   0.0017248     0.26092    -0.04862     -0.3325   -0.055116    -0.02361
-0.042124   0.0091954     0.27521   -0.041475    -0.24188    -0.03238   -0.017114
-0.032055    0.012443     0.28821   -0.034329    -0.10968   -0.010618   -0.007045
-0.02426    0.013743     0.29795   -0.029132    0.017965   0.0049729  -0.0011985
-0.018738    0.014068      0.3025   -0.023285     0.10956    0.015367  -0.0024977
-0.012892    0.012443     0.30315   -0.011917     0.15049    0.020564   -0.011592
-0.0047713   0.0095202      0.3025   0.0020496     0.14659    0.026085    -0.02426
0.0043233   0.0043233     0.30022    0.015367     0.11671    0.035505   -0.030106
0.014392 -0.00054884       0.296    0.028684    0.080653    0.048172    -0.02361
0.022512  0.00075039     0.28561    0.041676    0.049796    0.063438  -0.0076946
0.029009   0.0065969     0.27067    0.055643    0.028684    0.081303    0.011469
0.033881    0.014068       0.258    0.068635    0.012768     0.10274    0.029009
0.036154    0.019264     0.24955    0.079679  0.00042559     0.12775    0.041351
0.036154    0.021538     0.24566    0.087799   -0.007045     0.15049    0.050446
0.032906    0.021538     0.24241     0.09462  -0.0067202     0.16315    0.057592
0.029333    0.023812     0.23559    0.099167    0.011144     0.16088    0.063763
0.024786    0.028359     0.22812    0.096244    0.056292     0.14302    0.064413
0.020564    0.034206     0.22227     0.08585     0.13425     0.11671    0.056942
0.015367    0.038103     0.21155    0.067986     0.24501    0.091047     0.04395
0.01017    0.037454     0.18816    0.047523     0.36648    0.073507    0.030633
0.0026992    0.030957     0.15438    0.030308     0.46165    0.066037    0.022188
-0.0060706    0.022188     0.11671    0.019589     0.48926     0.06019    0.019914
-0.013216    0.014717    0.075781   0.0095202     0.42885    0.047847     0.01764
-0.016464    0.008221     0.03518  -0.0044465     0.27814     0.02641   0.0088706
-0.016464   0.0052977   0.0043233   -0.020687    0.048497 -0.00087364  -0.0060706
-0.010293   0.0052977   -0.018413   -0.034004    -0.22661   -0.029457   -0.020362
0.0010752   0.0069217   -0.036927    -0.04115    -0.50335   -0.055116   -0.028482
0.01017    0.008221   -0.061937   -0.041799    -0.74208   -0.076879   -0.028482
0.012443    0.009845   -0.097991     -0.0405     -0.9217   -0.095393   -0.025559
0.0075714    0.013418    -0.13892   -0.042124      -1.036    -0.11001   -0.021661
-0.0031473    0.017965    -0.18017    -0.04927     -1.1026     -0.1256   -0.019712
-0.012892     0.01829    -0.21914   -0.062262     -1.1461    -0.14834   -0.021337
-0.019712    0.011469    -0.24838   -0.076229     -1.1744    -0.18569   -0.027833
-0.019712   0.0010752    -0.23993   -0.090521     -1.1738    -0.23668   -0.040825
-0.017114   -0.007045    -0.14184    -0.10384     -1.1153    -0.29288   -0.058689
-0.018413   -0.008669    0.084551    -0.11228    -0.96718      -0.339    -0.07493
-0.025884  -0.0044465     0.40319    -0.11326    -0.71415    -0.36141   -0.084024
-0.034329   0.0033489     0.70818    -0.10221    -0.37473    -0.35394   -0.084999
-0.038876    0.015042     0.89105   -0.079477 -0.00054884    -0.31626   -0.077853
-0.034978    0.029333     0.90112   -0.050894      0.3418    -0.25942   -0.066485
-0.02426     0.04395     0.75723   -0.021661     0.59482    -0.19478   -0.053168
-0.010293    0.054019     0.52726    0.003024     0.72864    -0.13534   -0.042449
0.0043233    0.057917     0.28821    0.019589     0.74586   -0.088247   -0.033354
0.017965    0.057592    0.095594    0.030308     0.66206   -0.052843   -0.025234
0.028359    0.054993   -0.021661    0.039078     0.47237   -0.023285   -0.015815
0.033881    0.050446   -0.070382    0.046223     0.15796   0.0039985  -0.0083442
0.031282    0.041027   -0.072656    0.049796    -0.27534    0.026085  -0.0060706
0.025761    0.030308   -0.052518     0.05142    -0.76709    0.040702  -0.0099683
0.01829    0.022188   -0.030756    0.049472     -1.2153      0.0433   -0.016464
0.013093    0.019914   -0.018088    0.042651     -1.5184    0.036804   -0.021337
0.011794    0.019264   -0.022311     0.03453     -1.6135    0.029983   -0.020362
0.012443    0.016991   -0.043099    0.028034     -1.5018    0.026085   -0.011592
0.015367    0.015042    -0.07493    0.023812      -1.239    0.029333  -0.0018481
0.017965    0.015367    -0.11098    0.022512    -0.91163    0.041027   0.0043233
0.017316    0.016991    -0.14379    0.021538    -0.59884    0.056942   0.0059473
0.011469    0.013093    -0.16555    0.022837    -0.35232    0.075131      0.0014
0.0075714   0.0043233    -0.17562    0.026085    -0.18634     0.09462  -0.0041217
0.008221   -0.007045    -0.16815    0.032257   -0.088896     0.11248  -0.0063954
0.013418   -0.014191    -0.14704    0.041351   -0.046347     0.12515  -0.0028225
0.016341   -0.011592    -0.11845    0.051096   -0.038876     0.12872   0.0069217
0.013093  -0.0041217   -0.095068    0.060515   -0.046347      0.1232    0.021213
0.01017   0.0052977    -0.08305    0.067011   -0.047971     0.11021    0.033556
0.015367    0.016991   -0.071682    0.067011    -0.02426    0.093321    0.038753
0.025436    0.027709   -0.043423    0.058566    0.039727    0.076755     0.03583
0.035505    0.034855    0.021538     0.04395     0.13977    0.062789    0.029658
0.041676    0.035505     0.11508    0.030308     0.25735     0.05207    0.025111
0.03518    0.029983     0.19921    0.018615     0.36453    0.044924    0.026085
0.020239    0.020239     0.23883   0.0062721     0.43404    0.040702     0.03453
0.0043233    0.012768     0.21577  -0.0050961      0.4571    0.041027    0.044924
-0.0083442   0.0072465     0.14009    -0.01484     0.44509      0.0433    0.049147
-0.013866   0.0043233    0.039402   -0.021337      0.4217    0.044924    0.044275
-0.015165      0.0014   -0.048945   -0.022636     0.41196    0.039727    0.032906
-0.017114  -0.0011985    -0.10579    -0.02361     0.43762    0.029983    0.021538
-0.020362  -0.0054209    -0.13307   -0.025884     0.50777    0.023487    0.010819
-0.024585   -0.011592    -0.14411   -0.028157     0.62276    0.027709   0.0017248
-0.023935   -0.016464    -0.15093   -0.029782     0.78419    0.042975  -0.0034721
-0.015815   -0.019388     -0.1597   -0.027833     0.99239    0.066362  -0.0024977
-0.0041217   -0.017764    -0.17465   -0.022961      1.2266    0.092346  0.00042559
0.0052977   -0.011592    -0.19056    -0.01614      1.4448     0.10859   0.0020496
0.010495  -0.0044465    -0.20453   -0.011592       1.603     0.10989 -0.00022403
0.015367   0.0023744    -0.21232  -0.0073698      1.6706    0.098842  -0.0054209
0.01894   0.0065969    -0.21557  0.00010078      1.6501    0.081303   -0.012892
0.021213   0.0046481    -0.21817    0.008221      1.5699    0.058241   -0.017439
0.017965  -0.0044465    -0.22239    0.015367      1.4549    0.036804   -0.020037
0.0091954   -0.020362    -0.22434    0.013418      1.3214    0.020564   -0.022311
0.0010752   -0.039201    -0.22434    0.003024      1.1769    0.013418   -0.026858
-0.0015233   -0.050894    -0.22012   -0.012892      1.0148    0.010495   -0.030106
0.0023744   -0.055441    -0.21265   -0.027183     0.80562   0.0091954   -0.027508
0.010495   -0.052843    -0.20355   -0.034978     0.51914    0.008221   -0.017439
0.020564   -0.046022    -0.19673    -0.03303     0.14724   0.0065969  -0.0044465
0.028359   -0.038876    -0.19089   -0.026858    -0.28476   0.0043233   0.0069217
0.030633   -0.036927    -0.18212   -0.021986    -0.72357   0.0043233    0.015042
0.027385   -0.038876    -0.16912   -0.016789     -1.1078   0.0056225    0.022188
0.024137   -0.042774    -0.15483  -0.0099683     -1.3803   0.0065969    0.029983
0.023812   -0.045697    -0.14444  0.00042559     -1.5096   0.0043233    0.037778
0.024461   -0.041799    -0.13437    0.013418      -1.509  -0.0034721    0.044275
0.022837   -0.031081    -0.12203    0.025111     -1.4417   -0.021986    0.048497
0.01829   -0.014516    -0.10709     0.03518     -1.3651    -0.04927    0.051745
0.011794   0.0023744   -0.092794    0.041351     -1.3154   -0.081426     0.05272
0.0069217    0.017316    -0.08305    0.040052     -1.3137    -0.10806     0.05142
0.0010752    0.028034   -0.076554    0.031932     -1.3524    -0.12268    0.046873
-0.0031473    0.031607   -0.072981    0.017316     -1.3901     -0.1217    0.039727
-0.0057458    0.031282   -0.073306   0.0020496     -1.3738    -0.10709    0.028034
-0.0080194    0.030308   -0.080776   -0.012567     -1.2644   -0.084674    0.016341
-0.007045    0.031932   -0.092469   -0.024909     -1.0526   -0.059989    0.011469
-0.00022403    0.038428    -0.10449   -0.031081    -0.76547   -0.040825    0.012443
0.011794    0.045249    -0.11163   -0.023935    -0.44716   -0.029132    0.016991
0.020239    0.047523    -0.10838  -0.0060706    -0.14119    -0.02361    0.022512
0.020239    0.039402    -0.10091    0.015367     0.11768   -0.023935    0.023487
0.0085458    0.023487   -0.092794    0.031932     0.31386   -0.025234    0.022512
-0.012892   0.0059473   -0.086623    0.038428     0.45093   -0.023285    0.022837
-0.042124  -0.0099683   -0.087597    0.032906     0.54545   -0.017114    0.021538
-0.070707   -0.021661    -0.09182    0.014068     0.61594  -0.0076946    0.020239
-0.090196   -0.029782   -0.094743   -0.010618     0.66855  0.00010078    0.016666
-0.095393    -0.03303   -0.092469   -0.034004     0.69584   0.0010752    0.011794
-0.09117   -0.036602   -0.084349   -0.047321     0.68772  -0.0073698   0.0036737
-0.083375    -0.04115   -0.073955   -0.046347     0.64809   -0.022311  -0.0047713
-0.073955   -0.045372    -0.06551   -0.034329     0.59417   -0.033679   -0.013866
-0.06616   -0.045697    -0.05804   -0.018088     0.55455   -0.034978   -0.018088
-0.060313    -0.04115   -0.050894  -0.0024977      0.5461   -0.025234   -0.015165
-0.056416   -0.035628   -0.044723    0.008221     0.57014   -0.010293  -0.0067202
-0.056416   -0.031081    -0.03173    0.011469     0.61041    0.003024   0.0023744
-0.058365   -0.030756 -0.00087364     0.01017     0.64225    0.011469   0.0091954
-0.058365   -0.032705    0.051096     0.01017     0.64062    0.016341    0.011144
-0.051544   -0.036927     0.10826    0.014392     0.59352    0.017316   0.0088706
-0.038551   -0.040825     0.15179    0.021538      0.5146     0.01764   0.0065969
-0.026209   -0.041475      0.1703    0.033231     0.43177    0.022837   0.0088706
-0.021661   -0.034004      0.1625    0.047198     0.36811     0.03453    0.017965
-0.024585   -0.020037     0.13425    0.058566     0.32816    0.046873    0.030957
-0.03238  -0.0063954    0.098193    0.063438     0.30834     0.05272    0.039727
-0.039851  -0.0011985    0.067661    0.056292     0.29113    0.048172    0.037129
-0.042449  -0.0060706    0.045249    0.036804     0.26352    0.031282    0.022512
-0.043423   -0.017114    0.027709    0.014392      0.2187   0.0026992    0.003024
-0.045697   -0.029782   0.0085458  -0.0041217     0.15991    -0.03173   -0.016464
-0.047646   -0.036602   -0.016789   -0.013216      0.0865   -0.062262   -0.029457
-0.046022   -0.040175   -0.052518  -0.0093186 -0.00087364   -0.079152   -0.033679
-0.039526   -0.043099    -0.10384  0.00010078    -0.09994   -0.078178   -0.030106
-0.027183   -0.043748    -0.16555    0.011469    -0.20485   -0.063886   -0.025559
-0.01484    -0.04115    -0.22661    0.016991    -0.31074   -0.044723   -0.022961
-0.0018481   -0.036602    -0.27728    0.019264    -0.40299    -0.03303   -0.023285
0.0056225   -0.032055    -0.31009    0.019264    -0.45788   -0.034004   -0.027183
0.0072465    -0.03173    -0.31886    0.016341    -0.46015   -0.045372   -0.030756
0.0052977   -0.034004    -0.29905    0.011144    -0.41013   -0.064536   -0.034654
0.0049729   -0.034654    -0.25585   0.0056225    -0.32503   -0.085973   -0.039851
0.0091954    -0.03238    -0.20258   0.0020496    -0.23019    -0.10124   -0.045047
0.013418   -0.028807    -0.14736 -0.00022403    -0.14476    -0.10546   -0.047971
0.016991   -0.024909   -0.089221  0.00010078   -0.080776    -0.09929   -0.047321
0.022188   -0.021337   -0.024585    0.003024   -0.041475   -0.085648   -0.045372
0.029658   -0.017439     0.05272    0.009845   -0.024909   -0.072981   -0.041475
0.03453  -0.0099683     0.14009    0.016666    -0.01614    -0.06616   -0.039526
0.028034      0.0014     0.22974    0.017316  -0.0018481   -0.069083   -0.041475
0.010495    0.009845     0.31451   0.0049729    0.028684   -0.078827   -0.043423
-0.013541    0.014717     0.39312   -0.017764    0.078704   -0.086623   -0.042449
-0.035303    0.013743     0.46652   -0.044723     0.14561   -0.085973   -0.037577
-0.050894   0.0095202     0.52759   -0.071682     0.21935   -0.077853   -0.029132
-0.056741   0.0069217     0.56267   -0.090845      0.2895   -0.067784   -0.023285
-0.052193    0.011794     0.56104   -0.094743     0.35447   -0.058689   -0.020687
-0.042449     0.02706     0.52596   -0.079152     0.41163   -0.055116   -0.022961
-0.028482    0.052395     0.47367   -0.046671     0.45353   -0.056416   -0.028482
-0.01484    0.080328     0.42073  -0.0050961     0.46198   -0.054467   -0.031406
-0.0018481     0.10306      0.3798    0.035505     0.42495   -0.044723   -0.029132
0.010819     0.12093     0.35674    0.066686     0.33855   -0.030106   -0.018413
0.023812     0.13457     0.34764    0.081952     0.21317   -0.013216  -0.0015233
0.03453     0.14172     0.33758    0.080978    0.070259   0.0023744    0.016341
0.044924     0.14172     0.31549    0.072533   -0.070707    0.012443    0.031282
0.053044     0.13684     0.27261    0.064413    -0.19933    0.010819    0.041351
0.057917     0.12483     0.21155    0.059541    -0.31139  -0.0015233    0.048497
0.058566     0.10761     0.14107    0.056292    -0.39941   -0.019712     0.05272
0.049796      0.0865    0.071558    0.050446    -0.45073   -0.038876    0.054019
0.033881    0.064413   0.0088706    0.039078     -0.4582   -0.050244    0.053044
0.020239    0.042001   -0.045047    0.028359    -0.42702   -0.053492    0.052395
0.015367    0.024137   -0.091495    0.022188    -0.37278   -0.051219    0.051745
0.01894    0.014068     -0.1269    0.022512    -0.31983   -0.045697    0.046873
0.02706   0.0065969    -0.14866     0.02641    -0.30652   -0.035953    0.036154
0.032582   0.0017248    -0.16133    0.025436     -0.3718   -0.025234     0.01894
0.031932  -0.0024977    -0.16523    0.016666    -0.52446   -0.021337  -0.0011985
0.026085  -0.0080194    -0.16328  -0.0021729    -0.72227   -0.031406    -0.01549
0.015042   -0.011267    -0.15613   -0.022636    -0.88273   -0.054792   -0.022961
0.0014   -0.012242    -0.14834   -0.038551     -0.9204     -0.0837   -0.026858
-0.016789   -0.011592    -0.13892   -0.044723    -0.80152    -0.10838   -0.029457
-0.034654   -0.014191    -0.13015   -0.042449    -0.55662     -0.1243   -0.027833
-0.046347   -0.021986    -0.12917   -0.036278    -0.26234    -0.13177   -0.024909
-0.051868   -0.034004    -0.13794   -0.034978 -0.00022403    -0.13145   -0.022311
-0.053492    -0.04862    -0.15061   -0.038551     0.17517    -0.12235    -0.02426
-0.054467   -0.062587    -0.16003   -0.044398     0.24338    -0.10644    -0.03173
-0.058365    -0.07428    -0.16003   -0.048296     0.21675   -0.092469   -0.039526
-0.062912   -0.078827    -0.14964   -0.046022      0.1245   -0.085324   -0.043099
-0.062912   -0.077203    -0.13015   -0.037902    0.003024   -0.084674   -0.042774
-0.058689   -0.073631    -0.10741   -0.029457    -0.11163   -0.086948   -0.037902
-0.046022   -0.070058   -0.089871   -0.024909    -0.19511   -0.084349   -0.031081
-0.027833   -0.070058   -0.080776   -0.027508    -0.23538   -0.071357   -0.021986
-0.0089938   -0.070058   -0.078827   -0.037577    -0.22954   -0.046022   -0.011917
0.0043233    -0.06616   -0.081101   -0.052193    -0.18666   -0.017114  -0.0018481
0.015692    -0.05804   -0.085648   -0.062912    -0.12365    0.011794    0.008221
0.021213   -0.047971   -0.090845   -0.066485   -0.061937     0.03583    0.017965
0.019589   -0.039851   -0.095717   -0.062912   -0.017439     0.05272    0.025111
0.017316   -0.036602    -0.10059   -0.057065  0.00075039    0.059541    0.022512
0.01764   -0.034654    -0.10644   -0.052843   0.0020496    0.058241    0.011144
0.020888   -0.032705    -0.10871   -0.048296 -0.00087364    0.054344   -0.007045
0.024786   -0.028482    -0.10611   -0.040825  0.00010078    0.051096   -0.026209
0.027709   -0.025234   -0.095717   -0.024585   0.0065969    0.048822   -0.038876
0.022188   -0.020687   -0.081751  -0.0031473    0.014717    0.049147   -0.043748
0.009845   -0.018088   -0.070058    0.014717    0.019589    0.048822   -0.043423
-0.0015233   -0.017439   -0.064536    0.020239    0.013743    0.044599   -0.040175
-0.0057458   -0.019388    -0.06551    0.014392   0.0017248    0.041027   -0.035953
-0.0057458   -0.026209   -0.063886   0.0072465  -0.0031473    0.044599   -0.029457
-0.0050961    -0.03173   -0.057715   0.0075714   0.0059473    0.049472   -0.020362
-0.0050961   -0.032705   -0.047646    0.015367     0.02641    0.050771  -0.0093186
-0.0060706   -0.028482   -0.037577    0.023162    0.050446    0.048822 -0.00054884
-0.0057458    -0.02361   -0.029132    0.022837    0.080003    0.050121   0.0039985
-0.0037969   -0.019388   -0.020037    0.012768     0.11768    0.057267   0.0046481
-0.0031473   -0.017114  -0.0089938 -0.00054884      0.1651     0.06896   0.0052977
-0.0044465   -0.014191  0.00075039   -0.011267      0.2148    0.081303   0.0065969
-0.0076946    -0.01484   0.0039985   -0.017114     0.25215    0.088124    0.008221
-0.010618   -0.017764  -0.0011985   -0.016789     0.26319    0.084226   0.0062721
-0.013541    -0.01614   -0.014191   -0.011267     0.24728    0.075456  0.00010078
-0.013866  -0.0083442   -0.028807  -0.0047713     0.21512    0.066037  -0.0073698
-0.012892      0.0014    -0.04115  -0.0018481     0.18622    0.061814   -0.013216
-0.010293    0.009845   -0.047646  -0.0024977     0.17745     0.06831   -0.014191
-0.0054209    0.013418   -0.045047  -0.0011985     0.18589    0.078055   -0.011267
0.0023744    0.013093   -0.037902    0.003024     0.18946    0.082277  -0.0050961
0.011469    0.012768   -0.028482   0.0088706      0.1716    0.074157 -0.00054884
0.019914    0.015042   -0.019712    0.016016     0.14009    0.051745   0.0043233
0.028359    0.020888   -0.018738    0.027385     0.11054     0.01764   0.0085458
0.034206    0.029658   -0.031081    0.039402     0.10306   -0.019388    0.011144
0.039727    0.038103   -0.059664    0.050121     0.12483   -0.049595    0.011794
0.04395      0.0433    -0.10124    0.056942     0.16543   -0.064861    0.011144
0.044275    0.042326    -0.14476    0.057267     0.20993    -0.06681    0.010495
0.038428    0.037454    -0.17887     0.05142     0.23169   -0.056416    0.012119
0.028034    0.030957    -0.19901    0.046548     0.19044   -0.038551    0.013418
0.017965    0.022188    -0.20778    0.047198    0.041676   -0.018088    0.010819
0.009845    0.013743     -0.2094    0.054344    -0.24708  0.00075039   0.0059473
0.0072465    0.003024     -0.2081    0.065387    -0.66056    0.014068  -0.0015233
0.014717  -0.0093186    -0.20778    0.071883     -1.1393    0.018615  -0.0073698
0.025111   -0.020037    -0.21232    0.067986     -1.5996    0.018615  -0.0093186
0.027709   -0.023935    -0.22467    0.057267      -1.963    0.013743  -0.0060706
0.021538   -0.019388    -0.24188      0.0433     -2.1797    0.011144   0.0010752
0.011469  -0.0073698    -0.23506     0.03518     -2.2333    0.016341    0.009845
0.0036737    0.010495    -0.14509    0.037454      -2.129     0.02641     0.01829
-0.0011985    0.031282    0.079029    0.046223     -1.8887    0.037129     0.02641
-0.0031473    0.047847     0.40416    0.054019     -1.5366    0.043625    0.030633
-0.0031473    0.056942     0.72799    0.054344     -1.1026    0.040377    0.028034
-0.0047713    0.054344     0.94594    0.041676     -0.6349    0.024137    0.016991
-0.0089938    0.041027     0.99174    0.015692    -0.19803   -0.011592  -0.0015233
-0.01484     0.01894     0.85792   -0.021986     0.14204   -0.063561   -0.022311
-0.021337   -0.007045      0.5984   -0.065835     0.36161    -0.12073   -0.040825
-0.02426   -0.027183     0.29633    -0.10774     0.49218    -0.16815   -0.053492
-0.02361   -0.038551    0.031932    -0.13794     0.59872    -0.19413   -0.059339
-0.021012   -0.039851    -0.14509    -0.15288     0.73546    -0.19511    -0.05739
-0.018738   -0.033354    -0.22532    -0.14964     0.92093    -0.17302   -0.046671
-0.018738   -0.020362    -0.23051    -0.12787      1.1275    -0.13469   -0.030431
-0.018413  -0.0031473    -0.19706   -0.092794      1.3139   -0.090521    -0.01484
-0.014191    0.016341    -0.15841   -0.048296      1.4487   -0.053817   -0.007045
-0.0050961    0.031932    -0.13502 -0.00054884      1.5215   -0.030431  -0.0063954
0.0049729    0.040702    -0.12592    0.040377      1.5413   -0.016789  -0.0073698
0.013743    0.042326    -0.11423    0.070259      1.5205  -0.0044465  -0.0054209
0.01764    0.038428   -0.081751    0.080653       1.466    0.009845  -0.0031473
0.014068    0.028359   -0.010618    0.072208      1.3831    0.019589  -0.0057458
0.0017248    0.015692    0.094295    0.046223      1.2808     0.01829   -0.017439
-0.01614   0.0059473     0.20408    0.015042      1.1597   0.0020496   -0.036278
-0.035303 -0.00022403     0.28138  -0.0089938      1.0197    -0.02426   -0.057065
-0.047971 -0.00087364      0.3025   -0.015815     0.85759   -0.051219   -0.075904
-0.052193   0.0010752     0.26579  -0.0057458     0.67245   -0.072006   -0.082076
-0.04927   0.0046481     0.18654    0.013418     0.46815   -0.082076   -0.074605
-0.046022   0.0075714    0.091372    0.028034     0.25183   -0.081426    -0.05804
-0.046347    0.011794   0.0059473    0.031282    0.032906   -0.073306   -0.040175
-0.04992    0.014717   -0.054792    0.020888     -0.1714   -0.061937   -0.029782
-0.057065    0.016666   -0.091495  0.00042559    -0.34095   -0.047646   -0.028157
-0.06551    0.016016    -0.11066   -0.026533    -0.45528   -0.035953   -0.034654
-0.068109    0.015367    -0.12073   -0.050894    -0.49848   -0.024585   -0.045372
