-0.04862    0.025761   -0.012567   -0.029782    0.041676   -0.042449   -0.013541
-0.042774    0.033231   -0.010293    -0.03173    0.066362   -0.039851  -0.0076946
-0.029782     0.03583   -0.016789  -0.0063954    0.077405    -0.03303  -0.0041217
-0.011267    0.034206   -0.027183    0.024786    0.074806   -0.020362  -0.0044465
0.010819    0.031282   -0.037577    0.021213    0.056292  -0.0060706  -0.0034721
0.030308     0.02641   -0.040825   -0.025234    0.025111   0.0026992   0.0023744
0.045574    0.023162   -0.031406   -0.080127  -0.0050961   0.0052977    0.015042
0.055318    0.025436   -0.013541    -0.10254   -0.016464   0.0075714    0.034206
0.059541    0.033231   0.0056225     -0.0837   0.0046481    0.016016    0.059216
0.055643    0.044599    0.016341   -0.053492    0.050771    0.030633    0.081627
0.050446    0.057267    0.012443   -0.043423     0.10242    0.047523    0.090722
0.046873    0.064413  -0.0037969    -0.06551     0.14042    0.059541    0.084876
0.046223    0.063438   -0.026209    -0.11488     0.15438    0.062139    0.069285
0.042975    0.054668   -0.047971    -0.17465     0.14951    0.053694     0.05142
0.032257    0.039727   -0.068434    -0.22726     0.13522    0.040377    0.034206
0.014068    0.017965   -0.088572    -0.26267     0.11931    0.025761    0.020239
-0.0057458  -0.0099683    -0.10774    -0.26072     0.11151    0.015367   0.0088706
-0.016789   -0.040175    -0.11748    -0.20258     0.11833    0.011144   0.0010752
-0.013541   -0.063886   -0.076229    -0.09117     0.14496    0.015042  0.00042559
0.0026992   -0.069408     0.10761    0.047847     0.17972    0.025111   0.0046481
0.021863   -0.055116     0.49543     0.17712     0.20343    0.032906    0.011469
0.030957   -0.026858      1.0356     0.26547     0.20311    0.034206    0.016666
0.029333   0.0069217      1.6186     0.30022     0.17257    0.029009     0.01764
0.029333    0.042975      2.1263     0.29048     0.11963    0.017965     0.01764
0.039727    0.072858      2.4768     0.25475    0.057267   0.0078962    0.018615
0.058241      0.0852      2.6541      0.2148  -0.0041217 -0.00054884     0.01829
0.079679    0.071883      2.6905     0.18524   -0.061613   -0.010618    0.017316
0.094295    0.029009      2.5956     0.16608    -0.12138   -0.020362    0.015692
0.094945    -0.04115      2.2611     0.14594    -0.19186   -0.030756   0.0085458
0.078704    -0.13502      1.4556     0.11411    -0.27891   -0.039201  -0.0067202
0.047523    -0.23766     0.05272    0.076106    -0.37603   -0.043423   -0.026209
0.0065969    -0.32828     -1.6486    0.049472    -0.46502   -0.048296   -0.042124
-0.030431    -0.37765     -3.1125     0.05207    -0.52869   -0.059014   -0.047971
-0.052518    -0.35232     -3.9603    0.093321    -0.54915   -0.072331   -0.045047
-0.051868    -0.21785     -3.9915     0.16445    -0.51699   -0.081751   -0.036602
-0.03303    0.029983      -3.309     0.23624    -0.44099   -0.083375   -0.027183
-0.0057458     0.31939     -2.3158     0.27684    -0.34062   -0.078503   -0.023285
0.013418     0.53408     -1.4242     0.26969    -0.24123   -0.067784   -0.027508
0.016991     0.57826    -0.86226     0.22324    -0.16782   -0.053817    -0.04115
0.0052977     0.44021    -0.66835     0.16283    -0.12852   -0.048296   -0.057715
-0.016789     0.19563    -0.73331     0.10956    -0.11163   -0.050569   -0.073631
-0.038551     -0.0405    -0.87363    0.074482   -0.093119   -0.054467   -0.081426
-0.046996    -0.17919     -0.9256    0.058566    -0.04862   -0.053817   -0.071032
-0.038227    -0.19706    -0.80185    0.056942    0.030633   -0.042774   -0.044073
-0.015165    -0.13047    -0.51309    0.058891     0.12872   -0.027833   -0.010618
0.0088706   -0.039851    -0.14866    0.052395     0.21447    -0.01484    0.020239
0.021538    0.025436     0.18037    0.037778      0.2619  -0.0044465    0.039727
0.022837    0.050121     0.39604    0.021538      0.2593   0.0033489    0.043625
0.016991    0.037454     0.48049   0.0072465      0.2174   0.0095202    0.034855
0.011144    0.008221     0.46035  -0.0021729     0.16056    0.010495    0.021863
0.010495   -0.012892     0.37948 -0.00054884     0.11216   0.0043233    0.012443
0.022188   -0.010943     0.27619    0.019914    0.091047  -0.0044465    0.012119
0.044275    0.011469     0.17582    0.064413     0.10664  -0.0089938    0.016666
0.068635    0.043625    0.097868     0.12483     0.15731  -0.0073698     0.01894
0.083251    0.068635    0.054668     0.18264     0.22357  -0.0034721    0.016991
0.082602    0.071883    0.040702     0.22032     0.28203  -0.0021729    0.011794
0.061489    0.048497    0.036479     0.22487     0.31354  -0.0067202   0.0020496
0.020564  -0.0011985    0.021538     0.19336     0.31354    -0.01484   -0.016464
-0.034978   -0.061288    0.018615     0.13392     0.28268   -0.027508   -0.042449
-0.09117    -0.10774     0.17225    0.063113     0.23201   -0.038551   -0.066485
-0.13112    -0.12138     0.64647   0.0046481     0.18037   -0.042774   -0.080127
-0.14119    -0.10189      1.4124   -0.031406     0.14399   -0.037252   -0.077203
-0.12138   -0.061613      2.1675    -0.04862     0.13295   -0.024909   -0.061937
-0.085648   -0.022961      2.4927   -0.055766     0.14204   -0.010293   -0.038876
-0.045697  -0.0024977      2.1584   -0.062262     0.16445  0.00075039   -0.014516
-0.010943  -0.0024977      1.2961   -0.070382     0.19011   0.0039985   0.0043233
0.015692  -0.0096434     0.28561   -0.074605     0.21317   0.0078962     0.01764
0.031282   -0.012567    -0.47152   -0.069083     0.22974    0.016016     0.02706
0.039402  -0.0057458    -0.77619   -0.050244     0.24403    0.029333    0.028034
0.0433   0.0052977    -0.68362   -0.021337     0.26417    0.042651    0.025111
0.044924    0.014717    -0.36856    0.009845      0.3025     0.05272    0.023487
0.045899    0.016991   -0.018088    0.037129     0.35739    0.058891    0.026735
0.048172   0.0088706     0.23526    0.054668     0.41423    0.058891    0.031282
0.050771  -0.0021729     0.33952    0.061165     0.43924    0.051096    0.033231
0.049147  -0.0015233     0.31549    0.054019     0.40124     0.03453    0.031282
0.041027    0.018615     0.22552    0.031607     0.28398    0.013093    0.025436
0.021538    0.055643     0.12937  -0.0044465    0.089748   -0.011592    0.016016
0.00075039     0.10047    0.066686   -0.046347    -0.15516   -0.034329   0.0039985
-0.013866     0.14074    0.046873   -0.084024    -0.39551    -0.04927  -0.0089938
-0.017439     0.16835    0.053694    -0.10968    -0.57741   -0.056091   -0.017114
-0.011592     0.17517    0.063113    -0.12235     -0.6651   -0.055766   -0.019063
-0.0041217     0.16121    0.057592    -0.12625    -0.66056   -0.054792   -0.018088
-0.0041217     0.13132    0.030308    -0.12268    -0.58423   -0.052843   -0.018088
-0.010293    0.096244  -0.0083442    -0.11715    -0.47055   -0.050244   -0.018738
-0.015815    0.064088   -0.046022    -0.11066    -0.35491   -0.047971   -0.019388
-0.013866    0.036154   -0.074605    -0.10124    -0.25942   -0.046671   -0.015815
-0.0034721    0.013418    -0.10124   -0.090845    -0.18861   -0.046996   -0.007045
0.0075714  -0.0047713    -0.13404   -0.078503    -0.13729   -0.047646   0.0033489
0.014068   -0.019712      -0.174   -0.064536    -0.10091   -0.046996    0.013418
0.011794   -0.043099    -0.20453   -0.051868   -0.078827   -0.042124    0.017965
-0.00087364   -0.086298    -0.17822   -0.038227   -0.073306   -0.034654    0.019914
-0.019712    -0.14671   -0.035303   -0.018738     -0.0824   -0.028807    0.019914
-0.038227    -0.20583     0.23689   0.0078962   -0.095717   -0.022311    0.017316
-0.051219    -0.24091     0.56299    0.040702    -0.10156   -0.014191    0.011144
-0.053817    -0.24026     0.83226    0.074482   -0.095068  -0.0057458   0.0062721
-0.041475     -0.2029     0.96803     0.10306   -0.079802  0.00042559   0.0085458
-0.019388    -0.13437     0.95601     0.11671   -0.063561   0.0052977    0.017316
0.0010752   -0.046996     0.82641     0.10404   -0.051219    0.012119    0.022837
0.014717    0.042326     0.61691    0.047847   -0.045372    0.019589    0.022512
0.021213     0.11054     0.31192    -0.06551   -0.044398    0.022512    0.017965
0.024461     0.13912    -0.13762    -0.23344   -0.043748    0.020239    0.013743
0.025111      0.1206    -0.64984    -0.43936   -0.042774    0.016341    0.014392
0.023487    0.066686      -1.039    -0.65179   -0.038551    0.014392     0.01764
0.01764  -0.0031473     -1.1867    -0.83628   -0.023935    0.015367    0.014392
0.00010078    -0.07428     -1.1065    -0.96685   0.0072465    0.016341   0.0043233
-0.030756    -0.13664    -0.89507     -1.0237    0.054993     0.01764  -0.0067202
-0.065835    -0.18342    -0.65926    -0.97919     0.10924    0.015692   -0.012892
-0.09117    -0.21362    -0.47314    -0.78886     0.15796   0.0069217  -0.0099683
-0.094418    -0.22629    -0.36823     -0.4254     0.19466  -0.0093186  -0.0018481
-0.077853     -0.2159    -0.32178    0.087149     0.22032   -0.026533   0.0078962
-0.054142    -0.17627    -0.27274     0.64517     0.24436   -0.036927    0.014068
-0.036278    -0.10774    -0.17205      1.1249     0.26319   -0.039526    0.015042
-0.038876   -0.028807   -0.028157      1.4332     0.26579   -0.035628   0.0052977
-0.068434    0.025436     0.10956      1.5189     0.24663   -0.030756   -0.011267
-0.11228    0.033881     0.19531      1.4033     0.20473   -0.031081   -0.029782
-0.15288   -0.007045     0.21155      1.1567     0.14724   -0.037252   -0.044073
-0.17789    -0.07428     0.17192     0.86669      0.0865   -0.045047   -0.051544
-0.17952     -0.1321     0.11021     0.59612    0.031282   -0.048296   -0.052193
-0.15776    -0.15386    0.079354     0.37915   -0.018738    -0.04115   -0.047321
-0.12235    -0.13599     0.12125     0.22129   -0.078827   -0.026209   -0.037252
-0.080776   -0.090196     0.22162     0.11346     -0.1662  -0.0060706   -0.018738
-0.037577   -0.030431     0.32783    0.038428    -0.28573    0.017965   0.0085458
0.0065969    0.030308     0.39831   -0.021661    -0.42637    0.045899    0.040377
0.052395    0.076755     0.41293   -0.085324    -0.56409     0.07773     0.06961
0.095919    0.091696     0.35999    -0.16458    -0.66738     0.10469    0.086175
0.12937    0.069934     0.24046    -0.25227    -0.70798     0.11768    0.088124
0.14074    0.022837    0.092996    -0.32666    -0.68005     0.11443     0.07708
0.12872   -0.031081  -0.0089938    -0.35946    -0.60144    0.096244    0.056617
0.099167   -0.077203  0.00075039    -0.33413    -0.50108    0.066037    0.032906
0.063438    -0.10676     0.15049    -0.25715    -0.40558    0.030633    0.011469
0.028359    -0.11683     0.43437     -0.1675    -0.33153  -0.0054209  -0.0060706
-0.00022403    -0.10449     0.79296   -0.099615    -0.27631   -0.038876   -0.021337
-0.016789   -0.079152      1.0586   -0.069083    -0.22954   -0.064211   -0.034978
-0.02426   -0.056091      1.0271   -0.067459    -0.18277    -0.07493   -0.045697
-0.028807   -0.040825     0.66303   -0.077853    -0.13794   -0.074605   -0.052193
-0.0405   -0.018738     0.12548   -0.087272   -0.094418   -0.071682   -0.054467
-0.055116    0.033556    -0.37927    -0.10514    -0.04927   -0.071682   -0.057065
-0.068758     0.13295    -0.76482    -0.14281   0.0010752   -0.075255   -0.061937
-0.069408     0.27099     -1.1205    -0.18959    0.058891   -0.078503   -0.062912
-0.045697     0.41845     -1.5794    -0.22402     0.12678   -0.076554   -0.055116
0.0049729     0.53733     -2.1147    -0.23344     0.20148   -0.067459   -0.037252
0.065712     0.60327     -2.4795    -0.22142     0.27196   -0.054467   -0.013541
0.11833     0.61496      -2.398    -0.19998     0.32296    -0.04115    0.011144
0.15503     0.58313     -1.8286    -0.18017     0.35479   -0.029782    0.029983
0.17127     0.51102    -0.99901     -0.1636     0.37103   -0.016464      0.0433
0.16803     0.39604     -0.2513    -0.14996     0.37103  -0.0024977    0.055968
0.14724     0.24338     0.16283    -0.13729     0.35544   0.0065969    0.070584
0.11443    0.078055     0.22422     -0.1256     0.32231   0.0069217    0.083901
0.079029   -0.056741      0.1284    -0.11618     0.26319 -0.00022403    0.092346
0.048497    -0.14087     0.16608    -0.10481     0.17127   -0.010943    0.092346
0.015042    -0.18796     0.48666   -0.088247      0.0433   -0.023285    0.084551
-0.020687    -0.23181     0.95309   -0.078503    -0.10481   -0.038551    0.068635
-0.051868    -0.28411      1.2912    -0.09182    -0.23766   -0.056741    0.048497
-0.069083    -0.32471       1.337     -0.1269    -0.32373   -0.072981    0.028359
-0.07428    -0.32146      1.1249    -0.16133    -0.35426     -0.0824    0.011469
-0.076879    -0.26397     0.81764    -0.16198     -0.3416   -0.084024   0.0010752
-0.084999    -0.17757     0.55812    -0.10806    -0.30457   -0.084674  -0.0096434
-0.10124    -0.10546     0.39961  -0.0089938    -0.25715   -0.088896   -0.023935
-0.12073   -0.075904     0.30867    0.099167    -0.20648   -0.095068     -0.0405
-0.13404   -0.087922     0.22259     0.17615    -0.15516    -0.10091   -0.051544
-0.13242     -0.1191     0.10339     0.20311    -0.10449    -0.10351   -0.050569
-0.11001    -0.13827   -0.043423     0.18946    -0.04862    -0.10156   -0.035628
-0.073306     -0.1269    -0.16523     0.16185    0.008221   -0.095393    -0.01549
-0.037252   -0.077528    -0.18796     0.14367    0.066037   -0.086623   0.0020496
-0.013216  0.00042559   -0.053492     0.15081     0.11768   -0.078827     0.01017
-0.010293    0.080003     0.24143      0.1781     0.14529   -0.073631     0.01017
-0.027833     0.13392     0.62243     0.20863     0.13684   -0.071357   0.0033489
-0.056091     0.14561     0.96803     0.22454    0.094945   -0.072656   -0.010293
-0.081751     0.11671      1.1792     0.20733    0.032906   -0.075579   -0.025884
-0.094418    0.066362      1.2136     0.15861   -0.027183   -0.077853    -0.04115
-0.084674    0.020564      1.0895     0.09462   -0.062587   -0.074605   -0.048945
-0.055766  -0.0060706     0.87026    0.030957   -0.062912   -0.064861   -0.044073
-0.01484  -0.0099683     0.63575   -0.017439   -0.033354   -0.047646   -0.030756
0.024137  0.00010078     0.43924   -0.044398    0.010819   -0.026533   -0.015815
0.054019    0.009845     0.24306   -0.054467    0.050771  -0.0083442  -0.0024977
0.066362   0.0088706   -0.090521   -0.057065    0.073832   0.0046481   0.0052977
0.067986  -0.0089938    -0.63555   -0.061937    0.073182    0.010819   0.0052977
0.066362   -0.035628     -1.2848   -0.076879    0.049796    0.010819  -0.0028225
0.064413   -0.055116     -1.8162   -0.093769    0.016016   0.0075714   -0.011917
0.062789   -0.059339     -2.0485    -0.10156   -0.008669   0.0033489   -0.022311
0.060515   -0.051544     -1.9374   -0.093444   -0.011917   0.0026992   -0.030106
0.060515   -0.045047     -1.5694   -0.073631    0.008221   0.0049729   -0.036278
0.058566   -0.052518     -1.0913   -0.048945    0.041027   0.0072465   -0.042774
0.048822    -0.07428    -0.63782   -0.021986    0.073832   0.0072465   -0.046671
0.028684   -0.093119    -0.29385   0.0078962    0.099167   0.0065969   -0.047321
0.0072465   -0.089221   -0.082725    0.032582     0.11736   0.0072465    -0.04862
-0.010293   -0.060313   0.0065969    0.041027     0.13392   0.0075714   -0.053492
-0.017764   -0.021337   0.0085458    0.031607     0.15796   0.0075714    -0.05804
-0.016789   0.0059473   -0.035953    0.011144     0.19044   0.0049729   -0.055766
-0.0099683    0.009845   -0.095068   -0.013216     0.23136   0.0043233   -0.046671
0.00042559   0.0023744    -0.14769   -0.036602     0.27879   0.0062721   -0.037577
0.013743  -0.0018481    -0.18082   -0.062262      0.3314    0.015692   -0.035953
0.025436   0.0085458    -0.19413   -0.086298     0.39474    0.027709   -0.038227
0.030308    0.032257    -0.19154    -0.10449     0.46847    0.036479   -0.039526
0.028359    0.060515    -0.17335    -0.11261     0.55487    0.039402    -0.04115
0.024461    0.085525    -0.13892    -0.10968     0.64777     0.03453   -0.045372
0.026085     0.10209   -0.089871    -0.10124     0.72994    0.019914   -0.050569
0.031282     0.11054   -0.034654   -0.089871     0.77119   0.0049729   -0.052843
0.029983     0.11541   0.0065969   -0.073955     0.75235  -0.0054209   -0.053492
0.017316     0.12158    0.022188   -0.051868     0.66726  -0.0093186   -0.050569
-0.0028225     0.12223   0.0095202   -0.025559     0.52856   -0.008669   -0.046671
-0.020037     0.10534    -0.02426   0.0026992     0.35869  -0.0060706   -0.042774
-0.027183    0.067011   -0.055441    0.022837     0.18264 -0.00087364   -0.039201
-0.024909    0.013418   -0.063886     0.03453    0.023487   0.0033489   -0.032705
-0.018088   -0.038227   -0.042774    0.037778    -0.11228   0.0078962    -0.02361
-0.010618   -0.076554  -0.0015233    0.036154    -0.22369    0.013743   -0.015165
-0.0031473   -0.093444    0.043625    0.029658    -0.31724    0.021863  -0.0099683
0.0023744   -0.090521    0.076431    0.012768    -0.39551    0.027709  -0.0076946
0.0026992   -0.073631    0.087799    -0.01614    -0.45755    0.029333  -0.0050961
-0.0011985   -0.051544     0.07773   -0.054142    -0.49978    0.023162  -0.0021729
-0.0089938   -0.034004    0.058891   -0.093119    -0.52024    0.010819  0.00010078
-0.018738   -0.026533    0.040702    -0.12885    -0.51764  -0.0047713  -0.0015233
-0.025559   -0.031081    0.024786    -0.15905    -0.49068   -0.018088  -0.0028225
-0.025884   -0.042774    0.009845    -0.18374    -0.43871   -0.027183  -0.0024977
-0.020037   -0.053492   -0.011592    -0.19998    -0.36206   -0.029782      0.0014
-0.010943   -0.053168   -0.046996    -0.20355    -0.27176   -0.025884   0.0056225
-0.00087364   -0.037902   -0.088896    -0.18569    -0.18407   -0.021337     0.01017
0.008221   -0.011592    -0.12398    -0.13437    -0.11098   -0.021661    0.013418
0.016016    0.013743    -0.13567   -0.045372   -0.064861   -0.025234    0.012443
0.021538     0.02706     -0.1191    0.072858    -0.04927   -0.027183   0.0085458
0.026085     0.02641   -0.078827     0.19888   -0.056741   -0.025884   0.0056225
0.025436    0.013743   -0.025234     0.30152   -0.079152   -0.022311   0.0085458
0.022837  -0.0031473    0.026735     0.36129    -0.10416   -0.018088    0.019589
0.01829   -0.019063    0.064088     0.37168    -0.12657   -0.014191    0.029658
0.016016   -0.026209    0.092346     0.34115    -0.13762   -0.010293    0.032906
0.016666   -0.022636     0.12645     0.28463    -0.13372  -0.0060706    0.033231
0.017316   -0.012567     0.17615     0.22065    -0.12235   0.0017248    0.033881
0.017316  -0.0011985     0.23201     0.16705    -0.11358   0.0088706    0.037454
0.017316   0.0049729     0.27651      0.1271    -0.11326    0.011144    0.044599
0.016666  0.00010078     0.29633    0.098517    -0.12008   0.0059473    0.048822
0.012768   -0.013866     0.29178    0.080003    -0.12787  -0.0011985    0.046873
0.0065969   -0.027833     0.26709     0.06896    -0.13145  -0.0031473    0.035505
-0.00054884   -0.034978     0.22649    0.064737    -0.12398  0.00075039    0.022512
-0.0037969    -0.03173     0.18037    0.069285    -0.10709   0.0065969    0.012443
-0.0044465   -0.017114     0.13944    0.074806   -0.087272    0.012443   0.0069217
-0.0024977   0.0052977     0.11118    0.075131   -0.074605    0.020239   0.0088706
0.0010752    0.028684    0.092996    0.061489   -0.073306    0.031282    0.016016
0.0059473    0.044275    0.080003    0.036154    -0.08305      0.0433    0.023812
0.0059473    0.042001    0.063438   0.0056225   -0.097666    0.051745    0.029658
-0.0018481    0.010495    0.039078    -0.02361    -0.11326    0.053044    0.031282
-0.018413   -0.047646   0.0085458   -0.049595    -0.13372    0.045574    0.029658
-0.041475    -0.11586    -0.02361   -0.059989    -0.15711    0.035505     0.02706
-0.059339    -0.16912   -0.061937   -0.047321    -0.17887    0.026735    0.023487
-0.066485    -0.18991    -0.11196   -0.010943    -0.19316    0.021538    0.019589
-0.057715    -0.18179    -0.16035    0.044599    -0.19478    0.019589     0.01894
-0.036927    -0.16035    -0.18634     0.10469    -0.18601    0.016991    0.022512
-0.0073698    -0.13794    -0.17822     0.15276    -0.16815    0.015042    0.029009
0.025111     -0.1204    -0.13437     0.17062    -0.14606     0.01894    0.039078
0.053044    -0.10676   -0.023285     0.14529     -0.1308    0.028359    0.047198
0.065062   -0.094418     0.20246     0.06961    -0.13242    0.037129    0.045899
0.058241   -0.079802     0.55195   -0.059014    -0.15256    0.038103    0.033231
0.03518   -0.051219      1.0034    -0.23279    -0.18179    0.028359    0.014068
0.0046481    0.026735      1.5377    -0.42865    -0.20518    0.011144  -0.0063954
-0.017764        0.22      2.1016    -0.62126     -0.2068  -0.0096434   -0.025884
-0.025884     0.56786       2.558    -0.78821    -0.17594   -0.031406   -0.042774
-0.019388       1.008      2.7412    -0.88987    -0.10806   -0.054142   -0.052193
-0.0057458      1.3789      2.5986      -0.885 -0.00087364    -0.07428   -0.057065
-0.0015233      1.4828      2.1406    -0.75085     0.13392   -0.089546   -0.063886
-0.02361      1.1902      1.2373     -0.5001     0.26612   -0.096692   -0.077528
-0.074605     0.53181    -0.31269     -0.1662     0.36453   -0.097341   -0.095717
-0.13275    -0.28053     -2.2703     0.18199     0.41683   -0.090521    -0.10871
-0.16945    -0.94476     -4.0736     0.47822     0.42885   -0.074605    -0.10319
-0.1662     -1.2715     -4.9704     0.68512     0.41293   -0.048945   -0.072981
-0.12463     -1.2267     -4.9708     0.79036     0.38175   -0.014516    -0.02361
-0.059664    -0.91423     -3.8775     0.80205     0.34082    0.022512    0.029983
0.0075714    -0.51634     -2.0436     0.74488     0.29405    0.056942    0.072533
0.056617    -0.19511    -0.18212     0.65621     0.23818    0.079354    0.098193
0.080003   -0.029782       1.083     0.56657     0.17387    0.088124     0.10761
0.080978  -0.0076946      1.5027     0.48926     0.10631     0.08585     0.10729
0.072858   -0.061613      1.2565     0.42787    0.040377    0.074806     0.10566
0.061489    -0.12105     0.70916      0.3876   -0.023935    0.059216     0.10566
0.049472    -0.14411     0.22747     0.36161   -0.092145    0.042001     0.10209
0.037129    -0.12333    0.020239     0.34407    -0.16718    0.026735    0.090397
0.024786   -0.075255    0.096569     0.32686    -0.25195    0.011144    0.074482
0.011144   -0.025234     0.33628     0.30737    -0.34452  -0.0054209    0.062139
-0.0011985    0.011794     0.60814     0.28593    -0.43774   -0.021337    0.053694
-0.008669     0.03453     0.82739     0.25735    -0.52349   -0.034004    0.046873
-0.011592    0.050446     0.95958     0.21415    -0.58942   -0.048945    0.034206
-0.012242    0.064088      1.0086     0.15666    -0.62093   -0.073955    0.012768
-0.012567    0.075131     0.98264     0.10014    -0.60729    -0.10936   -0.014516
-0.016464    0.076431     0.86669    0.054668    -0.55207    -0.15353   -0.042774
-0.02426    0.063113     0.62113    0.026735    -0.47087    -0.19576   -0.071682
-0.03173    0.038103     0.19563    0.010495    -0.38122    -0.22467   -0.097341
-0.034654    0.010819    -0.37538  -0.0021729    -0.29288    -0.23733    -0.11975
-0.034978  -0.0067202    -0.94476   -0.020037    -0.21362    -0.23181    -0.13307
-0.032055  -0.0083442     -1.3323   -0.047971    -0.15581     -0.2068    -0.13697
-0.024585   0.0039985     -1.4349   -0.087272    -0.12852    -0.16815     -0.1295
-0.0073698    0.025761     -1.2767    -0.13632    -0.12527    -0.12105    -0.10903
0.016016    0.047198    -0.98731    -0.19251    -0.13047   -0.067134   -0.078178
0.037778    0.056942     -0.7213    -0.25195    -0.12787   -0.011267    -0.04115
0.05207    0.053694    -0.57936    -0.30912    -0.11001    0.040052  -0.0037969
0.050121    0.037129    -0.56994    -0.35654   -0.073631    0.078379    0.025111
0.028359   0.0085458    -0.64139    -0.38642   -0.014191    0.099492    0.042651
-0.0073698   -0.023935    -0.72519    -0.39844    0.070259     0.10079    0.049147
-0.046996    -0.04862    -0.76904    -0.39162      0.1638    0.088773    0.048822
-0.075579   -0.055766     -0.7174    -0.37018     0.24371     0.06896    0.043625
-0.086948   -0.043099    -0.45625     -0.3416     0.29048    0.044924    0.037454
-0.086948   -0.018738     0.09397    -0.31171     0.29762    0.023162    0.030633
-0.078178   0.0056225     0.82284    -0.28151     0.28333   0.0075714    0.023162
-0.065835    0.019914      1.4747    -0.25292     0.26937 -0.00087364    0.019914
-0.053168    0.021538      1.8047    -0.22856     0.26709  -0.0047713    0.020564
-0.043099    0.013093      1.7144    -0.20778     0.27521  -0.0093186    0.023812
-0.037577   0.0033489      1.2902    -0.19056     0.29178   -0.017114    0.025761
-0.032705  -0.0037969     0.74066    -0.17724     0.30964   -0.027183    0.022188
-0.027833  0.00010078     0.27879    -0.16653     0.31159   -0.034978    0.010495
-0.025559    0.014717    0.025436    -0.15808     0.28203   -0.037577  -0.0063954
-0.027183    0.030957   -0.020687    -0.15061     0.21058   -0.038227   -0.020687
-0.033679    0.042326    0.051745    -0.14379     0.10989   -0.037252   -0.026858
-0.042774    0.048497     0.14172    -0.13859    0.010495   -0.036602   -0.020362
-0.042449    0.051096     0.17907     -0.1321   -0.052518   -0.037902  -0.0083442
-0.030431    0.053044     0.15438    -0.12138   -0.056091   -0.041475   0.0036737
-0.014516    0.053369    0.093645    -0.10254     0.01017   -0.045372   0.0088706
-0.0031473    0.053369    0.035505   -0.080127     0.13262   -0.047646    0.008221
-0.0021729    0.048822   0.0056225   -0.070382     0.27911   -0.048945   0.0052977
-0.0089938    0.039078    0.008221   -0.077528     0.41456   -0.046996  0.00010078
-0.01484    0.025436    0.034855   -0.089221     0.51914    -0.04115  -0.0083442
-0.014191    0.012119    0.070259   -0.098316     0.57891   -0.037252   -0.020037
-0.0057458   0.0039985    0.097868    -0.11521      0.5893   -0.038876   -0.032705
0.0072465   0.0065969     0.10534    -0.15646     0.55422   -0.042449   -0.039851
0.01764    0.019589    0.089423    -0.20615     0.48699   -0.042774   -0.038227
0.023487    0.036479    0.054668     -0.2133     0.41163   -0.037902   -0.029132
0.025436    0.050446    0.012443    -0.13664     0.34375   -0.027833    -0.01614
0.026735    0.056617   -0.029457    0.012119     0.28561   -0.013541  -0.0018481
0.032257    0.063438   -0.063886     0.18037     0.23169   0.0020496   0.0085458
0.041027    0.082277   -0.088247     0.31192     0.18004    0.014717    0.011144
0.05207     0.11671    -0.10449     0.36973     0.12645    0.023162   0.0046481
0.059865     0.16153    -0.10319     0.34894    0.062139    0.023812  -0.0028225
0.06084     0.20181   -0.071357     0.26904   -0.027508    0.018615   -0.010293
0.054668     0.22097    0.011794      0.1677    -0.15126   0.0088706   -0.014516
0.044924      0.2083      0.1625    0.082927    -0.30619  -0.0050961   -0.015165
0.032257     0.15601       0.347     0.03518    -0.48126   -0.022636    -0.01484
0.016991    0.064413     0.49641    0.021538    -0.65309   -0.041475   -0.020687
0.0020496   -0.051544     0.55325    0.026735    -0.78658   -0.058689   -0.034978
-0.010618    -0.16035     0.49868    0.036154    -0.85252   -0.070058   -0.052518
-0.018088    -0.23051     0.35706    0.038428    -0.83725   -0.069083   -0.061937
-0.019712    -0.24415     0.18264    0.033881    -0.74923   -0.054142   -0.059664
-0.017764     -0.2042    0.032906    0.026085    -0.61703   -0.028157   -0.052193
-0.013866    -0.13534    -0.06616     0.01829    -0.47379  -0.0037969   -0.046671
-0.011917   -0.062262    -0.12235    0.016016    -0.34484    0.012119   -0.040825
-0.011917  -0.0076946      -0.161    0.020239    -0.24156     0.01829   -0.034654
-0.017114    0.019589    -0.21005    0.029009    -0.15808     0.01829   -0.029782
-0.020037    0.029009    -0.28508    0.036804   -0.087597    0.014717   -0.026858
-0.016464     0.03453    -0.38642    0.041027    -0.02361    0.016341   -0.023285
-0.0054209    0.045249    -0.49783    0.039078    0.032257    0.021863   -0.018738
0.0085458     0.06084    -0.58748    0.032906    0.073832    0.028684   -0.014516
0.016341    0.073507    -0.61346    0.028034     0.10047    0.031932  -0.0096434
0.015367    0.072858    -0.56539    0.026085     0.11378    0.029658   -0.007045
0.0043233    0.048822    -0.46762    0.026085     0.12125    0.019589   -0.010943
-0.010943   0.0020496    -0.34387    0.025436     0.12807   0.0062721   -0.018413
-0.027183    -0.04992    -0.16165    0.022512     0.13425  -0.0060706   -0.024909
-0.042449   -0.092794     0.12645     0.01829     0.13879   -0.015815   -0.028482
-0.055441    -0.11748     0.49186    0.017965     0.14172   -0.025884   -0.032055
-0.060963    -0.12073     0.82868    0.022512     0.14691   -0.035303   -0.038876
-0.059989    -0.10676      1.0245    0.028034      0.1625   -0.040825   -0.045697
-0.058365   -0.084349      1.0174    0.032257     0.19174   -0.040175   -0.050569
-0.055116   -0.068434     0.82446    0.033556     0.22487    -0.03238   -0.051868
-0.052193    -0.06616     0.52239    0.034206      0.2489   -0.020362   -0.049595
-0.046347   -0.073955       0.207    0.039402      0.2593  -0.0093186   -0.045047
-0.040175   -0.080776   -0.047646    0.047523      0.2554  -0.0021729   -0.036278
-0.027183   -0.071032     -0.2042    0.046548     0.24436      0.0014   -0.021661
-0.0050961   -0.039526    -0.26819    0.032906     0.23396   0.0049729 -0.00087364
0.027385   0.0046481    -0.27566    0.015042     0.23039    0.011144    0.021863
0.059541    0.047198    -0.27436   0.0059473     0.22779    0.017965    0.039727
0.081627    0.074157    -0.29288    0.013743     0.21805     0.02706    0.051745
0.087799    0.083576    -0.33575    0.037454     0.19693    0.036804    0.060515
0.080653    0.076106    -0.38642    0.066037      0.1716    0.047198    0.068635
0.068635    0.056942    -0.40916    0.085525     0.14821    0.056292    0.075456
0.059865    0.029658    -0.38415    0.088448      0.1271    0.061165    0.075781
0.057592  -0.0028225    -0.32568    0.075456     0.10469     0.06084     0.06961
0.060515   -0.035628    -0.26494    0.053044    0.066362    0.054344    0.058241
0.059865   -0.069408    -0.21914    0.029333  -0.0080194    0.040702    0.044599
0.047847    -0.10838    -0.17042    0.008221    -0.13047    0.018615    0.031932
0.020239    -0.15223   -0.084674   -0.013866    -0.29223   -0.010618    0.019589
-0.017764    -0.19283    0.040052   -0.039526     -0.4608   -0.039851   0.0069217
-0.056741      -0.212     0.17517   -0.064211    -0.59332   -0.060313  -0.0037969
-0.079802    -0.18894     0.27424   -0.081426    -0.65666   -0.068758  -0.0063954
-0.081101    -0.10611     0.29827   -0.084349    -0.64399    -0.06681 -0.00054884
-0.064536     0.02641     0.22941   -0.076554    -0.56539   -0.062912   0.0091954
-0.037902     0.16153    0.076755   -0.068434    -0.44554   -0.061288    0.023487
-0.0096434     0.24858      -0.123   -0.072006    -0.31236   -0.061937    0.040702
0.015042     0.26287    -0.31074   -0.095068    -0.18796   -0.059989    0.054019
0.032257     0.21317    -0.43449    -0.13762   -0.077528   -0.049595    0.058241
0.040052     0.12613    -0.47282    -0.18666    0.028359   -0.030431    0.056292
0.037778    0.031282    -0.43806    -0.23149     0.13392  -0.0067202    0.053369
0.030308   -0.043423    -0.36044    -0.26332     0.23461    0.014068    0.048822
0.020888   -0.076229    -0.26949    -0.27339     0.31354    0.029658    0.045249
0.014717   -0.061613    -0.18829     -0.2461     0.34894    0.037778    0.041027
0.013418   -0.011267     -0.1321    -0.16458     0.31809    0.036479    0.037778
0.019589     0.05272    -0.10189   -0.030106     0.21155    0.022837    0.033881
0.034855     0.11248   -0.088247     0.13035    0.050121  0.00075039    0.030957
0.057267     0.15763   -0.077853     0.27846    -0.12592   -0.020362    0.031607
0.079029     0.18394   -0.069408     0.38825    -0.26754    -0.03238    0.038103
0.092021     0.19401   -0.067459     0.45873    -0.33867   -0.033679    0.046548
0.093321     0.18816   -0.076879     0.49836      -0.339   -0.029782    0.049796
0.082602      0.1651   -0.097666     0.51362    -0.29255   -0.028807    0.046548
0.062139      0.1232    -0.11326      0.5068    -0.23019   -0.034654    0.038753
0.036479     0.06831   -0.086298     0.47399    -0.17205   -0.042449    0.028684
0.010495   0.0075714 -0.00022403     0.42332    -0.12722   -0.045047    0.019589
-0.010618   -0.052518      0.1219     0.36648   -0.096367   -0.037902    0.011144
-0.021012    -0.10968     0.22649     0.31159   -0.077203   -0.027833  0.00010078
-0.01484    -0.15483     0.27067     0.26514   -0.069408   -0.024909   -0.011917
0.0043233    -0.18374     0.24241     0.23071   -0.071682   -0.029132   -0.019712
0.030308    -0.18699     0.17355     0.19758   -0.081751   -0.035953   -0.021661
0.050446     -0.1623     0.11833     0.14821    -0.10514   -0.041475   -0.016789
0.060515    -0.11131    0.099492     0.06896    -0.14379   -0.043099  -0.0063954
0.063438   -0.059989    0.054344   -0.036602    -0.19121   -0.044398   0.0052977
0.059216   -0.046996     -0.1662    -0.14704    -0.23084   -0.048296    0.009845
0.042326   -0.095393    -0.65666    -0.23798    -0.24968   -0.054792   0.0056225
0.012443    -0.18017     -1.2861    -0.28411    -0.23766   -0.061937  -0.0047713
-0.026858    -0.24935     -1.7701    -0.27891    -0.19446   -0.064536   -0.019388
-0.071682    -0.27014     -1.8565    -0.22759     -0.1295   -0.062912   -0.034329
-0.11358    -0.24708     -1.4628    -0.14996   -0.058365   -0.057715    -0.04862
-0.14574    -0.21752    -0.71642    -0.07493   0.0026992   -0.049595   -0.060313
-0.1701    -0.21687     0.10144   -0.025234    0.047847   -0.044723   -0.067459
-0.18731    -0.25617     0.69292  -0.0093186    0.075131   -0.043099   -0.068434
-0.19186    -0.30847      0.9245   -0.024585    0.087799   -0.040175   -0.061937
-0.17822    -0.32146     0.85142   -0.057715    0.095269   -0.032055   -0.051219
-0.14996     -0.2461     0.64354   -0.097017     0.10924   -0.020037   -0.043423
-0.11521   -0.067784     0.46912    -0.13762     0.13782  -0.0083442   -0.044398
-0.080776      0.1781     0.40838    -0.17659     0.17192   0.0023744   -0.054142
-0.050244     0.41878     0.45191    -0.21037     0.19499   0.0088706    -0.06681
-0.020037     0.60035     0.54675    -0.22856     0.19304   0.0059473   -0.077853
0.011144     0.69129     0.64452    -0.21979     0.16575   -0.008669   -0.080776
0.039402     0.68609     0.70948    -0.18244     0.12223   -0.029132    -0.07428
0.058891     0.59937     0.74326    -0.12268    0.078379   -0.045047   -0.059664
0.070259     0.46295     0.77509   -0.056416    0.044924   -0.049595   -0.045372
0.074482     0.31451     0.80173  -0.0028225     0.02641    -0.04115   -0.037902
0.069285     0.18297     0.76762    0.028034    0.022188   -0.023935   -0.034654
0.05207    0.080003     0.61529    0.032257    0.032257  -0.0067202   -0.034004
0.024137   0.0049729     0.36551    0.014068      0.0433    0.003024   -0.035303
-0.0083442   -0.045047      0.1219   -0.015815    0.047847   0.0069217   -0.034004
-0.029457   -0.069408  -0.0067202   -0.035303    0.046548    0.012768   -0.026209
-0.030106   -0.072331    0.016666   -0.026209    0.048172    0.025761  -0.0076946
-0.0083442   -0.056416     0.14951    0.011794     0.06019    0.041676    0.017316
0.02641   -0.028807     0.31192    0.065387    0.087149    0.055968    0.041676
0.050771 -0.00054884     0.44411     0.11151     0.12255    0.067661    0.057592
0.051096    0.019589     0.53279     0.13555     0.15633    0.074806    0.059216
0.028034    0.021213     0.58573     0.13132     0.17647    0.071234    0.043625
-0.010293 -0.00054884     0.60782    0.098842     0.18102     0.05142     0.01764
-0.04927   -0.038227     0.52856    0.045249     0.17517    0.019589  -0.0093186
-0.072331   -0.089871     0.22097   -0.019712     0.16673   -0.012892   -0.030106
-0.072981    -0.15029    -0.34842   -0.082725     0.16705   -0.034654   -0.044073
-0.054467    -0.20518     -1.0279     -0.1282     0.18687   -0.040175   -0.048296
-0.025884    -0.23149     -1.5703    -0.14509     0.22227   -0.034978   -0.042774
0.0072465     -0.2146     -1.7945    -0.13437     0.25605   -0.025234   -0.027833
0.036804    -0.15938     -1.6697    -0.10903     0.26774   -0.015815  -0.0083442
0.054993   -0.084999     -1.2943    -0.08305     0.24663   -0.010293   0.0043233
0.055643   -0.018738    -0.83368   -0.064861     0.19336  -0.0089938   0.0023744
0.041351    0.020888    -0.43352    -0.05739     0.12483   -0.010943   -0.012892
0.01829    0.030957    -0.17594   -0.059989    0.062789   -0.013541   -0.030756
-0.0073698    0.014392   -0.064211   -0.068758    0.021863   -0.017439   -0.041475
-0.030106   -0.019063   -0.053817   -0.082725  -0.0018481   -0.020037   -0.043099
-0.048296   -0.056091   -0.086298   -0.097991   -0.017114   -0.020037    -0.04115
-0.062262   -0.085324    -0.11423    -0.10838   -0.027183   -0.018738   -0.038227
-0.072981   -0.097991    -0.11423    -0.10838   -0.033354   -0.018088   -0.035628
-0.075579   -0.093444   -0.085973   -0.098641   -0.037252   -0.017764   -0.029132
-0.070382   -0.076229   -0.025559   -0.078827   -0.040175   -0.018413   -0.021012
-0.061613   -0.051219    0.090072   -0.053168   -0.044723   -0.021337   -0.011917
-0.051219   -0.025884     0.27067   -0.025234   -0.051219   -0.026858  -0.0021729
-0.041475  -0.0060706     0.48666   0.0036737   -0.059339   -0.030106    0.008221
-0.029782   0.0062721     0.68642    0.029333   -0.063886   -0.030431    0.015042
-0.016464    0.013093     0.83063    0.045899   -0.071357    -0.02426     0.01894
-0.0057458    0.019914     0.90794    0.054344   -0.085973   -0.015165    0.020888
-0.0018481    0.029333     0.93132    0.053369    -0.10481   -0.010293    0.023162
-0.0050961    0.040702     0.92353    0.044599     -0.1191   -0.015815    0.024786
-0.0096434    0.048497     0.86604     0.02706    -0.12333   -0.031081    0.022512
-0.01484    0.041351     0.65686  -0.0063954    -0.11748   -0.048296    0.016341
-0.017439    0.016016     0.17972   -0.050569    -0.10481   -0.060638     0.01017
-0.01614   -0.022636    -0.53096   -0.092145   -0.088896   -0.065835   0.0056225
-0.01484   -0.059339     -1.2293    -0.11326   -0.075904   -0.060638   0.0036737
-0.0089938   -0.079152     -1.6528    -0.10611    -0.06681   -0.045372   0.0088706
0.0010752   -0.074605     -1.6821   -0.078827   -0.063237   -0.023285    0.019264
0.015692   -0.052518     -1.3729   -0.047971   -0.066485  -0.0028225    0.033556
0.029333    -0.02426    -0.89442   -0.028157    -0.07428    0.011144    0.047523
0.036154  -0.0015233     -0.4267   -0.024909     -0.0824    0.016991    0.058891
0.037129   0.0088706    -0.09117   -0.031406   -0.091495    0.019264    0.068635
0.035505   0.0091954    0.084551   -0.037577    -0.10091    0.020888    0.075781
0.035505    0.009845     0.13717   -0.037577    -0.11423    0.021538    0.076106
0.039402    0.011144     0.12288   -0.024585    -0.12982    0.018615    0.069285
0.045899    0.014068    0.094295  0.00042559    -0.13957     0.01017    0.059216
0.050771    0.019264    0.080328    0.029658    -0.13762  -0.0011985    0.050121
0.05207    0.025111    0.087799    0.055318    -0.12463   -0.012892    0.044924
0.049796     0.02641     0.10924     0.07708    -0.10806   -0.018413    0.043625
0.046223    0.020239     0.12872    0.097218   -0.095068   -0.018738    0.044275
0.040377   0.0033489     0.13327     0.11346   -0.092145   -0.019063    0.044275
0.032257   -0.022636     0.11963      0.1271    -0.10026   -0.025234    0.040377
0.019589   -0.047646    0.089098     0.13977    -0.11391   -0.034978    0.031282
0.0049729   -0.061288    0.049147     0.15016    -0.12852   -0.042124    0.020888
-0.0080194   -0.059339    0.009845     0.15536    -0.13989   -0.043099    0.013743
-0.017764   -0.044398    -0.02361     0.15211    -0.14249   -0.037902    0.012768
-0.023935    -0.02361   -0.057715     0.13652    -0.13275   -0.027183     0.01764
-0.027833  -0.0031473    -0.10026     0.10891    -0.11326   -0.013541    0.018615
-0.028157    0.014068    -0.14834    0.073507   -0.086623  -0.0024977     0.01829
-0.022961    0.031282    -0.18569    0.039402   -0.058365   0.0017248     0.01894
-0.013541    0.048497    -0.18504    0.016016   -0.035953 -0.00054884    0.022512
-0.0028225    0.067661    -0.11488   0.0085458   -0.025234  -0.0054209    0.025436
0.0033489    0.082602    0.030308     0.01017   -0.030106  -0.0099683    0.023812
0.0014      0.0865      0.2122    0.011469   -0.048945   -0.012242     0.01829
-0.008669    0.078379     0.37948   0.0091954   -0.076554   -0.013866    0.012768
-0.019388    0.064737     0.49543   0.0020496   -0.097666   -0.014191   0.0056225
-0.024585     0.05207     0.53928  -0.0063954    -0.10286   -0.015165  -0.0028225
-0.023285    0.037129     0.49576  -0.0080194   -0.088896   -0.012892  -0.0083442
-0.017764    0.015692     0.36876   0.0026992   -0.064211  -0.0083442   -0.012892
-0.013866   -0.015815     0.17712    0.025111   -0.038551  -0.0028225   -0.017439
-0.010293   -0.045697   -0.040825    0.052395   -0.019712   0.0059473   -0.021986
-0.0037969    -0.05739    -0.23733    0.073182  -0.0083442    0.014717    -0.02426
0.0017248   -0.043423    -0.36758    0.080003  -0.0018481    0.021538   -0.021661
0.0026992   -0.011267     -0.3442     0.06961   0.0023744    0.025761   -0.016789
0.0049729    0.025111   -0.061613    0.045899   0.0017248    0.024786   -0.012567
0.009845    0.057592     0.45321    0.016991  -0.0060706    0.021538  -0.0099683
0.018615    0.083576     0.99564   -0.010293   -0.019063     0.01829  -0.0083442
0.025761     0.10371      1.3581   -0.029132   -0.027833    0.013418   -0.010943
0.028359     0.11703      1.4478   -0.033354   -0.028157   0.0078962   -0.019712
0.023487     0.12223      1.3062   -0.019712   -0.025559   0.0023744   -0.037577
0.013093     0.12288      1.0609   0.0046481   -0.026209  -0.0011985   -0.060963
-0.0050961     0.11346     0.85564    0.030308    -0.03303  -0.0041217   -0.080127
-0.028157    0.076431     0.76177    0.045574   -0.041475   -0.011267   -0.088896
-0.04927   0.0043233     0.74976    0.047523   -0.043748   -0.020362   -0.086298
-0.059339   -0.093444     0.73806    0.038103   -0.033354   -0.029782   -0.075579
-0.056416    -0.18634     0.64614    0.021863   -0.010293   -0.035953   -0.063886
-0.046022     -0.2461     0.41618    0.003024    0.023812   -0.037252   -0.054792
-0.035953    -0.26332   -0.012567   -0.017439    0.063438   -0.035628   -0.048945
-0.027183    -0.24578    -0.65341   -0.038227     0.10144   -0.034978   -0.046347
-0.021337     -0.2042     -1.3722   -0.053817     0.13067   -0.039851   -0.042124
-0.018088    -0.15093     -1.9513   -0.058689     0.14042   -0.046671   -0.035303
-0.01614   -0.098316     -2.2209    -0.04992     0.12905    -0.04927   -0.027833
-0.011592   -0.051219     -2.1358   -0.033354    0.098842   -0.046022    -0.02426
-0.0044465   -0.010293     -1.7529    -0.01549    0.059541   -0.037902   -0.025559
0.00010078    0.020239     -1.1377  -0.0028225    0.017965   -0.028807   -0.025884
-0.0024977     0.03453    -0.35979   0.0036737   -0.020362   -0.022311   -0.023935
-0.0083442    0.029658     0.40968   0.0078962   -0.055766   -0.017439   -0.018738
-0.013866    0.012443     0.92808    0.010819   -0.093444   -0.015165   -0.015815
-0.018088  -0.0060706      1.0509    0.010819    -0.13989   -0.013541    -0.01549
-0.018738   -0.015815     0.78971    0.010495     -0.2016  -0.0089938   -0.018413
-0.015165   -0.017114     0.31224     0.01017    -0.27793  -0.0031473   -0.020687
-0.013541   -0.011917     -0.1753   0.0091954    -0.36238  -0.0021729   -0.018413
-0.014191  -0.0041217    -0.51245   0.0043233    -0.44261  -0.0080194   -0.014516
-0.013541   0.0056225    -0.62093  -0.0041217     -0.4988   -0.018738   -0.014191
-0.012242    0.022512    -0.49523   -0.011917    -0.51504   -0.029782   -0.019388
-0.0093186    0.047847    -0.19576   -0.013866    -0.47964   -0.038227    -0.02426
-0.0028225     0.07708      0.1677  -0.0047713    -0.39681   -0.040825   -0.022961
0.0085458    0.091696      0.4256    0.008221    -0.29125   -0.038551   -0.017114
0.018615     0.06831     0.48536    0.014717    -0.18114   -0.029782  -0.0096434
0.021538 -0.00087364     0.42852    0.013743   -0.085973   -0.015165  -0.0018481
0.015367   -0.097341     0.38565   0.0052977   -0.017114   0.0026992   0.0059473
0.0062721    -0.18829     0.40124  -0.0031473    0.028034     0.01764    0.012768
0.0020496    -0.24578     0.42462  -0.0057458    0.058241    0.026085    0.019589
0.0069217    -0.26787      0.3863  -0.0041217    0.073182    0.032582    0.027385
0.018615    -0.26299     0.25735  0.00075039    0.076431    0.036154    0.032906
0.031607    -0.23603    0.065387   0.0065969    0.075131    0.037454    0.033231
0.040052    -0.18147    -0.12073     0.01017     0.07708     0.03518    0.028359
0.038428   -0.075579    -0.22174   0.0095202      0.0865    0.028684     0.01894
0.030957     0.10436    -0.20485   0.0062721    0.097868    0.016016    0.010495
0.01829     0.34017   -0.098965   0.0023744     0.10664  -0.0034721   0.0033489
0.0026992     0.55227    0.030957   0.0010752     0.11606   -0.021337 -0.00022403
-0.01484     0.65004      0.1245   0.0078962     0.13002   -0.031081 -0.00054884
-0.033354     0.59255     0.15114    0.022188     0.15438   -0.030106   0.0023744
-0.045372     0.41618     0.11313    0.042001     0.18654   -0.021337   0.0072465
-0.04862     0.20018     0.03453     0.06019     0.21902  -0.0083442    0.011144
-0.045697    0.023487   -0.060313    0.070584     0.24501  0.00010078    0.012443
-0.037577    -0.07493    -0.13145    0.070909      0.2606   0.0026992   0.0078962
-0.024585   -0.094743    -0.13859    0.063438     0.27132   0.0026992  -0.0018481
-0.010618   -0.063237   -0.059664    0.055318     0.28171   0.0049729   -0.011917
0.0014   -0.010943     0.10404    0.048822     0.29113   0.0056225   -0.018738
0.009845    0.040702     0.31906    0.046223      0.2934    0.003024   -0.018738
0.015042    0.083251     0.51979    0.047523     0.28788  -0.0031473   -0.014191
0.021213     0.11508     0.63023    0.045574     0.27261   -0.008669  -0.0089938
0.025761     0.13912     0.59612    0.031932     0.24923   -0.011592  -0.0054209
0.02706     0.15244     0.43892   0.0023744     0.21805   -0.015815  -0.0024977
0.022512     0.14496     0.23559   -0.043099     0.18004   -0.029132  -0.0037969
0.0056225     0.10794    0.051745    -0.10156     0.13944   -0.047971   -0.007045
-0.023285    0.043625   -0.086623     -0.1623    0.096893   -0.066485   -0.013216
-0.057715   -0.026209    -0.15548    -0.22304    0.044599    -0.08305   -0.021986
-0.085973   -0.079152      -0.161    -0.28865   -0.029782   -0.095068   -0.026209
-0.097341    -0.10221    -0.10254    -0.37278     -0.1217    -0.09929   -0.022311
-0.088247   -0.093444    0.017316    -0.48484      -0.212   -0.091495   -0.012242
-0.065186   -0.064861     0.12093    -0.62158    -0.28053   -0.073631  0.00042559
-0.04115   -0.030756     0.11703    -0.76287    -0.31236   -0.055116    0.012443
-0.023935  -0.0067202    0.010495    -0.87298    -0.30782   -0.043423     0.01829
-0.018738  -0.0080194    -0.10026    -0.91716    -0.28183   -0.042774    0.013418
-0.024585   -0.050569    -0.11586    -0.85382    -0.24773   -0.050569   0.0017248
-0.032055    -0.13567   -0.095717    -0.64302     -0.2094   -0.055116  -0.0096434
-0.027183    -0.24708    -0.30294    -0.27534    -0.15905   -0.047646   -0.012892
-0.0057458    -0.36011    -0.97822     0.19628   -0.081426   -0.024585  -0.0073698
0.028034    -0.45171     -2.0293     0.66888     0.03583   0.0039985    0.003024
0.061814    -0.50368     -3.0109       1.044     0.19174    0.028359    0.013743
0.081952    -0.51212     -3.4435      1.2457     0.37168    0.041351    0.016991
0.081303    -0.48256      -3.146      1.2461      0.5513    0.041027    0.010819
0.059541    -0.42085     -2.2982      1.0752     0.69681    0.024461  -0.0034721
0.023162    -0.31951     -1.2965     0.79393     0.78061  -0.0021729   -0.024585
-0.015815     -0.1662    -0.51115     0.48082     0.78484    -0.03173    -0.04992
-0.047971    0.041351     -0.1204       0.207     0.69616   -0.059989   -0.071682
-0.071682      0.2606    -0.06681    0.026735     0.51654   -0.077203   -0.085973
-0.092469     0.41553    -0.15613   -0.037902     0.28171   -0.087922   -0.088896
-0.11293     0.44834    -0.20518  0.00010078    0.046223   -0.092469   -0.080451
-0.12398     0.37103     -0.1256    0.095919    -0.13469   -0.091495   -0.063237
-0.11586      0.2515     0.15276     0.18622    -0.23149   -0.081101   -0.040825
-0.084024     0.15991     0.66693     0.22584    -0.24513   -0.061937    -0.01484
-0.038227     0.12515      1.3058     0.20798    -0.19771   -0.037577    0.011469
0.0095202     0.13555      1.8463     0.16121    -0.11813   -0.012567    0.039727
0.046223     0.15991      2.0763     0.12028   -0.029782   0.0075714    0.065712
0.06961     0.17582      1.9064    0.098842    0.052395    0.020239    0.080003
0.07773       0.169      1.4211    0.092346     0.11768    0.023812    0.078704
0.073832     0.13652     0.81602    0.092021     0.16023     0.01829    0.068635
0.062464    0.088773     0.29827    0.090397     0.18524    0.011469    0.059541
0.047847    0.044275  -0.0060706    0.070584     0.20246   0.0075714    0.054993
0.037454    0.018615   -0.077528    0.021538     0.22097   0.0069217    0.054019
0.033881     0.01894    0.039727   -0.058689     0.23429   0.0091954    0.054344
0.040052    0.041351     0.27002    -0.15678     0.22909    0.012119    0.053044
0.053044    0.076106     0.53408    -0.24188     0.19531    0.015042    0.050771
0.06831     0.11021     0.75885    -0.28053     0.13067    0.016016    0.045574
0.081952      0.1323     0.89949    -0.25065    0.037454    0.013418    0.039078
0.090397     0.13749     0.94497    -0.15873   -0.076229   0.0056225    0.031282
0.089423      0.1232     0.91281   -0.042449    -0.19543   -0.012242    0.021538
0.069285    0.083576     0.83128    0.042326    -0.30749    -0.04115    0.008221
0.028684    0.021213     0.72117    0.053694     -0.4124   -0.073306  -0.0076946
-0.025884   -0.052518     0.57728   -0.022961    -0.52089   -0.097341   -0.022636
-0.079152    -0.12722     0.34667    -0.17465     -0.6362    -0.10676   -0.032705
-0.11358    -0.19024   -0.024909    -0.37343     -0.7528   -0.097017   -0.036278
-0.11845    -0.23084    -0.48549    -0.57578    -0.85837   -0.077203   -0.032055
-0.093769    -0.23733    -0.88597    -0.72714    -0.92495    -0.05804   -0.021337
-0.049595    -0.21297     -1.0919    -0.78106    -0.91521   -0.046347  -0.0050961
-0.0024977    -0.16133     -1.0555    -0.71772    -0.80834   -0.033679    0.015692
0.036804   -0.086298    -0.82653    -0.55694    -0.61281   -0.016789     0.03583
0.06084   0.0049729      -0.504     -0.3364     -0.3744 -0.00054884    0.045899
0.066362    0.096569    -0.18764    -0.10026    -0.14964   0.0091954    0.042326
0.059216      0.1651    0.050446     0.12093    0.018615    0.012443    0.030957
0.045249     0.19109     0.18654     0.31809     0.11638    0.013418    0.021213
0.032257      0.1781     0.23461     0.49056     0.15016    0.015042    0.015042
0.021863     0.14139     0.22812     0.61788     0.13132    0.016666    0.012119
0.01829     0.10566     0.20505     0.67732    0.072208    0.019264   0.0078962
0.020564    0.086824     0.17939     0.66336   -0.025884    0.020239   0.0020496
0.02641    0.081303     0.14399     0.59222    -0.16035     0.01764  -0.0067202
0.031282    0.072533    0.088448     0.49251    -0.31854    0.012768    -0.01614
0.031282    0.056942    0.015042     0.39279    -0.46957   0.0085458   -0.021012
0.024461    0.039078   -0.063237     0.30737    -0.58228   0.0062721   -0.020362
0.011794    0.016991    -0.13145     0.23883    -0.63587   0.0043233    -0.01549
-0.0054209    -0.01484    -0.17205     0.18264    -0.62613   0.0010752   -0.011592
-0.021012   -0.052518    -0.18049     0.14107    -0.56214  0.00010078   -0.012242
-0.030106   -0.081426     -0.1662     0.11346    -0.46795  0.00042559   -0.019712
-0.032055   -0.095068    -0.14346    0.095919    -0.36661    0.003024   -0.029457
-0.028157   -0.096042    -0.12365     0.07773    -0.27371   0.0052977   -0.038227
-0.021661   -0.092794    -0.11748    0.053044    -0.19348   0.0065969   -0.039851
-0.015165   -0.086298    -0.11748    0.015692    -0.12787   0.0039985   -0.033354
-0.0080194   -0.077203    -0.11196   -0.028807   -0.071357  -0.0011985   -0.021337
-0.00087364    -0.06681   -0.087272   -0.073955   -0.021661  -0.0083442   -0.011592
-0.0021729   -0.055766   -0.042449    -0.11358    0.025761   -0.018413  -0.0089938
-0.01614   -0.041475    0.016016    -0.14379    0.076431   -0.030431    -0.01484
-0.035953   -0.017764    0.075781    -0.16295     0.13197     -0.0405   -0.023935
-0.052193    0.012443     0.11541     -0.1727     0.18687   -0.045047   -0.030756
-0.056091    0.042001     0.11606     -0.1714     0.23721   -0.044723   -0.033354
-0.045047    0.066686    0.071883    -0.15646     0.28593   -0.039851   -0.034329
-0.024909    0.087799   -0.011592    -0.13177     0.33173   -0.030106    -0.03238
-0.0011985     0.10112    -0.12138    -0.11066     0.36746   -0.014191   -0.025234
0.020888    0.098842    -0.24026    -0.10286     0.38565   0.0049729   -0.013541
0.040052    0.078055    -0.34874    -0.11391     0.38467    0.023487   0.0020496
0.053369     0.04395     -0.4228    -0.13697     0.36876    0.036154    0.016016
0.055318  -0.0041217    -0.43904    -0.16035     0.34277    0.040052    0.023812
0.042001   -0.067134     -0.3731    -0.17919     0.31257    0.032582    0.022512
0.010819    -0.14541    -0.19998    -0.19283     0.28691    0.017316    0.012119
-0.035303    -0.23116    0.066037    -0.19608     0.26872 -0.00087364  -0.0067202
-0.085648    -0.31561     0.35154    -0.18991      0.2528   -0.019712   -0.030431
-0.1282    -0.38577     0.56981    -0.17335     0.22974   -0.037252   -0.051219
-0.15126      -0.428     0.65784    -0.15321     0.18654   -0.051219   -0.062262
-0.15223    -0.42832     0.60619    -0.14671     0.12093   -0.061613   -0.065186
-0.13534    -0.37538     0.46977      -0.161    0.049147   -0.063561   -0.063561
-0.10871    -0.26494     0.34992    -0.17627  -0.0018481   -0.055766   -0.055766
-0.079477    -0.10644     0.33595     -0.1636    -0.01549   -0.036278   -0.038876
-0.054467    0.073182     0.44639    -0.12105     0.01017  -0.0089938   -0.013541
-0.033354     0.22714     0.61691     -0.0837    0.062464     0.01894    0.016341
-0.010618     0.31257     0.74294   -0.083375     0.12548    0.039402    0.041027
0.012443     0.31289     0.75008    -0.10059     0.19141    0.053369    0.054668
0.033231     0.24273     0.63055   -0.080127     0.26417    0.061165    0.058241
0.05142     0.13879      0.4308  -0.0018481     0.33173    0.062789    0.055968
0.064088    0.045574     0.21772    0.095919      0.3733    0.057267    0.052395
0.072858  -0.0063954    0.046223     0.16153     0.38045    0.048822     0.05272
0.080653   -0.012242    -0.05804      0.1703     0.36161    0.042001    0.055643
0.088448    0.012768    -0.10059      0.1258     0.33368    0.036154    0.062139
0.090072    0.047523    -0.10059    0.054344      0.3051    0.030633    0.069934
0.078704    0.078379   -0.064536  -0.0067202     0.27359    0.025761    0.072208
0.048172    0.098193   0.0085458    -0.03303     0.22974    0.019914    0.065387
-0.0018481     0.10924     0.11963   -0.018738     0.17322    0.012119    0.047847
-0.057065     0.11573     0.24955    0.023162     0.10664  -0.0028225    0.020888
-0.097341      0.1245     0.36194    0.071234    0.030633   -0.027508  -0.0073698
-0.11293     0.14204     0.43762     0.10924    -0.04927   -0.060638   -0.035628
-0.10806     0.15861     0.48471     0.13652     -0.1191   -0.096692   -0.063886
-0.092794     0.15796     0.51882     0.15341    -0.16945    -0.13145   -0.089546
-0.076554     0.12483      0.5474     0.15309    -0.19251    -0.15905    -0.10968
-0.062912    0.053694     0.53506     0.12483    -0.18861    -0.17042    -0.12138
-0.054467   -0.047646     0.36908    0.064737    -0.16815    -0.16003    -0.12268
-0.050894    -0.15678   -0.076879   -0.023285    -0.14444     -0.1308    -0.11131
-0.045697    -0.23863    -0.77327     -0.1217    -0.12982   -0.088896   -0.088896
-0.031081    -0.26267      -1.493     -0.2094    -0.13177   -0.045697   -0.058689
-0.0096434    -0.22012     -1.9796    -0.27534    -0.15126   -0.008669   -0.025884
0.016666    -0.13567     -2.0813    -0.32048     -0.1753    0.022837   0.0072465
0.039402   -0.047646     -1.8029    -0.34257    -0.18536    0.049472    0.039402
0.053694    0.011794     -1.2852    -0.33607    -0.16912    0.071234     0.06896
0.058566    0.031282    -0.73072    -0.29807     -0.1295    0.090072    0.092021
0.059541    0.020564    -0.31269    -0.23636   -0.082076     0.10469     0.10729
0.062464  -0.0024977    -0.10481     -0.1701    -0.04115     0.11086     0.11508
0.069285   -0.022636   -0.073306    -0.11651   -0.021012     0.10209     0.11443
0.075456   -0.036602     -0.1308   -0.080776   -0.020687    0.075781     0.10566
0.076106   -0.043423    -0.19641   -0.059339   -0.037902     0.03453    0.087474
0.06961   -0.055116    -0.22856   -0.042449   -0.062262   -0.010618     0.06019
0.056617   -0.075904    -0.23051    -0.01614   -0.082076   -0.044723     0.02641
0.045249    -0.09994    -0.22661    0.022512   -0.088247   -0.059664  -0.0034721
0.038103    -0.12268    -0.22467    0.058241   -0.078827   -0.054142   -0.021661
0.029983    -0.14411    -0.21785    0.078704   -0.056741   -0.039201   -0.026533
0.019589    -0.16685    -0.21622    0.083576   -0.028157    -0.02426   -0.022961
0.012768    -0.18699    -0.24838    0.083251   0.0046481   -0.013541   -0.015165
0.011794     -0.2029    -0.32763    0.081952    0.039402  -0.0089938  -0.0054209
0.013743    -0.20648    -0.41565    0.081627    0.078055  -0.0093186    0.003024
0.012443    -0.19738    -0.40039    0.075781     0.12093   -0.008669   0.0065969
0.0062721    -0.18082    -0.14606    0.054993     0.15861  -0.0034721   0.0020496
-0.0034721    -0.15061     0.33108    0.021213     0.18069   0.0020496  -0.0063954
-0.013866   -0.092145     0.83063   -0.018413     0.18297   0.0046481   -0.016464
-0.01614   0.0036737      1.1272   -0.048296      0.1638    0.003024   -0.022636
-0.0089938     0.13035      1.1103   -0.048296     0.12775  -0.0031473   -0.018413
0.0033489     0.26449     0.82089   -0.010618    0.082927   -0.012567  -0.0037969
0.016341      0.3772     0.40968    0.058241    0.041676   -0.020687    0.014392
0.023487     0.44444    0.042651     0.14107    0.014392   -0.024585    0.029658
0.025436     0.45678    -0.17302     0.22032   0.0091954   -0.022311    0.037454
0.025761     0.41975    -0.22337     0.28398    0.022512   -0.014516    0.037778
0.027385      0.3457    -0.16945     0.32751    0.039727  -0.0037969    0.033881
0.028034     0.25248   -0.096367     0.35219    0.041351   0.0033489    0.031932
0.023487     0.15731   -0.072006     0.35284    0.016341   0.0069217    0.029009
0.017316    0.072533    -0.11845     0.31322   -0.027833   0.0039985    0.023162
0.01017    0.012119    -0.21362     0.21837   -0.070382  -0.0028225    0.013418
0.0023744   -0.016464    -0.31334    0.076106   -0.094093   -0.012892 -0.00054884
-0.0044465   -0.012242    -0.37927   -0.071032   -0.098965   -0.029782   -0.016789
-0.0099683    0.015042    -0.39746    -0.17594   -0.094093   -0.054142   -0.028807
-0.01614    0.047523    -0.37668     -0.2107   -0.090196   -0.076554   -0.033354
-0.024909    0.073832    -0.33315    -0.17042   -0.093119   -0.093119   -0.028482
-0.03303    0.091047    -0.26494   -0.077203    -0.10254    -0.10059   -0.018413
-0.031406    0.098193    -0.15451    0.033881    -0.11813    -0.10189  -0.0057458
-0.021012     0.10112    0.029983      0.1323    -0.13827   -0.097991   0.0056225
-0.0037969     0.10501     0.30672     0.20083    -0.15938   -0.091495    0.012768
0.015367     0.10924     0.65166     0.23656    -0.17302   -0.084349    0.016016
0.032257     0.10794      1.0025     0.24436    -0.17432   -0.080127     0.01894
0.039402    0.093645      1.2798     0.23364     -0.1636   -0.079152    0.021863
0.034855    0.064737      1.4072     0.21155    -0.14834   -0.077528    0.024137
0.021538    0.029333      1.3945     0.18784    -0.13242   -0.073955    0.019264
0.0052977      0.0014      1.3383      0.1703    -0.11878   -0.069408   0.0088706
-0.0083442  -0.0080194      1.3679     0.15893    -0.10741   -0.062262  -0.0024977
-0.01549  -0.0021729      1.5004     0.14496   -0.098965   -0.052518  -0.0076946
-0.012892   0.0059473      1.5475     0.11801   -0.096692   -0.042449  -0.0028225
-0.0031473  -0.0018481      1.2964    0.071558    -0.10254   -0.035953   0.0065969
0.0052977   -0.031406     0.68739   0.0069217    -0.11423   -0.029782    0.013743
0.0033489   -0.073306    -0.19381   -0.058365    -0.12495   -0.019388    0.016991
-0.0093186    -0.11748     -1.1494    -0.10449     -0.1243  -0.0057458    0.011794
-0.026209    -0.15288     -1.9169    -0.11943    -0.11098   0.0075714  -0.0044465
-0.041475    -0.17984     -2.2823    -0.10936   -0.094093     0.01764   -0.025884
-0.051219    -0.20843     -2.2226   -0.090521   -0.084349    0.019914   -0.044073
-0.053168     -0.2435     -1.9254   -0.075904   -0.084024    0.016341   -0.051544
-0.050569    -0.26949     -1.6015   -0.065186   -0.088896   0.0091954   -0.049595
-0.0405    -0.26787     -1.3472   -0.050894   -0.090196      0.0014   -0.038551
-0.021661    -0.22044     -1.1569   -0.027833     -0.0837 -0.00022403   -0.025234
0.00075039    -0.12755    -0.98894 -0.00054884   -0.069408   0.0033489    -0.01549
0.019264  -0.0099683    -0.81452    0.024786   -0.051868    0.015042   -0.015165
0.026735    0.098517    -0.62743    0.039078   -0.038227     0.02641   -0.021986
0.019264      0.1638    -0.44716    0.038753    -0.03173    0.029983    -0.03238
-0.0037969     0.17062    -0.28476    0.026085   -0.033354    0.022837   -0.041475
-0.039851     0.12483    -0.12852  -0.0021729     -0.0405    0.011469   -0.048945
-0.079802    0.042651    0.034206   -0.043423   -0.046022 -0.00022403   -0.055766
-0.11228   -0.055116     0.19109    -0.09182   -0.045372  -0.0099683   -0.061613
-0.13047    -0.14866     0.32881    -0.13924   -0.035303   -0.014191   -0.064861
-0.13404    -0.21687     0.44119    -0.17757   -0.017439   -0.011267   -0.068109
-0.1282    -0.23993     0.52109     -0.2042 -0.00087364   -0.007045   -0.078178
-0.11715    -0.21005     0.55844     -0.2042   0.0059473  -0.0067202   -0.089871
-0.10351    -0.13632     0.55162    -0.16555 -0.00022403   -0.010293   -0.095068
-0.089871   -0.045047     0.50842   -0.087597   -0.021986    -0.01549   -0.089871
-0.077853    0.029983     0.44379   0.0075714   -0.057715   -0.020362   -0.078503
-0.065186    0.069285     0.37558     0.09462   -0.097017    -0.02361   -0.063561
-0.052193    0.070909     0.31516     0.16283    -0.12755   -0.024909   -0.045697
-0.039201    0.049796     0.26547     0.21155    -0.14184   -0.025884   -0.028157
-0.024909    0.022188     0.21935     0.24533    -0.13534    -0.02426   -0.013216
-0.0083442   0.0017248     0.15958     0.26482    -0.11131    -0.01549  0.00042559
0.011144   -0.011917    0.073507     0.26125   -0.075904  -0.0031473     0.01017
0.029333   -0.022311   -0.036602     0.23071   -0.036602   0.0075714    0.013093
0.038103   -0.034978    -0.15516     0.18004    0.003024    0.011469   0.0072465
0.03518   -0.047321    -0.24675      0.1258    0.038103   0.0085458  -0.0028225
0.023162    -0.04927    -0.25877    0.081303    0.061814      0.0014   -0.010618
0.0091954   -0.035628    -0.15776    0.056617    0.062789  -0.0060706   -0.011917
-0.0028225   -0.012567     0.03518    0.050446    0.035505  -0.0093186  -0.0060706
-0.0054209   0.0059473     0.26742    0.050121   -0.018088  -0.0057458   0.0020496
0.00042559   0.0056225     0.52564    0.043625   -0.080127   0.0036737   0.0052977
0.011469   -0.016789     0.85792    0.024461     -0.1321    0.010819  -0.0011985
0.019914   -0.048945      1.2597   -0.014516     -0.1688     0.01017   -0.010293
0.023487   -0.075904      1.6375    -0.07493    -0.18796   0.0017248   -0.017764
0.01894   -0.084349      1.8346    -0.15808    -0.19121   -0.010618   -0.025559
0.009845   -0.077203      1.6573    -0.25065    -0.17497   -0.021012    -0.03238
0.0046481   -0.057715     0.97257     -0.3325    -0.13372   -0.027508   -0.039526
0.0075714   -0.022961   -0.094743     -0.3848   -0.063561   -0.028482   -0.040175
0.016341    0.053044     -1.0916    -0.39649    0.023162   -0.027508   -0.034654
0.025436     0.19953     -1.5915    -0.36888    0.091047   -0.025884   -0.021661
0.02641     0.40189     -1.4232    -0.29807     0.10371   -0.021012  -0.0057458
0.017316       0.588    -0.66413    -0.16523    0.050121  -0.0089938     0.01017
0.0069217     0.67732     0.41845     0.03453   -0.052518   0.0059473    0.024137
-0.00054884     0.62698      1.4721     0.25962    -0.17789     0.01764    0.036804
-0.0060706     0.46393      2.2812     0.44931    -0.29905    0.022512    0.048822
-0.014191     0.25995      2.7564     0.56104    -0.38447    0.018615    0.056942
-0.027183      0.0852      2.9023     0.58183    -0.40948   0.0062721    0.055643
-0.042449   -0.026858      2.7606     0.52954    -0.36693   -0.012567    0.043625
-0.05739   -0.088896        2.34     0.43469    -0.26559   -0.030106    0.023162
-0.071682    -0.13794      1.6134     0.32393    -0.12917   -0.044398 -0.00054884
-0.083375    -0.20096     0.57988     0.20863    0.012119   -0.052518   -0.019388
-0.085973    -0.27339    -0.77911    0.092671     0.13392   -0.056741   -0.028807
-0.077853    -0.33055     -2.3801   -0.017439     0.22227   -0.058365   -0.027508
-0.056091    -0.34777     -3.9804    -0.11196     0.27749   -0.053492   -0.016789
-0.021986    -0.31529     -4.9704      -0.174     0.30672   -0.039851   0.0010752
0.017965    -0.23928     -4.9708    -0.19251     0.31386   -0.017764    0.024461
0.058891    -0.13989     -4.9704     -0.1662     0.30185   0.0052977    0.045899
0.094295     -0.0405     -4.0996    -0.11196     0.27814    0.021863    0.062139
0.11638    0.042651     -2.7416   -0.055441     0.24955    0.031932    0.067986
0.12125    0.097543     -1.4758   -0.020037     0.21707    0.040377    0.068635
0.10859     0.11736    -0.54752   -0.018413     0.18037    0.049147    0.066037
0.079029    0.096244   -0.028482   -0.046671     0.14399    0.053369    0.059541
0.03583    0.042326     0.18524    -0.09182     0.11898    0.049472    0.044924
-0.0099683   -0.020362     0.26807    -0.13827     0.11346    0.037778    0.025111
-0.046347   -0.059014     0.35739    -0.17432      0.1336    0.021863   0.0062721
-0.061288   -0.050894     0.49998    -0.19576      0.1768   0.0078962  -0.0083442
-0.046022  -0.0011985     0.66401    -0.20323     0.23981  -0.0031473   -0.018088
-0.010293    0.072533     0.77087    -0.19738     0.30867   -0.010618   -0.023285
0.029658     0.15341     0.76502    -0.18147     0.36551   -0.016464   -0.023285
0.059541     0.21642     0.64647    -0.16003     0.39572   -0.018738   -0.020362
0.071234     0.22974     0.45646    -0.13664     0.38792   -0.015815   -0.017764
0.066686     0.18362     0.24468    -0.11845     0.33693   -0.008669   -0.018088
0.054344     0.10242    0.055318    -0.10384     0.25735  -0.0021729    -0.01614
0.044275    0.032582   -0.081101   -0.090196      0.1677   0.0020496   -0.011592
0.04395   0.0056225    -0.16718   -0.074605    0.086175  0.00075039  -0.0076946
0.050121    0.023162    -0.20193   -0.056091    0.020239  -0.0063954  -0.0063954
0.054019    0.063113    -0.14152    -0.04115   -0.030106   -0.020362  -0.0037969
0.048497    0.096569    0.069285   -0.036927   -0.073631   -0.032705   0.0010752
0.030308     0.10177     0.41228   -0.050244     -0.1256   -0.042774   0.0065969
0.0072465    0.059865     0.74943   -0.076554     -0.2016   -0.045047    0.011794
-0.010943   -0.044723     0.89624    -0.10871    -0.30912     -0.0405    0.013743
-0.021012    -0.21395     0.82641    -0.13567    -0.43319   -0.036927   0.0085458
-0.023935    -0.41046     0.71013    -0.14704    -0.54005     -0.0405  -0.0041217
-0.023935    -0.56117     0.71922    -0.13664    -0.59754   -0.051219   -0.017439
-0.026858    -0.60209     0.86766    -0.11001    -0.59462    -0.06616   -0.025234
-0.033679    -0.51537      1.0333   -0.081101    -0.53973   -0.077853   -0.032705
-0.045047    -0.33283      1.0915   -0.062262    -0.44359   -0.080776   -0.042124
-0.059664    -0.11878     0.99434   -0.053817    -0.31529   -0.077528   -0.051219
-0.077853    0.056942      0.7686   -0.052518    -0.17075   -0.075255   -0.058365
-0.096692     0.14789     0.49316    -0.05739   -0.030106    -0.07493   -0.058365
-0.10903     0.15211     0.25215   -0.061613    0.089748   -0.072981   -0.052843
-0.10741     0.10729     0.10144   -0.060638     0.18264   -0.067784   -0.044073
-0.089871    0.056942    0.046223   -0.059664     0.25118   -0.057065   -0.033679
-0.064861    0.031932    0.055318   -0.064211      0.3012   -0.042774   -0.026209
-0.038551    0.038753    0.080003   -0.075579     0.33758   -0.028482   -0.020687
-0.018413    0.068635    0.092671   -0.088896     0.36421   -0.021012    -0.01549
-0.0089938     0.10047     0.11216   -0.096367     0.38272   -0.020687  -0.0083442
-0.0096434     0.10534      0.1638   -0.091495     0.39084   -0.027183   0.0023744
-0.01614    0.062139     0.24468   -0.071032     0.39214   -0.036602     0.01829
-0.02361   -0.022311     0.31906   -0.039526     0.39702   -0.044398    0.032257
-0.028482    -0.12105     0.34732  -0.0044465     0.40773   -0.051544    0.037454
-0.029782    -0.19511     0.32361    0.024137      0.4191   -0.058365    0.029658
-0.028807    -0.22564     0.28171     0.03518     0.41456   -0.063886    0.017316
-0.024585    -0.20648     0.25248    0.030957     0.38142   -0.066485    0.010819
-0.014516    -0.15029     0.23559    0.023487     0.31192   -0.059989    0.011794
-0.00087364   -0.072656     0.19986    0.030957     0.19531   -0.044073    0.016991
0.010495    0.008221     0.11963    0.064737    0.028359   -0.026858    0.020564
0.017316    0.081627    0.003024     0.12613    -0.17724   -0.012242    0.019589
0.01894     0.13652     -0.1204     0.20278    -0.39162  -0.0076946    0.011794
0.014717     0.15958    -0.22467     0.27067    -0.57416   -0.011592   0.0023744
0.0043233     0.14399    -0.31431     0.29762    -0.68752   -0.018088  -0.0076946
-0.012242    0.093321    -0.39811     0.26677    -0.71545    -0.02426   -0.015815
-0.025884    0.030308    -0.42637     0.18946     -0.6651   -0.025884   -0.020037
-0.028157   -0.016464    -0.32828    0.099492    -0.55954   -0.021986    -0.01549
-0.015165   -0.027833   -0.091495    0.030633    -0.42897  -0.0096434 -0.00022403
0.01017   -0.012567     0.18946   0.0046481    -0.30229    0.008221    0.019264
0.041027   0.0062721     0.37006    0.020564    -0.19608     0.02641    0.041351
0.071883    0.014068     0.36518    0.063438    -0.11098    0.036479    0.059865
0.099817    0.012443     0.19434     0.11054   -0.038227    0.039078     0.06896
0.12093   0.0026992   -0.049595     0.13944    0.033231    0.041027    0.071234
0.1336   -0.018738    -0.26624     0.13977     0.10501    0.046223    0.071234
0.1336   -0.061937    -0.39422     0.11346     0.17777    0.054993    0.066362
0.11313     -0.1295     -0.4202    0.073832     0.24501    0.059541     0.05207
0.073832    -0.20615    -0.36368    0.031932      0.3012    0.058566    0.030308
0.023812    -0.26689    -0.27339  0.00042559      0.3444    0.054344   0.0065969
-0.02361    -0.30392    -0.21622   -0.008669     0.37038    0.048497   -0.011592
-0.054467    -0.31171    -0.24675   0.0046481     0.37006    0.043625   -0.020037
-0.064536    -0.26722    -0.38025    0.024461     0.34147    0.040052   -0.021337
-0.059339    -0.14281    -0.57383     0.02706     0.28723    0.034206   -0.021337
-0.049595    0.060515    -0.71642    0.011144     0.21902    0.026735   -0.021986
-0.039851       0.296    -0.69239  -0.0096434     0.15114    0.023162    -0.02426
-0.029457     0.48536    -0.42507   -0.015815    0.088448    0.022512   -0.024909
-0.022311     0.56007     0.12385  -0.0024977    0.032906    0.021213   -0.026533
-0.02426     0.50648     0.89982    0.019914   -0.022636    0.019914   -0.026858
-0.03303     0.36778      1.6846    0.033881    -0.09182    0.020564   -0.026858
-0.038227      0.2122      2.1948    0.023812    -0.19251    0.022188   -0.027183
-0.034978    0.091696      2.2364  -0.0089938    -0.33672    0.022188   -0.025234
-0.029132    0.020888      1.8041   -0.052843    -0.51927     0.01764   -0.020687
-0.030106   -0.011267        1.07   -0.086948    -0.72032   0.0088706    -0.01549
-0.036278   -0.023935     0.29308    -0.10416    -0.90871  -0.0018481  -0.0099683
-0.038551   -0.026209    -0.30067    -0.11228     -1.0451   -0.011592  -0.0015233
-0.03238   -0.021012    -0.61151    -0.12138      -1.102   -0.014516   0.0033489
-0.021661   -0.008669    -0.66673    -0.13632     -1.0656   -0.011917   0.0017248
-0.011592    0.008221    -0.56247    -0.15516    -0.94282  -0.0083442  -0.0076946
-0.0080194    0.028359    -0.40558    -0.16393     -0.7619  -0.0093186   -0.016464
-0.0083442    0.047847    -0.27891    -0.14704    -0.55954    -0.01614   -0.019388
-0.0096434    0.060515    -0.21557    -0.10449    -0.36401   -0.026209   -0.018088
-0.010293    0.063763    -0.20583   -0.043099    -0.19543   -0.038551   -0.017114
-0.011592    0.057917    -0.22629    0.024786    -0.05804   -0.048296   -0.017114
-0.0093186    0.047523    -0.25325    0.086824    0.047198   -0.053168   -0.016789
0.0026992    0.037129    -0.27079     0.13555     0.12483   -0.053492  -0.0096434
0.022188    0.027709    -0.27306     0.16413     0.18069   -0.052843   0.0039985
0.040052     0.01764    -0.26949      0.1716     0.22324   -0.051868     0.01764
0.049147   0.0085458    -0.27014     0.16153     0.25605    -0.04992    0.023812
0.051745   0.0036737    -0.28183     0.14237     0.27911   -0.045697    0.021863
0.052395   0.0033489    -0.30197     0.11801     0.29633   -0.042774    0.015367
0.055318    0.009845    -0.32373    0.089423      0.3051   -0.042124    0.009845
0.060515    0.020564    -0.33997    0.057267     0.30867     -0.0405   0.0062721
0.065062    0.027385    -0.34744    0.021213     0.31289   -0.037252    0.009845
0.067661    0.025436    -0.35037   -0.018738     0.32198   -0.033354    0.016666
0.06896   0.0091954    -0.35394   -0.062912     0.32491   -0.030431    0.021863
0.064737   -0.016464    -0.35849    -0.10514     0.30899   -0.028482    0.019914
0.053694   -0.040175    -0.36238    -0.14184     0.27359   -0.026533    0.013743
0.036154   -0.051219    -0.36173    -0.15646     0.23331   -0.021012   0.0088706
0.021863   -0.046671    -0.35686    -0.13924     0.20798   -0.010293   0.0085458
0.012443   -0.030756    -0.34549    -0.10514     0.20603   0.0039985    0.012443
0.0049729   -0.013541    -0.32958   -0.087272     0.23039    0.013743    0.014392
-0.0057458  -0.0037969    -0.31724    -0.11196     0.27034    0.016341    0.009845
-0.017764  -0.0034721    -0.31529    -0.18569     0.30997    0.012443   0.0046481
-0.022961   -0.011267    -0.32828    -0.28995     0.33465   0.0023744   0.0023744
-0.020687   -0.026209    -0.35621    -0.38512     0.33465   -0.010293  0.00075039
-0.01484   -0.039851    -0.39389    -0.43806     0.30574   -0.021337  -0.0024977
-0.0083442   -0.050894    -0.42312      -0.428     0.25313   -0.028157  -0.0073698
-0.0011985   -0.052843    -0.42442    -0.33218     0.19434   -0.032055  -0.0096434
0.0072465   -0.045047     -0.3848    -0.14996     0.15926   -0.028482  -0.0011985
0.020888   -0.028482    -0.30944      0.0865       0.169   -0.020037    0.017316
0.042001   -0.010293    -0.22467     0.32978     0.22032  -0.0076946    0.040377
0.061814   0.0069217    -0.16523     0.53311     0.28106   0.0062721    0.056942
0.06896    0.021538    -0.14704     0.65881     0.31322     0.01894    0.062139
0.057917    0.027709     -0.1623     0.68837     0.29373    0.028359    0.056292
0.031932    0.020888    -0.18634     0.62081     0.22422    0.031282    0.045574
-0.00087364  -0.0018481    -0.19836     0.47789      0.1323     0.02641    0.032906
-0.033354   -0.035303    -0.18536     0.30899    0.046873    0.014717    0.017965
-0.059989   -0.067134    -0.14379     0.16153   -0.012567  0.00010078   0.0049729
-0.071682   -0.084674   -0.068758    0.049147   -0.044073   -0.012242  -0.0054209
-0.068109     -0.0824    0.029658    -0.04992   -0.060963   -0.021012   -0.014516
-0.05739   -0.064536      0.1323    -0.14899    -0.06681   -0.026209   -0.021661
-0.044073   -0.037577     0.20765    -0.22694    -0.05804   -0.028807   -0.026209
-0.03303   -0.008669     0.23169    -0.26916   -0.032055    -0.03173   -0.026533
-0.025559    0.016016     0.19628    -0.29482  -0.0034721   -0.036602    -0.02426
-0.021012    0.028359     0.11931    -0.34322    0.010495   -0.039851   -0.016789
-0.018088    0.027709    0.025111    -0.43417   0.0017248   -0.037902  -0.0037969
-0.015815     0.01829   -0.063237    -0.54428   -0.024909   -0.034004   0.0091954
-0.016464  0.00010078    -0.13047    -0.60534   -0.062912   -0.031406    0.017316
-0.017764   -0.021012    -0.16977    -0.53323    -0.10221   -0.031406    0.020888
-0.012242   -0.034329    -0.18147    -0.27534    -0.12398   -0.030106    0.023812
0.0039985   -0.028807    -0.17042     0.13814    -0.11196   -0.025884    0.027709
0.023487  -0.0024977     -0.1256     0.60392   -0.062912   -0.017114    0.028034
0.032906     0.03583  -0.0083442      1.0051   0.0059473  -0.0073698    0.019264
0.027385    0.070909     0.19499      1.2474    0.064413  -0.0050961  0.00042559
0.009845    0.096244     0.42657       1.288    0.090722   -0.012242   -0.021337
-0.01549     0.11378     0.59872      1.1489    0.075456   -0.026858   -0.038876
-0.038876     0.12093     0.64062     0.89884    0.026735   -0.042124   -0.050244
-0.061613     0.10956     0.53636     0.61691   -0.034654   -0.052843   -0.057065
-0.081101    0.072533     0.33952     0.36681   -0.084024   -0.055441   -0.062262
-0.095393    0.014392     0.13425     0.18589    -0.10514    -0.04927   -0.068434
-0.10416   -0.047971   -0.017764    0.073182    -0.10026   -0.040175   -0.072981
-0.10416    -0.10189   -0.096692   0.0088706   -0.078178    -0.03173   -0.072331
-0.091495    -0.13827    -0.11683   -0.032705   -0.053492   -0.026858   -0.065186
-0.067459    -0.15353    -0.10806   -0.069733   -0.038227   -0.026858   -0.050894
-0.041799    -0.14866   -0.093769    -0.10611   -0.032055    -0.03173   -0.030756
-0.022961    -0.12917   -0.084024    -0.13502   -0.029132   -0.040175  -0.0099683
-0.014516    -0.10026    -0.08305    -0.15191   -0.027833   -0.045372    0.003024
-0.01484   -0.065835   -0.090845    -0.16133   -0.029132   -0.045372   0.0033489
-0.020037   -0.029782   -0.098965    -0.17367   -0.036927   -0.043748  -0.0063954
-0.027508   0.0065969   -0.097666    -0.18959   -0.050244   -0.040825   -0.019063
-0.036602    0.042975   -0.088896    -0.19998   -0.069083   -0.038876   -0.027183
-0.042774     0.07773   -0.084349    -0.19771   -0.088896   -0.034329   -0.029782
-0.037252     0.10859   -0.090845    -0.18407    -0.10156   -0.025234   -0.026858
-0.021661      0.1297    -0.11618     -0.1688    -0.10579    -0.01549   -0.018738
-0.0057458     0.13717    -0.15158    -0.16393    -0.10156  -0.0073698   -0.010293
0.0036737     0.12775    -0.14606     -0.1727   -0.093119  -0.0021729  -0.0047713
0.0046481     0.10501   -0.047646    -0.19121   -0.087272 -0.00022403  -0.0037969
-0.0015233     0.06831     0.16445    -0.21232   -0.089546 -0.00087364  -0.0057458
-0.0060706    0.025436     0.46717    -0.22856   -0.097991  -0.0037969  -0.0083442
-0.0015233  -0.0083442     0.78321    -0.23279    -0.10546   -0.007045  -0.0067202
0.010495   -0.018413      1.0392    -0.22337    -0.10189  -0.0093186  -0.0015233
0.023162   0.0017248      1.2077     -0.2016   -0.088247   -0.010618   0.0043233
0.031282    0.041027      1.3045    -0.17952   -0.074605  -0.0089938   0.0078962
0.034206    0.078055       1.336    -0.17432   -0.070707 -0.00087364    0.008221
0.037454    0.089098      1.2594    -0.20128   -0.073955    0.013093   0.0069217
0.040052    0.057592      1.0028     -0.2578   -0.074605    0.028034   0.0072465
0.037129   -0.020362     0.59905    -0.32763   -0.057065    0.037129    0.010495
0.028684     -0.1256     0.21577    -0.39357   -0.021337    0.036154    0.015367
0.021538    -0.22726     0.03518    -0.44911    0.026735    0.025761    0.017316
0.01764    -0.29905     0.12093    -0.50075     0.06961   0.0069217    0.016666
0.016666     -0.3286     0.35706    -0.55402    0.079029   -0.010618    0.015367
0.016991    -0.32568     0.48829     -0.5891    0.032257   -0.022961    0.013093
0.015367    -0.30359     0.31646    -0.56994   -0.070058   -0.030756   0.0056225
0.009845    -0.27144    -0.13664    -0.47184    -0.19706   -0.033354   -0.007045
0.0014    -0.23051    -0.72974    -0.30262    -0.30554   -0.035953    -0.02361
-0.012892    -0.18959     -1.3521    -0.10026    -0.36206     -0.0405   -0.039851
-0.029782     -0.1597     -1.9104    0.083901    -0.36303   -0.044723   -0.050244
-0.04862    -0.14087     -2.2898     0.21935    -0.32373   -0.046996   -0.056741
-0.06551    -0.11261     -2.3908      0.2934    -0.26689    -0.04927   -0.059664
-0.080776   -0.057065     -2.1998     0.31094      -0.212   -0.052843   -0.061937
-0.093119    0.023487     -1.8149     0.29113    -0.17205   -0.052518   -0.065186
-0.10351     0.11703     -1.3803     0.25637    -0.15093   -0.044398   -0.067784
-0.10546     0.20635      -1.012     0.22617    -0.14152    -0.03238    -0.06616
-0.096367     0.28041    -0.75475     0.21188    -0.14379   -0.018738   -0.058365
-0.073306     0.33498    -0.57221     0.21025    -0.16133  -0.0031473   -0.045372
-0.040825     0.36648    -0.36563     0.19921     -0.2016   0.0085458   -0.028157
-0.0021729     0.36648   -0.068758     0.17355     -0.2591    0.011794  -0.0083442
0.036154      0.3327     0.28236     0.15861    -0.30847   0.0049729     0.01017
0.067986     0.27359     0.59612     0.19239    -0.32536   -0.011267    0.025111
0.084876     0.20603      0.8053     0.28496    -0.30749   -0.034978    0.030308
0.080328     0.14951     0.90242     0.40156    -0.26981   -0.064536    0.024461
0.059541     0.11378     0.91508     0.47627    -0.22499   -0.092469   0.0091954
0.033231     0.09397     0.87058     0.46523    -0.18017    -0.11358   -0.010618
0.012768    0.078704     0.78776     0.36421    -0.12787    -0.11975   -0.025234
0.0046481    0.055318     0.67603     0.20538   -0.070707    -0.11098   -0.028482
0.0075714    0.019264     0.53863    0.030957   -0.022961   -0.086623   -0.020362
0.011794   -0.025884     0.39572     -0.1217   0.0059473   -0.053168  -0.0024977
0.016991   -0.071357     0.27067    -0.22012    0.021538   -0.017764    0.021863
0.025111    -0.11228      0.1703     -0.2552    0.038753    0.019589    0.047523
0.032906    -0.14834    0.090397    -0.24415    0.065712    0.056292    0.071558
0.033881    -0.18212    0.019914    -0.21232     0.11054    0.083901    0.086824
0.022512    -0.20713   -0.050244    -0.17789     0.17452    0.094295    0.087474
0.003024    -0.21622    -0.12527    -0.15126      0.2554    0.088448     0.07773
-0.018088    -0.19836    -0.19901    -0.13892     0.34602    0.071234    0.062789
-0.034654    -0.15126    -0.26559    -0.14152     0.43664    0.050446    0.047523
-0.043423   -0.082725    -0.32536    -0.15581      0.5146    0.029983    0.029983
-0.044723   -0.012892    -0.38999    -0.17237     0.57046   0.0078962    0.010819
-0.042774    0.037454    -0.45658    -0.18634     0.58638   -0.018413  -0.0047713
-0.043423     0.06019    -0.49166    -0.19511     0.54383   -0.043099   -0.016789
-0.046996    0.063763    -0.44878    -0.19998      0.4243   -0.061613   -0.026209
-0.050244    0.059216    -0.30977     -0.2016     0.23071   -0.068758   -0.029132
-0.046671    0.055643    -0.10319    -0.19121  0.00010078   -0.068109   -0.027183
-0.03173    0.054019     0.10144    -0.16847     -0.2055   -0.065186   -0.020037
-0.0063954    0.053044     0.25313    -0.13567    -0.33672   -0.059339   -0.011592
0.021213     0.05272     0.38272    -0.09994    -0.37862   -0.047971   -0.007045
0.040702    0.050771     0.60164    -0.06616    -0.34809    -0.03173  -0.0054209
0.046548    0.039727     0.94951   -0.037252    -0.27988    -0.01484  -0.0041217
0.037778    0.017316      1.3058   -0.010943    -0.20972 -0.00087364  -0.0015233
0.017316   -0.011592      1.4932    0.014717    -0.15905   0.0052977 -0.00022403
-0.0093186   -0.038551      1.4166    0.033881    -0.13307   0.0023744 -0.00022403
-0.030756   -0.055116      1.1148    0.046873    -0.12235  -0.0060706 -0.00022403
-0.043748   -0.057715       0.715    0.056292    -0.11683    -0.01614   0.0020496
-0.046022   -0.044723     0.35284    0.064088     -0.1178   -0.026209   0.0085458
-0.039526   -0.022961     0.11021    0.073832    -0.12333   -0.034329    0.015692
-0.027508 -0.00054884  -0.0041217    0.081952    -0.12885   -0.037577     0.01894
-0.014516    0.013418   -0.025884    0.086175    -0.13112   -0.034978    0.013093
-0.0037969    0.018615  -0.0063954    0.084551    -0.12852   -0.027183   0.0039985
0.0026992    0.016666    0.015692    0.078055    -0.12138   -0.016789  -0.0054209
-0.00087364    0.015042    0.021863    0.068635    -0.10871  -0.0089938   -0.010293
-0.013866     0.01764    0.014068     0.06019    -0.09182  -0.0050961   -0.013541
-0.026533    0.028034      0.0014    0.055968   -0.075255  -0.0044465   -0.019712
-0.030431    0.042975  -0.0073698    0.056942   -0.056091  -0.0034721   -0.029132
-0.02426    0.054344  -0.0067202    0.060515   -0.037252   0.0017248     -0.0405
-0.013541    0.056617  -0.0018481    0.062789   -0.016464   0.0075714   -0.046022
-0.0018481    0.052395   0.0017248    0.062789   0.0085458    0.011794   -0.045372
0.010819    0.040702  -0.0054209    0.063763    0.041676    0.013743   -0.041799
0.020239     0.02641   -0.023285    0.066037    0.087474    0.012443   -0.037577
0.026085    0.012768   -0.059664    0.068635     0.14789    0.012768   -0.033354
0.029333   0.0049729    -0.11488    0.071558     0.21772    0.016016   -0.029782
0.030957  0.00075039    -0.18569    0.072858     0.28983    0.022512   -0.025884
0.031932  -0.0018481    -0.26429     0.06896     0.35252    0.031282   -0.018738
0.03453  -0.0080194    -0.33802    0.059865     0.38825    0.037129  -0.0099683
0.040377   -0.017439    -0.39584    0.047198     0.38305    0.040052  -0.0021729
0.052395   -0.030431     -0.4267    0.033556     0.33498    0.041027   0.0026992
0.064088   -0.047321    -0.42605    0.023487      0.2554    0.041676   0.0088706
0.063113   -0.069083    -0.39551     0.01829     0.16153    0.041351    0.015042
0.049147   -0.092794    -0.32568    0.011794    0.072858    0.039402    0.016016
0.025111    -0.11196    -0.19868 -0.00054884   0.0023744    0.034855    0.013743
-0.0011985    -0.11391   -0.022311   -0.019712   -0.044398    0.029658   0.0065969
-0.027183   -0.094093     0.16575   -0.041475   -0.064861    0.024461  -0.0037969
-0.045372   -0.056416     0.31386   -0.057715   -0.063561    0.022188  -0.0093186
-0.050244   -0.010293     0.38305   -0.063237   -0.055766     0.01894  -0.0076946
-0.036602    0.032582     0.36324   -0.059014   -0.050569    0.011469  0.00042559
-0.011267    0.061165     0.26807   -0.042774    -0.04927   0.0010752    0.009845
0.019914    0.071883     0.13002   -0.015165   -0.045697   -0.010293    0.017316
0.048172    0.069285   -0.011267    0.017316    -0.04115   -0.021986     0.01764
0.067011    0.059865    -0.12365    0.044275   -0.034978   -0.031081    0.014392
0.073507    0.044275    -0.18601    0.058891   -0.026858   -0.034654   0.0075714
0.063438    0.022837    -0.19413    0.067986   -0.016789   -0.035953  0.00010078
0.038103  -0.0028225    -0.15808     0.07773  -0.0063954   -0.037902  -0.0076946
0.00010078   -0.028807    -0.10871    0.092021  -0.0011985   -0.042774   -0.011592
-0.038551   -0.052193   -0.083375     0.10436  -0.0037969   -0.050894    -0.01549
-0.066485   -0.073631   -0.099615     0.11248  -0.0096434   -0.056091   -0.021337
-0.080776   -0.092145    -0.14314     0.12483   -0.012567   -0.055766   -0.028482
-0.083375    -0.10416    -0.18179     0.15146   -0.007045   -0.050569   -0.034329
-0.079152    -0.10449    -0.18959     0.19109   0.0075714   -0.044723   -0.037252
-0.069408   -0.087597    -0.15581     0.23721    0.024786   -0.039526   -0.033354
-0.056091   -0.051219   -0.094418     0.27229    0.033556   -0.035628   -0.020687
-0.039526  -0.0015233   -0.026209     0.28366    0.026085   -0.034004  -0.0018481
-0.018738    0.052395    0.032906     0.26319   0.0059473   -0.034004    0.016341
0.0033489    0.090722     0.06831     0.21512   -0.018413   -0.038227    0.029009
0.024461     0.10047    0.071558     0.15438   -0.036278   -0.042774    0.035505
0.042651    0.081303    0.046548    0.093645    -0.04992   -0.045697    0.038428
0.058891    0.039727   0.0017248    0.041027   -0.060638   -0.046996    0.038103
0.067986   -0.011592    -0.05739    0.010495   -0.064536    -0.04862     0.03453
0.065712   -0.061613    -0.12138   0.0023744   -0.056416    -0.04992    0.024786
0.051745    -0.10351    -0.18277   0.0062721   -0.034978   -0.050894    0.011469
0.032582    -0.13015    -0.24578   0.0069217  -0.0041217   -0.050894 -0.00054884
0.017316     -0.1334    -0.30977   0.0017248    0.024137    -0.04862  -0.0067202
0.0069217    -0.09994    -0.34452  -0.0024977    0.037778   -0.048296  -0.0050961
-0.0047713   -0.012892    -0.31594  -0.0024977    0.039078   -0.050894 -0.00087364
-0.020037     0.12743    -0.22272 -0.00087364    0.036479   -0.052843   0.0033489
-0.036602     0.28268    -0.10059 -0.00022403    0.034206   -0.048296   0.0085458
-0.046996     0.38175   0.0023744  -0.0024977    0.039402   -0.035628    0.012768
-0.051868     0.36876    0.058241  -0.0073698    0.053044   -0.012242    0.017965
-0.051868     0.24273    0.059216   -0.019388    0.076431     0.01894    0.023487
-0.051219    0.057592    0.021538   -0.038876     0.10501    0.049472    0.027709
-0.051544    -0.10903   -0.033679   -0.059014     0.13652    0.069934    0.029009
-0.050244    -0.20615   -0.084674   -0.072331      0.1651    0.073832    0.028359
-0.045697    -0.22369    -0.11748   -0.077853     0.18329    0.063113    0.028359
-0.035303    -0.18829    -0.13145   -0.079152     0.18459    0.042326    0.029333
-0.017764    -0.13664    -0.13437   -0.081101     0.15926    0.020888    0.030308
0.0017248   -0.095717    -0.13177   -0.087597    0.098517   0.0039985    0.030308
0.015042   -0.073306    -0.12885   -0.096692   0.0072465  -0.0050961    0.026085
0.019914   -0.065186    -0.12787    -0.10156    -0.10416  -0.0089938    0.016666
0.017316   -0.063237    -0.12138   -0.094743    -0.21362   -0.012892   0.0026992
0.0085458   -0.059664    -0.05739   -0.072006     -0.2958   -0.017114   -0.012242
0.0014    -0.04862     0.13847   -0.037902    -0.33932   -0.021337    -0.02361
0.0010752   -0.023935     0.48796  0.00042559    -0.35589   -0.025884   -0.025234
0.0095202    0.016341     0.90599    0.033556    -0.35849   -0.029132   -0.019388
0.022512     0.06961      1.2769    0.049796    -0.35264   -0.034004  -0.0083442
0.036479       0.131      1.5481    0.041676    -0.33055   -0.037252 -0.00054884
0.048497     0.19791      1.7291   0.0088706    -0.28411   -0.035628   0.0023744
0.058566     0.26287      1.8564   -0.035953    -0.21622   -0.027508   0.0036737
0.063763     0.31289      1.9736   -0.073306    -0.13697   -0.014191   0.0072465
0.063438     0.32458      2.0802   -0.085324   -0.067784  -0.0047713    0.013743
0.05272     0.27326      1.9675   -0.069083   -0.028482  -0.0031473    0.020239
0.029658     0.14561      1.2945    -0.03173   -0.024585  -0.0083442    0.022837
-0.0034721   -0.034329    0.055318    0.014068   -0.049595    -0.01549    0.016341
-0.036927    -0.20583     -1.2731    0.052395   -0.093119    -0.02361   0.0043233
-0.059339    -0.31301     -2.2482    0.067661    -0.15256   -0.030106   -0.008669
-0.064536    -0.33445     -2.8465    0.057592    -0.23149    -0.03238   -0.019712
-0.052193    -0.29223     -3.2548     0.02706     -0.3351   -0.031406   -0.027508
-0.027183    -0.22272     -3.5728   -0.013866     -0.4556   -0.029132   -0.029132
0.00075039     -0.1597     -3.7089   -0.048945    -0.56636   -0.029132   -0.026209
0.019589     -0.1204     -3.4965   -0.060963    -0.63457   -0.029782   -0.022636
0.024786    -0.10384     -2.8543   -0.047646    -0.63977   -0.032705   -0.019388
0.016991   -0.098641     -1.8757   -0.016789    -0.57481   -0.037577   -0.022311
0.00042559   -0.092145    -0.79405     0.01829    -0.44976   -0.042124   -0.026533
-0.022636   -0.077853     0.12807    0.042001     -0.2893   -0.046996   -0.034654
-0.051544   -0.050894     0.71013    0.050771    -0.12625   -0.052843   -0.046996
-0.080451  -0.0076946     0.94919    0.048172    0.010819   -0.055116   -0.062262
-0.10091    0.048822     0.94594    0.042001     0.10859    -0.04992   -0.073955
-0.10903     0.10274     0.82186    0.032906     0.17452   -0.037252   -0.075904
-0.10644      0.1336     0.62958    0.021213     0.22617    -0.02361   -0.064211
-0.097991     0.12418     0.29957  -0.0015233     0.27391   -0.010293   -0.039201
-0.092469    0.076106    -0.26754   -0.033354     0.31451   0.0026992   -0.011592
-0.091495    0.012443     -1.0195   -0.065835     0.33855    0.017316    0.009845
-0.084999   -0.037252     -1.7314   -0.085973     0.34115    0.033556    0.025111
-0.062587   -0.047971     -2.1716   -0.086948     0.32816    0.049472    0.033881
-0.027183   -0.012242     -2.2336   -0.069408     0.31094    0.056617     0.03583
0.014392    0.058891     -1.9367   -0.042449     0.29275    0.047198    0.031932
0.05142     0.14496     -1.2991   -0.021661     0.27651    0.023812    0.022188
0.071558     0.22032    -0.30814  -0.0089938     0.26319  -0.0041217    0.008221
0.065712     0.25735     0.89884   0.0020496     0.25767   -0.028482  -0.0093186
0.041676     0.23526      1.9905    0.015692     0.25605   -0.045372   -0.025884
0.012119     0.15081      2.6733    0.033881       0.258    -0.05739   -0.037577
-0.0089938    0.028034      2.8025    0.053694     0.26027   -0.064211    -0.04115
-0.01549   -0.090845      2.4345    0.070259     0.26255   -0.067459   -0.038551
-0.0096434     -0.1688      1.7862    0.076755     0.26969   -0.065186   -0.032705
-0.00087364    -0.19316      1.1269    0.070259     0.27879   -0.056416   -0.027183
0.0078962    -0.17302      0.6757    0.056292     0.28236   -0.044398   -0.019063
0.01764    -0.12268     0.50648    0.037454     0.26742   -0.032705  -0.0099683
0.023162   -0.062587     0.54058    0.013743     0.22682   -0.028482  -0.0028225
0.019914   -0.010943     0.62828   -0.012567     0.16835    -0.03238  -0.0024977
0.011469    0.021538     0.64744   -0.033354     0.11541     -0.0405  -0.0063954
0.00042559    0.028034     0.56007   -0.045047    0.089748   -0.044398   -0.013541
-0.0099683    0.012119     0.40319   -0.052843     0.10047     -0.0405   -0.021012
-0.017764    -0.01484     0.24436   -0.073631     0.14107   -0.032055   -0.028807
-0.020687   -0.037902     0.12807    -0.11878     0.19141    -0.02361   -0.032705
-0.012567   -0.044073    0.068635    -0.18764     0.22779   -0.013216   -0.031406
0.0052977   -0.028482    0.056942    -0.26494     0.22974  0.00042559   -0.026533
0.029009   0.0043233    0.071883    -0.32536     0.18946    0.012443   -0.017764
0.054019    0.045249    0.075456    -0.34874     0.11736    0.018615  -0.0067202
0.079029    0.084551    0.029333    -0.33218     0.02641     0.01829   0.0049729
0.098842     0.11606   -0.071682    -0.28638   -0.076879    0.012119    0.013418
0.10404      0.1323    -0.19348    -0.22142    -0.18829   0.0010752    0.016016
0.093645     0.13035    -0.29742    -0.12625     -0.2997   -0.012242    0.015042
0.071883     0.11638    -0.35361    0.010495    -0.39519   -0.023285    0.014717
0.0433    0.099492    -0.34744     0.17355     -0.4543   -0.031081     0.01829
0.01017      0.0852    -0.27339     0.31906     -0.4621   -0.038227    0.022837
-0.020362    0.071883    -0.13989     0.40384    -0.42117   -0.045697    0.024137
-0.039201    0.054344   0.0062721     0.40611    -0.34582   -0.054467    0.020888
-0.04115    0.028684      0.1206     0.33498    -0.25325   -0.061613    0.013743
-0.031406  -0.0057458     0.26287     0.22941    -0.16035   -0.063237   0.0046481
-0.017764   -0.040825     0.57826     0.13392   -0.082725   -0.057715 -0.00054884
-0.0047713   -0.061288      1.1139    0.078704   -0.024585   -0.043423   0.0010752
0.0065969   -0.053817      1.7219    0.063113    0.019589   -0.023935    0.011469
0.017965   -0.027183      2.1545    0.067661    0.057592  -0.0037969    0.025436
0.027709  -0.0011985      2.1984    0.066037    0.092671    0.011469    0.037454
0.033556   0.0010752      1.7352     0.03518     0.12028     0.01829    0.038103
0.029658   -0.021337     0.80205   -0.028157     0.13522     0.01764    0.031932
0.015367   -0.049595    -0.31659    -0.11228     0.14172    0.011144    0.026085
-0.0034721   -0.056416     -1.1812    -0.18959     0.14854   0.0036737    0.023162
-0.02361   -0.026533     -1.5444    -0.23961     0.16088 -0.00022403    0.023812
-0.041799    0.036154     -1.3962    -0.25747     0.17907  0.00010078    0.028684
-0.051544     0.10469    -0.91586    -0.25617     0.19856      0.0014    0.033556
-0.050244     0.14854    -0.34907     -0.2461     0.20993    0.003024    0.036479
-0.0405     0.14951    0.096244    -0.22174     0.20668   0.0088706    0.036804
-0.029457     0.11346     0.32328    -0.16977     0.18297    0.017965    0.032906
-0.02426    0.059216      0.3418   -0.093444     0.14009    0.024786    0.028034
-0.029457   0.0010752      0.2148   -0.021337    0.082602    0.023487    0.024786
-0.037902   -0.057065    0.023812    0.014068    0.020239    0.013093    0.027385
-0.034978    -0.10806    -0.15353   0.0017248   -0.033679   0.0026992     0.03518
-0.013866    -0.13794    -0.26299   -0.039201   -0.063561  -0.0024977    0.045249
0.022837    -0.13599    -0.29028   -0.071357   -0.067134 -0.00054884    0.057267
0.063113    -0.10416    -0.25552   -0.059664   -0.054467   0.0069217    0.065712
0.090072   -0.053817    -0.19381   0.0062721   -0.043748    0.014068    0.065387
0.089423  -0.0096434    -0.14541     0.10891   -0.048296    0.011469    0.050771
0.062789    0.015042    -0.12982      0.2148   -0.067784  -0.0041217    0.025761
0.020239    0.019589    -0.14022      0.2986   -0.094743   -0.028482  -0.0024977
-0.024909   0.0056225    -0.15776     0.33823    -0.12073   -0.052518   -0.025884
-0.062262   -0.026533    -0.16588     0.33043    -0.14281   -0.068434     -0.0405
-0.082076    -0.07493    -0.16393     0.28496    -0.16847   -0.071682   -0.045697
-0.080127    -0.13437    -0.16393     0.22422    -0.20745   -0.064211   -0.042774
-0.055116    -0.18926    -0.17042     0.17257     -0.2539   -0.050569   -0.031406
-0.017764    -0.21102    -0.17465     0.14496    -0.29385   -0.038551   -0.015165
0.01764    -0.18277    -0.15191     0.13555    -0.31724   -0.029782   0.0046481
0.037778    -0.11391   -0.080451     0.13977    -0.31918    -0.02361    0.022837
0.038753   -0.031406     0.03453     0.14919    -0.29417   -0.021012    0.030308
0.025111    0.038753     0.16608     0.14854    -0.24188   -0.020037    0.028034
0.0062721    0.081627     0.27164     0.12125    -0.17075   -0.016789    0.023812
-0.010293    0.095919     0.32946    0.064737   -0.097017   -0.010618    0.021538
-0.020687     0.09462     0.34992  -0.0080194   -0.036278 -0.00022403    0.021213
-0.022961    0.095269     0.35544   -0.076554   0.0026992     0.01017    0.020564
-0.021661     0.10501     0.35479    -0.12463    0.016666    0.016991    0.013743
-0.022636     0.11541     0.30574    -0.14574   0.0085458    0.019914  -0.0041217
-0.030431     0.10956     0.11898    -0.14801   -0.013866    0.015042   -0.028482
-0.042449    0.073832    -0.23863    -0.14054   -0.036278   0.0036737   -0.051544
-0.050569     0.01829      -0.669    -0.12657   -0.051544  -0.0096434   -0.066485
-0.051868   -0.035953     -1.0159    -0.10871   -0.057065   -0.018738   -0.070707
-0.047321   -0.068109     -1.1673   -0.089221   -0.058689   -0.019388    -0.06616
-0.040175   -0.067459     -1.0997   -0.075579   -0.060963   -0.011917   -0.061288
-0.030106   -0.040825    -0.87331   -0.082076    -0.06551  -0.0018481   -0.059989
-0.021337  -0.0063954    -0.59137     -0.1204   -0.076229   0.0046481   -0.061288
-0.019712    0.014068    -0.35296    -0.19089   -0.097341   0.0043233   -0.062262
-0.022961   0.0069217    -0.22694    -0.28411    -0.12852 -0.00054884   -0.063561
-0.025559   -0.021661    -0.22467    -0.38057    -0.15905  -0.0060706   -0.063886
-0.026209   -0.062587    -0.30782    -0.45658    -0.18374  -0.0047713   -0.061613
-0.023285   -0.095068     -0.4137     -0.4988    -0.19901   0.0036737   -0.054142
-0.013541   -0.096367    -0.48776    -0.50562    -0.20258    0.015692   -0.043099
0.0033489   -0.060638    -0.51472    -0.46632    -0.19024    0.025436   -0.029132
0.022837   -0.010618    -0.50985    -0.36596    -0.16003    0.029333    -0.01549
0.038753     0.01829    -0.50433    -0.20453    -0.10806    0.027385  -0.0021729
0.0433    0.009845     -0.5014   0.0052977   -0.034978    0.022188    0.010495
0.032257   -0.028482    -0.44683     0.23656    0.036479    0.016016    0.022837
0.014717   -0.081101    -0.25227     0.44346    0.081952    0.012443    0.031282
-0.00054884    -0.12398    0.081952     0.57696    0.088124    0.011144     0.03453
-0.0093186    -0.13957     0.44898     0.60522    0.065387    0.011469    0.032582
-0.013216    -0.11845     0.71955     0.53831    0.034855    0.012443    0.029658
-0.013866   -0.070382     0.83648     0.41715    0.013743     0.01764    0.026735
-0.0096434   -0.017764     0.85077     0.29145    0.015042    0.019914    0.020564
-0.00022403    0.021538     0.85207     0.20148    0.041676    0.016341    0.013418
0.009845    0.039402     0.89852     0.15731    0.087799    0.011144   0.0069217
0.017316    0.045249     0.98589     0.14594     0.13652   0.0056225   0.0010752
0.013418    0.054668      1.0729     0.14854     0.17452   0.0020496   -0.007045
-0.00087364    0.080978      1.1054     0.15731     0.19661 -0.00022403   -0.015165
-0.01484     0.12483      1.0479      0.1755     0.19791  -0.0054209   -0.019388
-0.019712     0.17452     0.92125      0.2044      0.1729   -0.013866   -0.019063
-0.014516     0.21285     0.78906     0.23591     0.12125   -0.030431    -0.01614
-0.0054209     0.22194     0.69974      0.2489    0.044599   -0.051219   -0.012567
0.0020496     0.19369     0.61594     0.22357   -0.044398   -0.065186   -0.015165
0.0062721     0.13717     0.42722     0.16153    -0.12073   -0.065186   -0.021661
0.0085458    0.071883    0.091372    0.087149    -0.15808   -0.050569   -0.028157
0.010819    0.019589    -0.25812    0.029333    -0.14281   -0.026858   -0.034004
0.015367  -0.0037969    -0.44229   0.0088706   -0.080776  -0.0041217   -0.037252
0.01764  -0.0073698    -0.43352    0.029009   0.0065969   0.0095202   -0.039201
0.014392   -0.011917     -0.3442    0.069934    0.094945   0.0088706   -0.041799
0.0065969   -0.025884    -0.27956     0.10371       0.169  0.00010078   -0.042124
0.0023744   -0.035953     -0.2578     0.11378     0.23364   -0.010943   -0.039526
0.0043233   -0.028157    -0.22791     0.10079      0.3012   -0.022636   -0.033679
0.009845  -0.0015233    -0.16847    0.071883     0.37428   -0.029457   -0.025234
0.009845    0.024786    -0.18959    0.029658     0.43599   -0.031406    -0.01549
-0.00054884    0.023487    -0.43806   -0.025234     0.45743   -0.029132  -0.0063954
-0.018738    -0.01549    -0.91326   -0.084999     0.41261   -0.022961  -0.0011985
-0.034978   -0.073306     -1.4339    -0.13502      0.2973   -0.013541  -0.0031473
-0.045372    -0.11845     -1.7737    -0.16718      0.1206  -0.0021729  -0.0096434
-0.045697    -0.12917     -1.8078    -0.18666   -0.089221   0.0072465   -0.013216
-0.035628    -0.10644     -1.5538    -0.20323     -0.2906    0.016016  -0.0073698
-0.021012   -0.064211     -1.1312    -0.21655    -0.44229    0.024461   0.0039985
-0.0063954    -0.02426    -0.68654    -0.22597    -0.52739    0.030308    0.014392
0.003024   0.0026992    -0.33283    -0.25715    -0.56214    0.027709     0.01829
0.0033489    0.011469    -0.11586    -0.34355    -0.57059    0.017316    0.012768
-0.0047713   0.0088706   -0.015815    -0.47996    -0.56799  0.00042559  -0.0015233
-0.012892   0.0049729    0.019589    -0.62158     -0.5524   -0.019712    -0.01614
-0.013866   0.0078962    0.031282    -0.72389    -0.51862     -0.0405   -0.024585
-0.0083442    0.019589    0.031607    -0.77619    -0.46827   -0.059664   -0.024585
-0.0021729    0.034855    0.019264    -0.78821    -0.40623   -0.076879   -0.017764
-0.0015233    0.044599  -0.0089938    -0.76515     -0.3403   -0.087272   -0.010943
-0.0037969    0.042326   -0.052193    -0.68524    -0.28086   -0.089546  -0.0099683
-0.0018481    0.030633    -0.09929    -0.49361    -0.22889   -0.084349    -0.01614
0.0056225    0.021538    -0.12917    -0.14574    -0.17594   -0.072656   -0.025559
0.01764    0.021863    -0.12073       0.334    -0.11131   -0.057065   -0.033354
0.029009    0.032257    -0.06681     0.84557   -0.043748   -0.044073   -0.037252
0.037129    0.039402    0.024786      1.2574    0.012119   -0.034978   -0.038227
0.032257    0.027709     0.14691      1.4497    0.045899   -0.033354   -0.039851
0.0085458  -0.0057458     0.29438      1.3773     0.06831   -0.043099   -0.046022
-0.029132   -0.044723     0.44736      1.0983    0.095269   -0.060313   -0.055116
-0.069083   -0.070707     0.57111     0.73449     0.13652    -0.07493   -0.057065
-0.093119   -0.071357     0.63055     0.40026     0.18881   -0.078503   -0.047646
-0.0837   -0.042124     0.61366     0.15438     0.24013   -0.068758   -0.024909
-0.044073    0.012119     0.53668   -0.008669     0.27651    -0.04992   0.0039985
0.0052977    0.073832     0.42332    -0.12235     0.28788   -0.027183    0.033556
0.048172     0.12385     0.29892    -0.22077     0.26937  -0.0031473    0.057917
0.071883     0.15146     0.18459    -0.32698     0.22974    0.017316    0.073507
0.073832     0.15341    0.095594    -0.43904     0.18557    0.033556     0.07773
0.056942       0.131    0.041351    -0.54428     0.14659    0.040702    0.071558
0.031932    0.087474    0.019264    -0.62678     0.11768    0.038428    0.057592
0.0085458    0.029333    0.018615    -0.66186    0.095919     0.02706    0.042326
-0.0083442   -0.033354    0.022512    -0.62158    0.079029    0.011144    0.028359
-0.016464   -0.085324    0.015692    -0.48744    0.069934  -0.0031473    0.020888
-0.014516    -0.11975  -0.0054209    -0.27079    0.076755   -0.010943    0.019914
-0.0063954    -0.14606   -0.034004   -0.021337    0.098193   -0.010618    0.022188
0.00010078    -0.18309   -0.065186     0.19563     0.13002  -0.0050961    0.021863
0.00042559    -0.24123   -0.096692     0.33368     0.16413    0.003024    0.019264
-0.0096434    -0.30392    -0.12268     0.38565     0.18946   0.0059473    0.013093
-0.023285    -0.34127    -0.12463     0.37818     0.19726   0.0033489   0.0043233
-0.03303    -0.32471   -0.098641     0.35154     0.18459  -0.0054209  -0.0034721
-0.034978    -0.24188   -0.056091     0.32491     0.15406   -0.017439   -0.007045
-0.033679    -0.10059   -0.026209      0.3038     0.10989   -0.029782  -0.0028225
-0.031081    0.073182   -0.029457     0.28138    0.062789   -0.040175   0.0062721
-0.028807     0.23754    -0.07428     0.24695    0.021863   -0.045697    0.015692
-0.022961     0.34797    -0.16133     0.19304  -0.0083442   -0.045697    0.022512
-0.011267     0.37395    -0.27891     0.12288   -0.029782   -0.041799    0.025111
0.0056225     0.31484    -0.39714    0.045899   -0.045372   -0.034004     0.02706
0.024786     0.19856    -0.48354   -0.021661   -0.053817   -0.023935    0.029009
0.042975    0.064737    -0.52154   -0.069733   -0.056091   -0.012892    0.034206
0.054344   -0.056416    -0.47802    -0.10221   -0.050569  -0.0044465    0.040377
0.047523    -0.15548    -0.26429     -0.1282   -0.042774  -0.0031473    0.040702
0.024137    -0.22564     0.18524    -0.15256   -0.038551  -0.0096434    0.032906
-0.0093186    -0.26234     0.77509     -0.1753   -0.042124    -0.01549     0.01894
-0.039851    -0.24448      1.3062    -0.19121   -0.057715   -0.019063   0.0033489
-0.064861    -0.14152      1.6047    -0.19673   -0.085324   -0.022636   -0.008669
-0.082076    0.044924      1.5985    -0.19283    -0.12885   -0.025884   -0.015815
-0.092794      0.2554      1.3412    -0.17854    -0.18179   -0.027183   -0.016464
-0.099615     0.39799      0.9638    -0.15613    -0.23311   -0.028482   -0.012242
-0.10254     0.41001     0.60652    -0.12625    -0.27046   -0.029782   -0.007045
-0.09929     0.30282     0.36876   -0.092794    -0.28183   -0.028157  -0.0031473
-0.085973     0.14919     0.29957    -0.05739    -0.26657   -0.022961 -0.00054884
-0.059014    0.029983     0.39896   -0.018413    -0.22986    -0.01484   0.0026992
-0.025234    -0.01614     0.61626    0.022837    -0.17952  -0.0083442   0.0036737
0.0069217   0.0017248     0.86311    0.058891    -0.12105  -0.0067202   0.0017248
0.02641    0.044924       1.059    0.082927   -0.060638  -0.0096434  -0.0047713
0.030957    0.082927      1.1782    0.092346 -0.00022403   -0.015165   -0.015165
0.024461     0.10274      1.2509    0.089748    0.059216   -0.016789   -0.024909
0.0091954    0.099167      1.2604    0.074806     0.11866   -0.015165   -0.031406
-0.013866     0.06896      1.0668      0.0433     0.17192   -0.015165   -0.036927
-0.041799   0.0088706     0.53766  -0.0050961      0.2135   -0.022961   -0.043099
-0.068434   -0.072656    -0.33153   -0.062587     0.24501   -0.036602   -0.051219
-0.081426    -0.15548     -1.3449    -0.11131     0.27456    -0.04927   -0.056741
-0.070382    -0.21037     -2.2008    -0.13372     0.31484   -0.053492   -0.054467
-0.038551    -0.21557     -2.6312      -0.123     0.36876   -0.047646   -0.042774
0.0017248    -0.17335     -2.5441   -0.087922     0.41943   -0.037252   -0.025559
0.03583    -0.10676     -2.0488   -0.047971     0.44119   -0.025234   -0.007045
0.055318   -0.045372     -1.3751   -0.017439     0.41196   -0.013866   0.0088706
0.057592  -0.0063954     -0.7541 -0.00087364     0.32491  -0.0024977    0.018615
0.049147   0.0043233    -0.32633   0.0033489     0.20181   0.0023744    0.021538
0.036154  -0.0067202    -0.11845   0.0085458    0.076755  -0.0031473     0.01764
0.024786   -0.025884    -0.07428    0.027385   -0.018413   -0.022961   0.0069217
0.01894   -0.046996    -0.10579    0.062464   -0.069083   -0.053492  -0.0083442
0.01829   -0.068434    -0.14444     0.10891   -0.085324   -0.088572   -0.024909
0.020239   -0.092794    -0.15613     0.14984   -0.087597     -0.1178   -0.037577
0.024786    -0.11878    -0.14574     0.17387   -0.098316    -0.13177   -0.039201
0.034855    -0.14119    -0.12917      0.1729    -0.13242    -0.12398   -0.028482
0.047847     -0.1623    -0.12105     0.14789    -0.18082   -0.095393   -0.007045
0.060515    -0.19121    -0.13372    0.099492    -0.23084   -0.048945     0.01764
0.06896    -0.22824      -0.174     0.02706    -0.26202   0.0020496    0.039402
0.06896    -0.26494    -0.23474   -0.063886     -0.2578    0.047847    0.055643
0.059865    -0.28768    -0.30489    -0.15288    -0.21557    0.081627    0.070259
0.045249    -0.29353    -0.36823    -0.21849    -0.14704     0.10534    0.079679
0.028684    -0.28476    -0.40071    -0.24643   -0.076554     0.11703    0.080328
0.015042     -0.2578    -0.39389    -0.23409   -0.029457     0.11638     0.06961
0.0059473    -0.19381    -0.35394    -0.19576    -0.01549     0.10631    0.052395
-0.0031473   -0.069408    -0.29937    -0.14964   -0.023285    0.087799     0.03518
-0.013866      0.1245    -0.23603    -0.11228   -0.040825    0.060515    0.022512
-0.029782     0.34959    -0.14216   -0.089871   -0.060313    0.027385    0.014392
-0.047971     0.52272     0.02706   -0.082725   -0.083375  -0.0063954    0.010495
-0.066485     0.56234     0.27034   -0.083375    -0.11845    -0.03238     0.01017
-0.078503     0.45191     0.52337   -0.089871    -0.17887   -0.048945    0.012768
-0.081751     0.25053     0.70331    -0.10644    -0.28411   -0.059989    0.012119
-0.075579      0.0433     0.74911    -0.13307    -0.45268   -0.070382   0.0078962
-0.064211    -0.10156     0.65978    -0.16295     -0.6716   -0.081751 -0.00022403
-0.050894      -0.161     0.48244    -0.18601    -0.90156   -0.092469  -0.0099683
-0.038227    -0.14606     0.28723    -0.19154     -1.0731   -0.098965   -0.020687
-0.029782   -0.090845     0.14237    -0.17335      -1.127   -0.095068   -0.027508
-0.021337   -0.024909    0.099492    -0.13112     -1.0338   -0.080127   -0.032055
-0.012567    0.036804     0.16543   -0.073306    -0.81289   -0.064536    -0.03303
0.003024    0.083576     0.29308   -0.011267    -0.51634   -0.053168   -0.030756
0.021213     0.11021     0.40936    0.041351    -0.21817   -0.045697   -0.024585
0.036479     0.11866     0.46945    0.073832    0.017316   -0.039201   -0.016789
0.044599     0.11736     0.47757    0.088773     0.16218   -0.026858   -0.011592
0.044924     0.11443     0.46815    0.091047     0.23429   -0.011917   -0.011267
0.039078     0.11443     0.47237     0.08585     0.26417  -0.0011985   -0.018088
0.031282     0.11118     0.49576    0.071883     0.27814  -0.0018481   -0.024585
0.025111    0.094295     0.47172    0.040052     0.28918  -0.0096434   -0.029457
0.01894    0.058566     0.26287   -0.017439     0.30022   -0.017439    -0.03173
0.0095202    0.014068    -0.14899   -0.098316     0.30997   -0.016464   -0.031081
0.00010078   -0.020687    -0.63165    -0.17789     0.32134  -0.0024977   -0.025234
-0.0037969   -0.039851     -1.0461    -0.22499     0.33303    0.022188   -0.014516
-0.0063954   -0.062912     -1.3137    -0.21817     0.34375     0.05207  -0.0034721
-0.018088    -0.10936     -1.3901    -0.15158     0.35089    0.074806   0.0026992
-0.040175    -0.18147     -1.2556   -0.035628     0.35057    0.083901  0.00010078
-0.068434    -0.25682    -0.91293     0.10664     0.33952     0.07708  -0.0080194
-0.093444    -0.30684     -0.4137     0.24825     0.31484    0.059865   -0.017764
-0.10611    -0.31236     0.12353     0.35576     0.27716    0.038753    -0.02361
-0.10286    -0.26884        0.55     0.41585     0.22877     0.01894   -0.021337
-0.084024    -0.18569     0.77249     0.43177     0.18102    0.003024  -0.0096434
-0.04862    -0.08305     0.78191     0.41391     0.13879  -0.0093186   0.0062721
-0.0047713    0.011469      0.6364     0.36811     0.10599   -0.018738     0.01764
0.039078    0.080003      0.4295     0.30185    0.087474   -0.026533     0.01829
0.071883     0.11411     0.23948     0.22747     0.08585    -0.03173    0.011144
0.087474     0.12255     0.10436     0.15828    0.094295   -0.033354  0.00042559
0.088448     0.11443    0.050446     0.10956     0.10177   -0.030756  -0.0047713
0.079679    0.098517     0.11541    0.093321     0.10112    -0.02426  -0.0018481
0.067011    0.083576     0.31939     0.11508    0.090722   -0.017114    0.008221
0.057917     0.06961     0.62763      0.1664    0.073182    -0.01484    0.019264
0.048172    0.058891     0.95374     0.22584    0.048497   -0.017114    0.026735
0.034206    0.052395      1.2087     0.27002    0.023162   -0.018413    0.027709
0.016016    0.050771      1.3386     0.28333   0.0039985   -0.018738    0.020564
-0.0034721    0.053369      1.3354     0.26255  -0.0044465   -0.014516    0.013093
-0.019712     0.06019      1.2168     0.21675   0.0043233  -0.0047713    0.010819
-0.029782    0.068635     0.99596     0.15796    0.029333   0.0075714    0.013093
-0.030431    0.072208     0.63672    0.098842    0.064088    0.018615     0.01764
-0.021012    0.065062    0.041351      0.0433     0.10177     0.02706    0.021213
-0.0080194    0.047198    -0.83953  -0.0031473     0.13165    0.030308    0.022188
0.0062721     0.02706     -1.8377   -0.032055     0.14854    0.030633     0.01829
0.015042    0.011794      -2.626   -0.038227     0.14789    0.030957    0.011794
0.015042   0.0095202     -2.9014   -0.023935     0.12807    0.032582   0.0069217
0.010819    0.016341     -2.5526  0.00075039    0.091047    0.033556   0.0046481
0.008221    0.023162     -1.7185    0.027709    0.042975    0.031932   0.0026992
0.0088706    0.024461    -0.70863    0.045574   -0.008669    0.023812  -0.0011985
0.013093    0.022512     0.14789    0.051096   -0.053168    0.013743  -0.0096434
0.015367     0.02641     0.63835    0.044924     -0.0837   0.0026992   -0.020687
0.017965    0.039078     0.75008    0.028034   -0.095068  -0.0060706   -0.026858
0.022188    0.057917      0.5906   0.0017248   -0.085648  -0.0083442   -0.025884
0.025761    0.075781     0.30607   -0.028157   -0.063886  -0.0054209   -0.020687
0.023162    0.082277   -0.013216   -0.059014   -0.038876  -0.0028225   -0.018738
0.010819     0.06961    -0.39487   -0.086948   -0.017114  -0.0073698    -0.02361
-0.012567    0.029009    -0.90546    -0.11033  -0.0060706   -0.021012   -0.035953
-0.041799   -0.034978     -1.4466    -0.12073   0.0036737     -0.0405   -0.050569
-0.072981    -0.10059     -1.7181    -0.11683    0.020239   -0.057065   -0.062262
-0.097341    -0.14054     -1.4606    -0.10741    0.054019   -0.067784   -0.068109
-0.10514    -0.14346    -0.69174   -0.096367     0.10144   -0.070707   -0.069408
-0.09117    -0.11033     0.27814   -0.085973     0.15536   -0.064861   -0.066485
-0.056416   -0.054792      1.0174   -0.070382     0.21025   -0.054142   -0.060638
-0.0073698    0.010495      1.2928   -0.046022     0.25637   -0.042124   -0.051868
0.041027    0.074482      1.1057   -0.019063     0.29048   -0.032705   -0.040175
0.075456     0.12613     0.63705  -0.0011985     0.31094   -0.031406   -0.030431
0.0852     0.15406      0.1297 -0.00054884     0.31939   -0.041799   -0.022311
0.070584     0.15244    -0.23409   -0.017114     0.31516   -0.058689   -0.018413
0.039402      0.1206    -0.39032   -0.044073      0.2973   -0.073306   -0.018088
0.0065969    0.069934    -0.35167   -0.070707       0.258   -0.079802   -0.020362
