0.022512   -0.016789  -0.0096434    0.017316  -0.0011985 -0.00022403   -0.010943
0.023162   -0.019063    -0.01549    0.008221   0.0062721  -0.0063954   -0.015165
0.020564   -0.020687   -0.027183  -0.0063954    0.017316  -0.0099683   -0.013541
0.016666   -0.021012   -0.044073   -0.020362    0.027385   -0.008669  -0.0083442
0.0085458   -0.022311   -0.059664   -0.030106    0.032906  -0.0034721  -0.0057458
-0.0028225   -0.023935    -0.06616   -0.033679    0.033881   0.0020496   -0.010618
-0.01549   -0.025559   -0.058365   -0.034004    0.033556   0.0010752   -0.017439
-0.024585   -0.026533   -0.039526   -0.034978    0.034206   -0.007045   -0.020687
-0.027183   -0.030756   -0.023935   -0.037577     0.03453   -0.018088   -0.018413
-0.021012   -0.036602   -0.020037   -0.042774    0.030957   -0.026858   -0.015815
-0.01484    -0.04115   -0.028157   -0.049595    0.020564    -0.03238    -0.01549
-0.012242   -0.043748   -0.039851   -0.055766   0.0065969   -0.036927    -0.01614
-0.013866   -0.044398   -0.046996   -0.061613  -0.0060706   -0.043423   -0.013866
-0.017114   -0.044073   -0.045372   -0.069733   -0.014516   -0.050244  -0.0099683
-0.022961   -0.039526   -0.038227   -0.082076    -0.01614   -0.052193  -0.0060706
-0.029782    -0.03238   -0.030756   -0.097017   -0.010943    -0.04862  -0.0050961
-0.034978   -0.025234   -0.021012    -0.10676  -0.0031473   -0.039851  -0.0063954
-0.034329   -0.018413   -0.011267    -0.10774   0.0023744   -0.027833   -0.007045
-0.027833   -0.012892  -0.0011985    -0.09929   0.0062721    -0.01614  -0.0063954
-0.015815   -0.008669   0.0056225   -0.084674    0.009845  -0.0080194  -0.0037969
-0.0050961   -0.007045   0.0072465   -0.069733    0.013093  -0.0067202  -0.0015233
0.0026992  -0.0067202    0.003024   -0.059014    0.016341   -0.014191  0.00010078
0.0046481  -0.0080194  -0.0047713   -0.059339    0.022512   -0.025559      0.0014
0.0033489   -0.007045   -0.011917   -0.068434    0.030308   -0.035303   0.0039985
0.00010078  -0.0044465   -0.012567   -0.073631    0.039402   -0.038876   0.0075714
-0.0024977 -0.00022403  -0.0093186   -0.054792    0.051096   -0.037252   0.0072465
-0.0024977   0.0020496  -0.0080194    -0.01549    0.055643   -0.033354  0.00042559
0.0020496 -0.00087364   -0.012892    0.015042    0.049147   -0.032055  -0.0076946
0.0046481  -0.0080194   -0.023285    0.011794    0.038428   -0.031081   -0.011917
0.0026992   -0.018088    -0.03303    -0.02426    0.029983   -0.028482   -0.010943
0.0020496   -0.022636    -0.03173   -0.069733    0.028359   -0.025559   -0.007045
0.0010752   -0.016789   -0.011267   -0.093769    0.033231   -0.020687  -0.0037969
-0.0011985  -0.0018481    0.030308   -0.085324      0.0433    -0.01484  -0.0015233
-0.0011985    0.014717     0.07708   -0.053492    0.050121   -0.011267  -0.0031473
0.0020496    0.028684     0.10859    -0.01549    0.047523   -0.012242  -0.0080194
0.003024     0.03583     0.11703    0.017965     0.03583   -0.021337   -0.014191
-0.00054884     0.03518     0.10371    0.040377    0.018615   -0.040825    -0.02361
-0.008669    0.028034    0.079354    0.048172   0.0049729   -0.063886   -0.032055
-0.018413    0.019914    0.058891    0.046548 -0.00022403   -0.080451   -0.039526
-0.026533    0.015367    0.047523    0.045899  0.00075039   -0.084024    -0.04115
-0.032705    0.013743    0.044924    0.047198  -0.0024977   -0.078827   -0.039851
-0.038876    0.010495    0.040702    0.032906   -0.019063   -0.072656   -0.039201
-0.042449   0.0059473    0.026085  -0.0073698   -0.045047   -0.067784   -0.039526
-0.036927   0.0033489   0.0039985   -0.064861   -0.061288   -0.059664   -0.039526
-0.018738   0.0043233   -0.016789    -0.11813   -0.052518   -0.045372   -0.033679
0.0075714    0.008221   -0.036927    -0.15321   -0.018088   -0.027183   -0.018413
0.030308    0.010495   -0.057715     -0.1688    0.029658   -0.011592   0.0026992
0.041351   0.0095202   -0.081751     -0.1688     0.06961   0.0033489    0.021538
0.040377   0.0033489    -0.10838     -0.1636    0.084551     0.01829     0.03583
0.033556  -0.0054209    -0.13177     -0.1662    0.075456    0.032906    0.045574
0.028034   -0.015165    -0.14411    -0.18407    0.055318    0.041351    0.052395
0.026085   -0.022311    -0.14281    -0.21849    0.036479    0.042001    0.058241
0.025111    -0.02361     -0.1282    -0.26007    0.026735    0.036804    0.065712
0.020888   -0.018413    -0.10644    -0.29353    0.027709    0.027385    0.070584
0.013743   -0.012892   -0.080776      -0.301    0.026735    0.016341    0.066686
0.0039985  -0.0096434   -0.052193    -0.26657    0.008221   0.0023744    0.049796
-0.0080194  -0.0083442   -0.028157    -0.19543   -0.034654   -0.010943    0.025761
-0.020037  -0.0083442   -0.016464    -0.09994   -0.097017    -0.02361   0.0017248
-0.026209  -0.0047713   -0.018413    0.009845    -0.15451   -0.034978   -0.017764
-0.024909   0.0036737   -0.021661     0.12288    -0.18536   -0.045047   -0.028482
-0.020687    0.016341   -0.013866     0.21967    -0.18147    -0.04862   -0.031081
-0.01549    0.028034   0.0052977     0.28203    -0.14801   -0.044723   -0.027833
-0.007045    0.038103    0.028034      0.2986   -0.094093   -0.038551   -0.021661
-0.00054884    0.046873      0.0433     0.26904   -0.040175   -0.028482    -0.01484
0.0014    0.048497    0.042001     0.20668  0.00010078   -0.015815  -0.0083442
-0.00087364    0.043625    0.026085     0.13262    0.018615  -0.0031473 -0.00054884
-0.0037969    0.037129   0.0072465    0.064737    0.016341    0.008221   0.0036737
-0.0037969    0.029333  -0.0054209    0.015367  -0.0011985    0.016666   0.0020496
-0.0024977    0.021863  -0.0063954   -0.011592   -0.019712    0.017316  -0.0073698
-0.0054209    0.013418  -0.0024977   -0.017439    -0.03303   0.0036737   -0.019388
-0.013866    0.008221   0.0046481   -0.010618   -0.040175   -0.018413   -0.029132
-0.022636   0.0078962   0.0095202  -0.0011985   -0.042124   -0.041799   -0.033679
-0.026209    0.012119    0.010819   0.0065969   -0.042449    -0.05739   -0.037902
-0.020037    0.015042    0.014068   0.0091954     -0.0405   -0.062587   -0.039526
-0.007045    0.015367    0.019914   0.0085458   -0.039526   -0.057715   -0.037902
0.003024    0.011794    0.022512   0.0046481     -0.0405   -0.047646   -0.034978
0.003024   0.0059473    0.021213  0.00042559   -0.043099   -0.035628   -0.033354
-0.0018481  -0.0011985    0.018615  -0.0037969   -0.045697   -0.027508   -0.028482
-0.0057458  -0.0060706    0.013418  -0.0073698   -0.045372   -0.020037   -0.021661
-0.0083442  -0.0067202   0.0062721   -0.010618   -0.040825   -0.013216   -0.013866
-0.0060706  -0.0073698   0.0017248   -0.016464   -0.034329  -0.0093186   -0.008669
-0.0031473  -0.0099683   0.0026992   -0.022311    -0.03173   -0.010943  -0.0044465
-0.00087364   -0.011917    0.011469   -0.022636    -0.03173   -0.014516  -0.0015233
-0.0018481   -0.011267    0.026085   -0.017114    -0.03173   -0.018738 -0.00087364
-0.0044465  -0.0063954    0.037778   -0.010943   -0.033354   -0.019063 -0.00054884
-0.0054209  -0.0041217    0.040377   -0.011917   -0.034329    -0.01614  -0.0021729
-0.007045  -0.0047713    0.032906   -0.017439   -0.034004   -0.012242  -0.0047713
-0.0073698  -0.0067202    0.017965   -0.022311    -0.03173   -0.010943  -0.0073698
-0.0096434  -0.0076946   0.0036737   -0.024909   -0.029457    -0.01484   -0.011267
-0.017439   -0.011267  -0.0054209    -0.02361   -0.030431    -0.02426   -0.019063
-0.030431   -0.016789  -0.0099683   -0.019063    -0.03238   -0.033679   -0.030106
-0.044398   -0.022311   -0.010618   -0.014191   -0.032055   -0.040825   -0.038876
-0.054467   -0.026533  -0.0067202   -0.011267   -0.028482   -0.045047   -0.044398
-0.058689   -0.029132   0.0017248  -0.0073698   -0.025234   -0.044723   -0.048945
-0.059339   -0.027508    0.012443 -0.00054884   -0.024909   -0.045047   -0.046347
-0.055441   -0.023285    0.023812   0.0091954   -0.024909   -0.046022   -0.040825
-0.046347   -0.016464    0.031932     0.01764   -0.022636   -0.047971   -0.034329
-0.035628   -0.010618    0.034855    0.023812   -0.013541   -0.046671    -0.03173
-0.027183  -0.0044465    0.031607    0.029983  0.00010078   -0.042449   -0.031081
-0.022636   0.0020496    0.022188    0.033231    0.014717   -0.034004   -0.028807
-0.021012     0.01017    0.011794    0.032582    0.023162   -0.021661   -0.026858
-0.016789    0.013743 -0.00087364    0.027709    0.021213  -0.0093186   -0.022636
-0.010293    0.010495   -0.014516    0.021863    0.011144   0.0010752    -0.01549
-0.0021729   0.0026992   -0.028482    0.011794  -0.0015233    0.011144  -0.0063954
0.0043233  -0.0060706   -0.037577  -0.0037969   -0.013541    0.020888   0.0059473
0.0075714   -0.010943   -0.041799   -0.022961   -0.021337    0.028684    0.019264
0.0056225   -0.012242   -0.043748   -0.054792   -0.015165    0.034855    0.031282
-0.0034721   -0.013866    -0.04927    -0.14606   0.0046481    0.040052    0.036804
-0.018088   -0.015815   -0.060638    -0.34549    0.036804    0.046548    0.030633
-0.027833   -0.017439   -0.070382     -0.6323    0.081303    0.051745    0.016991
-0.02361   -0.012892   -0.065835    -0.92008     0.13684    0.055318   0.0046481
-0.0060706 -0.00087364   -0.043423     -1.1176     0.18914    0.055318   0.0020496
0.014717    0.016666  -0.0050961      -1.179      0.2135     0.05142   0.0043233
0.02706    0.031282    0.033556     -1.0913     0.18524    0.040052   0.0046481
0.026085    0.033231    0.056617     -0.8483     0.09462    0.022512  -0.0021729
0.015042    0.019589    0.053044    -0.46113   -0.033679 -0.00054884   -0.015815
-0.00054884  -0.0037969    0.027385    0.036804    -0.13469   -0.026533   -0.030106
-0.013541   -0.025884  -0.0044465     0.57014    -0.15029   -0.047646     -0.0405
-0.018413   -0.034978   -0.019712      1.0564   -0.080127    -0.06681   -0.047971
-0.01549   -0.028807  -0.0060706      1.4218    0.017965   -0.086623    -0.04862
-0.0021729   -0.012892    0.032257       1.605    0.071558    -0.10319   -0.042449
0.015692   0.0062721     0.07773      1.5816    0.044599    -0.11261   -0.028807
0.028034    0.020239     0.11021      1.3818   -0.050244    -0.11163   -0.010293
0.027385     0.01829     0.11346      1.0746     -0.1714   -0.098641   0.0075714
0.016016  -0.0018481      0.0852     0.73514    -0.26494   -0.071682    0.020888
-0.00087364   -0.031406    0.039078     0.42657    -0.29905   -0.034329    0.031932
-0.018413   -0.064536  -0.0093186     0.17647    -0.27274   0.0033489    0.040052
-0.035953   -0.094093   -0.047321   -0.019712    -0.20518    0.032257    0.041027
-0.057715    -0.11683   -0.076229    -0.18471     -0.1269    0.046223    0.031282
-0.082725    -0.13469   -0.097991    -0.33348   -0.058365    0.048822    0.012443
-0.10644    -0.14671    -0.11748    -0.46275  -0.0096434    0.045899  -0.0096434
-0.1204    -0.15353    -0.14444    -0.56506    0.021213    0.040052   -0.027833
-0.1217    -0.14899    -0.18309    -0.65828    0.041027    0.036154   -0.038876
-0.11293    -0.12755    -0.23246    -0.78171    0.051745    0.038428   -0.041475
-0.092469   -0.092145    -0.28735    -0.96003    0.055318    0.049147   -0.039201
-0.062587   -0.048296    -0.33088     -1.1595    0.055968    0.061814    -0.03173
-0.02426   0.0017248    -0.33348     -1.2783    0.055968     0.06961   -0.015815
0.022837    0.055968    -0.27436     -1.2033    0.047198     0.06831    0.012768
0.071883     0.10729     -0.1636    -0.89832     0.01017    0.057917    0.051096
0.11378     0.14561   -0.038551    -0.42767   -0.065186    0.039402    0.089423
0.13814     0.16283    0.063763     0.10924    -0.16588    0.019264     0.11768
0.14464      0.1625     0.12613     0.64289    -0.25845   0.0039985     0.13392
0.13847     0.15114     0.15601      1.1308    -0.31074  -0.0057458     0.13944
0.1271     0.13392     0.17485      1.5377    -0.30554   -0.013866     0.13522
0.11281     0.11671     0.19044      1.8132    -0.25747   -0.020362     0.12158
0.095919    0.098842     0.20116      1.9025    -0.19283   -0.025559     0.10112
0.081303    0.078055     0.19596      1.7859    -0.13924   -0.027183     0.07773
0.067336    0.055318      0.1729      1.4958    -0.10741   -0.028157    0.059541
0.050121    0.033556     0.13717       1.107   -0.092794   -0.027833    0.047847
0.028684     0.01894     0.10209     0.70233   -0.085648   -0.023285      0.0433
0.0072465    0.011469    0.076106     0.34894   -0.078503   -0.011917     0.04395
-0.011267   0.0075714    0.059541    0.083576   -0.067784   0.0026992    0.045249
-0.024585   0.0052977    0.049472   -0.087272   -0.056416    0.018615    0.040702
-0.031406   0.0036737    0.045574    -0.18244   -0.046996     0.02706    0.029333
-0.031406  0.00075039    0.042651    -0.22402   -0.042774     0.02641    0.016341
-0.031406  -0.0015233     0.03583    -0.23409   -0.042124    0.015042   0.0036737
-0.034654  -0.0018481    0.026735    -0.22986   -0.036278  -0.0044465   -0.011267
-0.038227   0.0059473    0.023812    -0.21817   -0.016789   -0.031406    -0.03173
-0.038551    0.022188    0.029658    -0.19089    0.016666   -0.064211   -0.057715
-0.037577    0.042326    0.048172    -0.13827     0.05272    -0.10449   -0.085324
-0.037252    0.055318     0.07708   -0.062587    0.079029    -0.14704    -0.11163
-0.039526    0.054993     0.10696    0.016016    0.087799    -0.18114    -0.13242
-0.040175    0.044924     0.12483     0.06831    0.079029    -0.19641    -0.14281
-0.039526    0.032906     0.12255    0.070584    0.064088    -0.18569    -0.13599
-0.037902    0.019264    0.095594    0.012443    0.051096    -0.14639    -0.10838
-0.032055   0.0059473     0.05142   -0.096042    0.047847   -0.084999   -0.069733
-0.02426   -0.008669  -0.0041217    -0.23798    0.057917   -0.017764   -0.027183
-0.019712   -0.022311   -0.063561    -0.38739    0.079354    0.042651    0.010495
-0.020362   -0.035628    -0.11683    -0.52544     0.10696    0.080653    0.034206
-0.026533   -0.045372    -0.15451    -0.63457      0.1336    0.093645    0.038103
-0.039526   -0.050244     -0.1701    -0.70083     0.15471      0.0852    0.022837
-0.055116   -0.050894    -0.16035    -0.72195     0.17095    0.067661  -0.0034721
-0.071032   -0.047646    -0.13242    -0.72162     0.17842    0.048172   -0.028157
-0.082725   -0.040825    -0.10254     -0.7554     0.17615     0.02641   -0.045697
-0.088572   -0.033679   -0.082076    -0.89312      0.1664   0.0062721   -0.059339
-0.093119   -0.027183   -0.078503     -1.1621     0.15731  -0.0080194    -0.06681
-0.095717   -0.023935   -0.092469     -1.5265     0.15114   -0.012892    -0.06551
-0.096042   -0.025234    -0.12105     -1.9195     0.13977   -0.013216   -0.058689
-0.093769   -0.028807    -0.15223     -2.2625     0.11346   -0.010618   -0.051219
-0.088247   -0.034654     -0.1727     -2.4704    0.063113  -0.0067202   -0.046671
-0.080451   -0.039851    -0.17757     -2.4337   -0.014516  -0.0057458   -0.043099
-0.067134   -0.039526    -0.16003     -2.0296    -0.10319  -0.0083442   -0.037252
-0.048296   -0.029782    -0.11098     -1.1627    -0.16425   -0.013541    -0.02426
-0.026209  -0.0076946   -0.021986     0.15991    -0.16295   -0.019712  -0.0037969
-0.0067202    0.025761     0.10079      1.6647   -0.098641   -0.023935    0.021863
0.009845    0.062789     0.23006      2.9685   -0.010943   -0.027508    0.042975
0.020564    0.092996     0.32848      3.7731    0.047847   -0.034004    0.054344
0.019914     0.10339     0.35966      3.9462    0.046873   -0.039526    0.056292
0.0091954      0.0865     0.30899       3.546  -0.0037969   -0.041799    0.047523
-0.010618    0.042651     0.18881      2.7756   -0.069733   -0.038551    0.029983
-0.027833   -0.014191    0.036479      1.8801    -0.11618   -0.030431    0.011469
-0.035953   -0.063237   -0.098641      1.0632    -0.12073   -0.018413  -0.0011985
-0.027183   -0.086623    -0.17627     0.43989   -0.082076  -0.0024977  -0.0015233
-0.0011985   -0.078503    -0.18277     0.03453   -0.013866    0.014717    0.012768
0.036479   -0.047971    -0.13892    -0.20128    0.059541    0.031607    0.035505
0.071883   -0.010618   -0.075579     -0.3416     0.11736    0.041027    0.057592
0.095919    0.020564   -0.023285    -0.44261     0.14756    0.036154    0.065062
0.10696     0.03518 -0.00087364    -0.53258     0.14724    0.012119    0.051745
0.10436    0.032257   -0.017764    -0.62775     0.12223    -0.02426    0.020564
0.093645    0.017316   -0.067784    -0.75345    0.083251    -0.05739   -0.015815
0.082277  0.00042559    -0.13957    -0.93372    0.047523   -0.076229   -0.040175
0.076431   -0.012567    -0.21622     -1.1546    0.024137   -0.075255   -0.044398
0.078055   -0.018738    -0.27956     -1.3453   0.0075714   -0.058689   -0.028482
0.083576   -0.020362    -0.30814     -1.3761   -0.010618   -0.033679  -0.0037969
0.089098   -0.018088      -0.288      -1.126   -0.031406   -0.010293    0.024786
0.090722   -0.016789    -0.21622    -0.60631   -0.052843   0.0023744    0.049472
0.088448   -0.013216    -0.10644    0.029333   -0.077203   0.0036737     0.06831
0.082277  -0.0050961    0.014068     0.58118    -0.11261  -0.0015233    0.080653
0.069934   0.0069217     0.11151     0.92125    -0.15646   -0.011917     0.08585
0.056292    0.015367      0.1677      1.0229    -0.19089   -0.024585    0.081952
0.042001    0.013418     0.18102      0.9323    -0.20193   -0.036927    0.066686
0.027385  0.00042559     0.16121     0.73157    -0.18894   -0.047321    0.043625
0.011794   -0.018738     0.12483     0.50095     -0.1597   -0.051544     0.01894
-0.0050961   -0.037577    0.088773     0.29308    -0.12722   -0.051544 -0.00054884
-0.021337   -0.051868    0.059865      0.1297    -0.10254    -0.04862   -0.013541
-0.028807   -0.058689    0.043625    0.014717   -0.085324    -0.04115   -0.024909
-0.029132   -0.056741    0.036479   -0.063886   -0.072981   -0.034654    -0.03303
-0.025884   -0.050894    0.033881    -0.11553   -0.060313   -0.026858   -0.038876
-0.022311   -0.043099    0.028684    -0.14899   -0.043423   -0.020687   -0.039851
-0.02361   -0.035628    0.022188    -0.17562   -0.023935   -0.018413   -0.039851
-0.033679   -0.032055    0.015692    -0.19933  -0.0057458   -0.023285   -0.040825
-0.048945   -0.033354    0.012443    -0.22109    0.008221   -0.031406   -0.046671
-0.061288   -0.038227   0.0091954    -0.23766    0.016666   -0.038227   -0.057065
-0.064211   -0.042449   0.0062721     -0.2474    0.020239   -0.041799   -0.067459
-0.058365   -0.045372   0.0033489     -0.2539     0.01829   -0.044723   -0.073955
-0.045697   -0.044723  0.00042559    -0.26299    0.012768   -0.047646   -0.073955
-0.028157     -0.0405  -0.0063954    -0.27534   0.0033489   -0.050569   -0.063561
-0.0099683    -0.03303   -0.013541    -0.28378  -0.0050961   -0.052193   -0.046671
0.0072465   -0.023285   -0.017114    -0.28605  -0.0093186   -0.051868   -0.028482
0.017965   -0.011267   -0.019388    -0.28703  -0.0080194   -0.048296   -0.017439
0.022512  0.00010078   -0.022961    -0.29645  0.00075039    -0.04115   -0.015815
0.022188     0.01017    -0.03303    -0.31724    0.015367   -0.033679   -0.021012
0.018615     0.01764   -0.044073     -0.3338    0.028684   -0.031081   -0.028807
0.011794    0.022837   -0.044398    -0.32633    0.034855   -0.032055   -0.035953
0.0026992    0.025436   -0.029132    -0.28151    0.025761   -0.032705   -0.044398
-0.008669    0.028034  -0.0031473    -0.19738  0.00042559   -0.034654   -0.055116
-0.021337    0.028034    0.033231     -0.0824   -0.034978   -0.042774   -0.068109
-0.032705    0.025111    0.076106     0.04395   -0.072981   -0.059664     -0.0824
-0.040825    0.019264      0.1219     0.14821    -0.10124   -0.084999   -0.095393
-0.044723    0.012443     0.15244     0.20343    -0.11358    -0.10644    -0.10546
-0.043099   0.0072465     0.15211     0.19856    -0.10741    -0.10871    -0.10968
-0.038227   0.0010752     0.12158     0.14172   -0.085973   -0.086298    -0.10611
-0.030431  -0.0089938    0.069285    0.053694   -0.055441   -0.043423   -0.090845
-0.026533   -0.018413   0.0075714   -0.042124   -0.022636   0.0065969   -0.062912
-0.028482   -0.025234   -0.047971    -0.12657   0.0036737     0.05207   -0.028482
-0.035628   -0.027183   -0.089221    -0.18796    0.022837    0.081952   0.0033489
-0.042449   -0.023285    -0.11586    -0.22239    0.036804    0.096569    0.025436
-0.044398   -0.017764    -0.12495    -0.22986    0.044599    0.099492    0.037454
-0.041799    -0.01484    -0.12008    -0.22012    0.047523    0.096569    0.042001
-0.038227    -0.01549    -0.11098    -0.20778    0.041027    0.089098    0.041676
-0.034654   -0.016464    -0.10546    -0.19511    0.028034    0.078379    0.040702
-0.030431   -0.016464    -0.10449    -0.18114    0.012119    0.065387    0.042001
-0.023285   -0.016789    -0.10254      -0.161  0.00075039     0.05142    0.042001
-0.012567   -0.018088   -0.095068    -0.13404  -0.0041217    0.033556    0.041027
0.00042559   -0.016464   -0.081426    -0.10189  -0.0080194    0.011794     0.03518
0.014392   -0.011592   -0.063561   -0.066485   -0.013866  -0.0093186    0.025111
0.025111  -0.0041217   -0.043423   -0.029132   -0.019063    -0.02361    0.012119
0.033556   0.0046481   -0.021661   0.0085458   -0.022636   -0.030756  0.00010078
0.037129   0.0095202 -0.00087364    0.045249   -0.025559   -0.032055  -0.0093186
0.03518     0.01017    0.015692    0.076431   -0.028482    -0.03238   -0.013541
0.027385   0.0085458    0.022837    0.098517   -0.032705   -0.033679   -0.012567
0.017965   0.0046481     0.01829     0.10729   -0.037902   -0.033354  -0.0093186
0.01017   0.0017248   0.0023744     0.10274   -0.038551   -0.031081  -0.0083442
0.0043233   0.0017248   -0.015815    0.088124   -0.031406   -0.024585  -0.0096434
-0.0018481   0.0046481   -0.028807    0.069934   -0.018738   -0.015165   -0.010943
-0.0080194   0.0065969    -0.03238    0.054668  -0.0034721  -0.0067202   -0.011917
-0.016464   0.0056225   -0.029782    0.045249    0.014068  -0.0028225   -0.011917
-0.021986   0.0020496    -0.02426    0.042326    0.029009  -0.0031473   -0.008669
-0.02426 -0.00087364   -0.015165    0.048172    0.031282  -0.0018481 -0.00087364
-0.025884 -0.00087364  -0.0028225    0.061814    0.021213  0.00075039   0.0078962
-0.025234   0.0020496   0.0088706    0.078379   0.0056225   0.0023744    0.016016
-0.021986   0.0069217    0.017316    0.094295   -0.011267  -0.0011985    0.022512
-0.017114    0.012119    0.022512     0.10274   -0.025559  -0.0096434    0.024786
-0.013866    0.016666    0.025436     0.10371   -0.036927   -0.020687    0.022188
-0.014191    0.019264     0.02641     0.10047   -0.041799   -0.029457    0.016016
-0.015815    0.021213    0.028359    0.096244   -0.038876   -0.031081   0.0088706
-0.017764    0.021213    0.034206    0.093645   -0.032055   -0.027183   0.0046481
-0.014191    0.022837    0.041027     0.09462   -0.026209   -0.021337   0.0046481
-0.0050961    0.024786    0.044924     0.10047   -0.022636   -0.015815   0.0062721
0.0069217    0.023162    0.047847     0.11313   -0.022636   -0.015815   0.0062721
0.013743    0.019914    0.051745       0.131   -0.023935   -0.020037   0.0036737
0.0078962    0.016016    0.053369     0.14854   -0.021986   -0.030756   0.0010752
-0.0080194     0.01017    0.051096     0.15796    -0.01614   -0.045372  -0.0021729
-0.025234   0.0033489    0.044275     0.15893  -0.0067202    -0.05739  -0.0031473
-0.038227  -0.0011985    0.038753     0.14951   0.0043233   -0.060638  -0.0050961
-0.039201  -0.0031473    0.038753     0.13522    0.015367    -0.05804  -0.0083442
-0.03303  -0.0021729    0.043625     0.12288    0.025436   -0.054142   -0.011267
-0.028807  -0.0011985    0.049147     0.11995    0.027709   -0.048945   -0.014516
-0.033679  -0.0041217    0.047847     0.12288    0.019914   -0.042124   -0.020362
-0.043099   -0.011592    0.034855     0.12418   0.0043233   -0.031081   -0.026858
-0.047971   -0.021337    0.011144     0.11248   -0.013216    -0.01484   -0.027508
-0.044398    -0.03303   -0.017114    0.085525   -0.026209   0.0056225   -0.019388
-0.032705   -0.042124   -0.047971    0.047847    -0.03173    0.029009  -0.0031473
-0.018413   -0.047971   -0.079477   0.0091954   -0.029132    0.050446    0.015692
-0.0037969    -0.04927    -0.10384   -0.017114   -0.020037    0.058891    0.031282
0.012119   -0.042774     -0.1178   -0.024585   -0.015165    0.055643    0.038753
0.030633   -0.027508    -0.11813   -0.014191    -0.01614    0.047198    0.040377
0.047847  -0.0093186    -0.10709    0.009845   -0.020687    0.038753    0.039727
0.059541    0.010819   -0.089221    0.042651   -0.029132    0.030957    0.041676
0.062789    0.028684   -0.068109    0.081627   -0.038876    0.016991    0.047847
0.059216    0.040377   -0.045372     0.11476   -0.044723  -0.0054209     0.05272
0.049147    0.045249   -0.024585      0.1323   -0.048296   -0.033354     0.05142
0.038428    0.042975  -0.0073698      0.1323   -0.053168   -0.057065    0.039402
0.028359    0.037778   0.0072465      0.1219   -0.056091   -0.067784    0.023487
0.018615    0.031932     0.01894     0.10924   -0.053168    -0.06551   0.0091954
0.010819     0.02641    0.023487    0.098517   -0.047321   -0.056416 -0.00022403
0.0052977    0.025111    0.019914    0.092021   -0.040175   -0.047646  -0.0063954
0.0075714    0.028684    0.011144    0.088124   -0.034978    -0.04115   -0.011267
0.017316    0.033881   0.0017248    0.087149   -0.028157   -0.035628    -0.01484
0.02706    0.038428  -0.0047713    0.085525   -0.021661   -0.029782   -0.013216
0.025436    0.041676  -0.0099683    0.081303   -0.016789   -0.022636  -0.0076946
0.011144    0.041676   -0.019388    0.065062    -0.01484   -0.013216  -0.0028225
-0.011267    0.036479    -0.03238    0.023162   -0.018413  -0.0041217      0.0014
-0.031081    0.028034   -0.044398   -0.054792   -0.025884   0.0023744   0.0039985
-0.042124    0.020564   -0.050244    -0.16555   -0.034329   0.0065969   0.0056225
-0.042774    0.014717   -0.047321    -0.29353   -0.036602   0.0049729   0.0069217
-0.037252    0.010819   -0.036278     -0.4176   -0.030106  -0.0024977   0.0072465
-0.029132   0.0072465   -0.017764    -0.51667   -0.020037   -0.015165   0.0049729
-0.023285  0.00010078   0.0039985    -0.57351   -0.010618   -0.034329  0.00010078
-0.022311  -0.0060706    0.023812    -0.55467   -0.014516   -0.055441   -0.007045
-0.026533   -0.010618    0.036479    -0.43189   -0.029782   -0.067134   -0.015165
-0.032705   -0.011267    0.044599     -0.2068   -0.039526   -0.069408   -0.021337
-0.033354  -0.0063954     0.05142    0.079354   -0.032055   -0.067459   -0.024585
-0.031081   0.0020496    0.059216     0.35999  -0.0057458   -0.062262    -0.02426
-0.029782    0.008221    0.066362     0.57598    0.029333   -0.051544   -0.024585
-0.030756     0.01017    0.067986     0.70298    0.053369   -0.037902   -0.023285
-0.035953   0.0095202    0.060515     0.74716    0.055968   -0.026209   -0.020037
-0.043423   0.0056225    0.042651     0.72832    0.037778   -0.020687   -0.010618
-0.049595  0.00010078    0.016341     0.66855   0.0088706   -0.021986    0.003024
-0.050244  -0.0083442   -0.013216     0.59158   -0.017764   -0.026533    0.013093
-0.042449   -0.017114   -0.042449     0.51525   -0.033679   -0.026533    0.015367
-0.03303   -0.024585   -0.071032     0.44216   -0.044723    -0.02426    0.011144
-0.029132   -0.031081    -0.10156     0.35869    -0.05739   -0.023285   0.0091954
-0.030106   -0.034654    -0.12625      0.2541   -0.068109   -0.025234    0.014068
-0.027833    -0.03173    -0.13145     0.13847   -0.074605   -0.024909    0.025111
-0.018738   -0.018088    -0.10579    0.040052   -0.075579   -0.019712    0.038103
-0.0034721   0.0036737   -0.053168   -0.019712    -0.07493   -0.011267    0.045574
0.012119    0.027385   0.0059473    -0.03303   -0.077528  -0.0031473    0.042326
0.021538    0.043625    0.048172   -0.010943   -0.081101   0.0017248    0.028684
0.023487    0.050771    0.064737    0.025436   -0.080451  0.00075039    0.011794
0.021863    0.051096    0.055643    0.052395   -0.070382  -0.0047713 -0.00087364
0.016341    0.047847    0.030308    0.053694   -0.053492   -0.012892  -0.0060706
0.010495    0.042975  -0.0018481    0.033556   -0.037252    -0.01549  -0.0044465
0.0065969    0.039078   -0.029457  0.00075039   -0.030106   -0.008669  -0.0015233
0.0046481    0.034206   -0.044398   -0.036278    -0.03303   0.0039985   0.0010752
0.0023744    0.031282   -0.044073   -0.070707   -0.044398    0.016016   0.0017248
0.00042559    0.025761   -0.033354   -0.098316    -0.05804    0.022188  0.00010078
0.00010078    0.020239   -0.020037    -0.11845   -0.069733    0.018615 -0.00054884
0.0043233    0.013743   -0.010618    -0.13177   -0.077203   0.0088706 -0.00087364
0.0085458     0.01017  -0.0037969    -0.14087   -0.075904   0.0023744  -0.0044465
0.009845     0.01017 -0.00022403    -0.14899   -0.069083      0.0014    -0.01484
0.0078962    0.011144   0.0023744    -0.15678   -0.059339    0.003024   -0.028807
0.00075039    0.011469   0.0075714    -0.16523   -0.046671   0.0088706   -0.036602
-0.0067202    0.010819    0.014392    -0.17237   -0.030106    0.014068   -0.030431
-0.0099683     0.01017    0.020564    -0.17789   -0.014191    0.015692   -0.010943
-0.010943   0.0095202    0.021538    -0.18082  -0.0018481    0.011469    0.010819
-0.010618    0.010495    0.015692    -0.18212    0.010495    0.003024     0.01829
-0.012242    0.013418   0.0062721    -0.18569    0.016666  -0.0067202    0.011469
-0.015165     0.01894   0.0010752    -0.19576   0.0091954   -0.016464  -0.0015233
-0.017764    0.022512 -0.00087364    -0.20745   -0.015165    -0.02426   -0.013541
-0.020037    0.020564  -0.0034721    -0.20518   -0.046022   -0.030106   -0.022311
-0.019712    0.016991  -0.0037969    -0.17042   -0.067459   -0.037252   -0.028157
-0.018413    0.016016  0.00075039    -0.10221   -0.068434   -0.045372   -0.030431
-0.014516    0.016341   0.0072465   -0.017114   -0.051219   -0.052193   -0.027183
-0.008669    0.015042    0.013418    0.058566   -0.023935   -0.057065   -0.022311
-0.0015233    0.010819    0.019264     0.10242   0.0078962   -0.060313   -0.017114
0.0088706    0.003024    0.024137     0.10664    0.039727   -0.053817   -0.013866
0.01764  -0.0076946    0.024786    0.070909    0.058891   -0.034654   -0.012567
0.019589   -0.019388    0.023162   0.0033489    0.057267  -0.0067202   -0.011592
0.011794   -0.032055    0.018615   -0.079477    0.038753    0.020239   -0.010293
-0.0024977   -0.044723   0.0065969    -0.15808    0.015367    0.038428  -0.0060706
-0.013216   -0.054467   -0.017439    -0.22012  -0.0041217    0.048172  0.00075039
-0.015165   -0.063886   -0.045697    -0.26299   -0.017114    0.052395     0.01017
-0.0083442   -0.071357   -0.072656     -0.2945   -0.022961    0.056617    0.022188
0.003024   -0.075255   -0.097017    -0.32016   -0.017114    0.063113    0.036479
0.016016   -0.073306    -0.11813    -0.33997 -0.00087364    0.070584    0.046223
0.028034   -0.067134    -0.13729    -0.34907    0.023162    0.078055    0.050446
0.034855   -0.055441    -0.15191    -0.34452     0.04395    0.083901    0.049472
0.036804   -0.042124    -0.15256    -0.31983    0.054019    0.082277     0.04395
0.037129   -0.029782     -0.1321    -0.27111    0.050771    0.069285    0.031607
0.034206   -0.020687   -0.094093    -0.19998    0.034206    0.048497    0.016341
0.027385   -0.012892   -0.053817     -0.1191   0.0091954    0.029658  0.00075039
0.019264   -0.007045   -0.017764   -0.042124    -0.01614    0.015367   -0.010618
0.015367  -0.0011985    0.012119     0.01764   -0.036278   0.0043233   -0.013866
0.017965   0.0052977    0.031607    0.059865   -0.041799  -0.0034721   -0.012892
0.020888    0.011469    0.040377    0.091372   -0.034978   -0.010618   -0.010293
0.022512    0.012768    0.038428     0.11443   -0.021661   -0.017439   -0.010618
0.023812   0.0091954    0.028684     0.13035   -0.010943   -0.022311   -0.015815
0.025436   0.0020496    0.016991     0.14432  -0.0080194   -0.025234   -0.020362
0.025436  -0.0037969   0.0085458     0.16348   -0.013866   -0.029132   -0.018738
0.023812  -0.0080194   0.0049729     0.17874   -0.023285   -0.034654   -0.011917
0.019589   -0.012242   0.0010752     0.15438   -0.036278   -0.045697  -0.0073698
0.011469   -0.017764  -0.0041217    0.075131   -0.046022   -0.060313  -0.0057458
0.00042559   -0.021012  -0.0031473   -0.021986   -0.039526   -0.072981  -0.0076946
-0.0076946   -0.018088    0.012768   -0.084024  -0.0093186   -0.080127  -0.0096434
-0.0099683  -0.0083442    0.042975    -0.10124    0.032906   -0.075579  -0.0099683
-0.0089938   0.0010752    0.072533   -0.096692     0.06896   -0.063886  -0.0073698
-0.0073698   0.0052977    0.089098   -0.093444      0.0852   -0.048945  -0.0060706
-0.0080194   0.0036737      0.0852   -0.097341    0.080653   -0.036278  -0.0093186
-0.011917   0.0017248    0.066362    -0.10579     0.06019   -0.028157   -0.012892
-0.019712  0.00010078    0.040052    -0.11261    0.029983   -0.028157    -0.01614
-0.027508  -0.0028225    0.014717    -0.11228   0.0026992   -0.035953   -0.021012
-0.034329  -0.0089938  -0.0018481    -0.10709   -0.013541   -0.046671   -0.028482
-0.039201   -0.015815  -0.0076946    -0.10189    -0.01484   -0.056741   -0.035628
-0.041475   -0.021012  -0.0037969   -0.096692  -0.0080194   -0.064211   -0.039201
-0.043099   -0.022961   0.0062721   -0.090845 -0.00087364   -0.067784   -0.039201
-0.046996   -0.022636    0.015692     -0.0837   0.0036737   -0.068109   -0.034329
-0.050569   -0.022961     0.01894   -0.078178   0.0046481   -0.069083   -0.026858
-0.051868   -0.026209    0.015692   -0.076879   0.0017248   -0.067459   -0.021337
-0.04927    -0.03303   0.0078962   -0.076554  -0.0073698   -0.065835   -0.021012
-0.046347   -0.038227 -0.00087364   -0.069408   -0.019712   -0.067134   -0.025559
-0.041799   -0.041475  -0.0089938   -0.056741   -0.028157   -0.069733    -0.03238
-0.032055   -0.042449    -0.01614   -0.044398   -0.026209   -0.068109   -0.036927
-0.018413   -0.041475   -0.021337   -0.047971   -0.011267   -0.061288   -0.035628
-0.0028225   -0.037902    -0.03173   -0.084024    0.015042   -0.048296    -0.03173
0.010495   -0.031406   -0.052843    -0.15288    0.042975    -0.03238   -0.024909
0.020239   -0.019712   -0.080127    -0.22142    0.059216   -0.019063   -0.014191
0.026735  -0.0034721   -0.099615    -0.24968    0.052395  -0.0093186  -0.0047713
0.02706   0.0085458    -0.10254    -0.19933    0.023487  -0.0047713  -0.0031473
0.021538    0.010495   -0.084349   -0.067784    -0.01614   -0.007045  -0.0089938
0.012768   0.0026992   -0.053168     0.10371   -0.054142   -0.018738    -0.01549
0.0039985  -0.0089938   -0.024585      0.2567   -0.080451   -0.033679   -0.016464
-0.0011985   -0.017439  -0.0057458     0.34602   -0.087597    -0.04862   -0.013216
-0.00022403   -0.023285   0.0017248     0.35934    -0.07493   -0.057065  -0.0096434
0.0023744   -0.025559   0.0043233     0.31354   -0.046671   -0.056416  -0.0093186
0.008221   -0.022961   0.0059473     0.24241   -0.012892    -0.04992  -0.0099683
0.012119   -0.013541   0.0095202     0.17647    0.014392     -0.0405   -0.012892
0.014068  -0.0018481    0.009845     0.12937    0.027385   -0.032705   -0.016789
0.014068   0.0069217   0.0065969     0.10339    0.023487   -0.026858   -0.020037
0.009845   0.0085458   0.0039985    0.090722   0.0065969   -0.025234   -0.019388
0.0036737   0.0046481   0.0033489    0.082602    -0.01614   -0.029782   -0.018738
-0.0015233   0.0017248   0.0046481    0.075131   -0.035628   -0.040175   -0.018413
-0.0073698  -0.0024977   0.0069217    0.067336   -0.047646   -0.053492   -0.018738
-0.01484  -0.0099683   0.0065969    0.063438   -0.049595   -0.059014   -0.019063
-0.020687   -0.018088   0.0072465    0.062789   -0.044723   -0.055441   -0.022636
-0.025559    -0.02361   0.0075714    0.066686   -0.039526     -0.0405   -0.030431
-0.031406    -0.02426   0.0095202    0.079354   -0.037902   -0.019712    -0.04115
-0.037577   -0.021337    0.014717    0.097218   -0.037577  -0.0054209   -0.048945
-0.043423    -0.01549    0.019589     0.11541   -0.033679  -0.0015233   -0.047321
-0.043748  -0.0089938    0.022512     0.12548   -0.026209  -0.0041217   -0.037902
-0.038227  -0.0011985    0.022188     0.12385   -0.016464  -0.0067202   -0.025884
-0.027833   0.0052977    0.015042     0.10859   -0.010293  -0.0073698   -0.017439
-0.017764   0.0088706  0.00042559    0.082927   -0.012242  -0.0083442   -0.007045
-0.0083442   0.0091954   -0.017764     0.05207   -0.018088  -0.0093186   0.0065969
-0.0011985   0.0075714   -0.035303    0.023162    -0.02426   -0.011267    0.023812
0.0043233   0.0046481   -0.046671      0.0014   -0.026858  -0.0096434    0.039078
0.0085458   0.0010752   -0.047646  -0.0096434   -0.024909  -0.0050961    0.042975
0.011794  -0.0034721   -0.036927   -0.016789   -0.023285  -0.0024977    0.033556
0.010495  -0.0096434   -0.018738   -0.020687   -0.028157  -0.0044465    0.015692
0.00075039   -0.016789   0.0039985   -0.019388   -0.034978   -0.011267  -0.0024977
-0.014516   -0.022961    0.025436    -0.01549   -0.039201   -0.020687    -0.01549
-0.031081   -0.025559    0.040702   -0.017764   -0.035303   -0.028807   -0.021661
-0.04862   -0.026209     0.04395   -0.048296   -0.021986    -0.03238   -0.024909
-0.064536   -0.026858    0.035505    -0.12527  -0.0063954   -0.033354   -0.028807
-0.075255   -0.027833    0.016016    -0.24903    0.011144   -0.032055   -0.035953
-0.078827   -0.031081   -0.011592    -0.40851    0.031607   -0.032055   -0.045372
-0.070058   -0.032705   -0.042124    -0.57708    0.050446   -0.030106   -0.055766
-0.050244   -0.031081   -0.069408    -0.70993    0.056617   -0.025884   -0.060638
-0.024909    -0.02426   -0.085324    -0.76515    0.044275   -0.020037   -0.053492
-0.00022403   -0.012567   -0.088247    -0.72649    0.014717   -0.013866    -0.03238
0.021213  -0.0024977   -0.084999    -0.59949   -0.021337  -0.0054209  -0.0021729
0.038753   0.0088706   -0.077528    -0.40753   -0.046347   0.0039985    0.027709
0.053694    0.022837   -0.065186    -0.16685   -0.039526    0.015042    0.050121
0.061814    0.037129   -0.043099       0.131  -0.0037969    0.025436    0.065387
0.063438    0.051096   -0.010943     0.47497    0.036479    0.032582    0.071883
0.058566    0.059541     0.02641     0.81147     0.05142    0.032582     0.06896
0.045249    0.058566    0.063113        1.07    0.025761    0.024786     0.06019
0.029009    0.054019    0.096569      1.1999   -0.033679    0.011144    0.051096
0.013093    0.049472     0.11995      1.1798    -0.10514  -0.0021729    0.042326
0.0014    0.046873     0.12743      1.0252    -0.16035   -0.013541    0.035505
-0.0057458    0.042001     0.11281     0.79133    -0.18082   -0.019388    0.032582
-0.012242    0.033556    0.073182     0.54091    -0.16035   -0.015815    0.032257
-0.019063    0.026085    0.018615     0.32263    -0.10774  -0.0021729     0.03518
-0.020362    0.026085   -0.032705      0.1703   -0.043099    0.017965    0.035505
-0.014516    0.031282   -0.062912     0.10761   0.0078962    0.038103    0.032257
-0.0015233    0.039727   -0.063886     0.13749    0.027385    0.050121    0.025436
0.014392    0.047847   -0.044073     0.23429   0.0078962    0.049796    0.014717
0.028359    0.054668    -0.01549     0.35447   -0.043423    0.038428   0.0069217
0.036804    0.058566   0.0065969     0.44411    -0.10774    0.024461   0.0062721
0.037454    0.057267    0.015367     0.46328    -0.16198    0.013743    0.014392
0.028359    0.049796    0.009845     0.39961    -0.19771    0.009845    0.029009
0.013743    0.033881  -0.0073698     0.26904    -0.21849   0.0069217    0.044599
-0.00022403    0.014392   -0.031406     0.10826    -0.22726   0.0039985    0.056292
-0.008669  -0.0041217   -0.056416   -0.045697    -0.22109   0.0023744    0.061814
-0.010943   -0.019063   -0.072981    -0.16198    -0.20128   0.0043233    0.060515
-0.013541   -0.025559   -0.079152    -0.22499     -0.1675   0.0062721    0.053369
-0.023285    -0.02426   -0.075579    -0.23766    -0.12365   0.0062721    0.040702
-0.037577   -0.018413   -0.068109    -0.22044   -0.079152   0.0033489    0.026085
-0.048945  -0.0083442   -0.064861    -0.19901     -0.0405 -0.00022403    0.011794
-0.049595   0.0043233   -0.070707    -0.19511   -0.010943  -0.0031473      0.0014
-0.043423    0.016016     -0.0837    -0.21492   0.0091954  -0.0073698  0.00042559
-0.032055    0.025436   -0.097666     -0.2552    0.024137   -0.013866   0.0078962
-0.018413    0.030308    -0.10644    -0.30132    0.034855   -0.021012    0.022512
-0.0073698    0.031607    -0.10579    -0.33153     0.03583   -0.026858    0.035505
-0.0015233    0.029658   -0.093119    -0.33153    0.024786   -0.030106    0.039402
-0.0011985    0.025761   -0.072981      -0.301   0.0043233    -0.03303    0.032906
-0.0028225    0.020239   -0.045697    -0.25033   -0.017114   -0.030431    0.022188
-0.0028225    0.016991   -0.017439    -0.19446   -0.032055   -0.022636    0.017316
-0.00087364    0.017965   0.0072465    -0.14281   -0.039851   -0.013216    0.016991
0.00042559    0.023487     0.02706    -0.09929   -0.042449  -0.0063954    0.020564
0.003024    0.027709    0.038103   -0.070382   -0.038876  -0.0041217    0.022188
0.0065969    0.024137     0.04395   -0.056091   -0.026533  -0.0096434    0.012119
0.0072465    0.014392    0.046548   -0.051868  -0.0031473   -0.021337  -0.0099683
-0.0011985   0.0062721    0.047847   -0.050244    0.024461   -0.033679   -0.031406
-0.015815   0.0026992     0.04395   -0.042774    0.049147   -0.041475   -0.043748
-0.032705   0.0039985    0.036479   -0.031406     0.06084     -0.0405   -0.047321
-0.044073   0.0036737    0.023487   -0.033679    0.049147   -0.036927   -0.047646
-0.053168  0.00075039   0.0065969   -0.065835     0.01764   -0.035628   -0.048945
-0.061613  -0.0037969   -0.010618    -0.12333    -0.01549   -0.041475   -0.052518
-0.068434  -0.0076946   -0.016464    -0.18634   -0.030431   -0.046671   -0.055116
-0.069083  -0.0093186  -0.0073698    -0.23409   -0.016789   -0.047321   -0.055766
-0.062262   -0.010618    0.013743    -0.25292    0.015367   -0.045697   -0.054792
-0.046671   -0.014516    0.036479    -0.24383    0.048172   -0.044398   -0.054142
-0.028807   -0.018088    0.053369    -0.21979     0.06961   -0.047646   -0.051219
-0.013216   -0.018413    0.057917    -0.18991    0.078704   -0.054142   -0.047321
-0.0031473   -0.017439    0.049796    -0.16003    0.075456    -0.05804   -0.042449
0.00042559   -0.017764     0.03453    -0.13469    0.061489   -0.056091   -0.039201
-0.0031473   -0.022311    0.021213    -0.11553      0.0433   -0.047321   -0.039851
-0.012242   -0.027183    0.013093   -0.098641    0.027709   -0.036602   -0.044073
-0.022636   -0.032705    0.016341   -0.078503     0.01764   -0.030431   -0.049595
-0.030756   -0.037252     0.02706   -0.054142    0.016666   -0.028807   -0.054792
-0.033354    -0.04115    0.035505    -0.03303    0.020888   -0.027833   -0.059014
-0.03173   -0.043099    0.032906   -0.021986    0.025111   -0.020687   -0.059664
-0.026533   -0.039851    0.017316   -0.013541    0.026735   -0.012242   -0.058365
-0.020687   -0.035953  -0.0037969    0.003024    0.021863  -0.0054209   -0.059014
-0.017114   -0.035303   -0.025559    0.029009    0.017316  -0.0031473   -0.063237
-0.020037   -0.037252   -0.040175    0.050771    0.015367  -0.0050961    -0.06616
-0.027508   -0.039201   -0.045697    0.056617    0.016016  -0.0096434   -0.063561
-0.03173   -0.038227   -0.046022    0.036804     0.01894   -0.013866    -0.04927
-0.026858    -0.03303   -0.041799    -0.01484    0.027385   -0.013866   -0.024909
-0.012892   -0.021337   -0.030106   -0.098965    0.047523  -0.0037969   0.0020496
0.0065969  -0.0057458   -0.014191    -0.20778    0.080978    0.019914    0.019914
0.024461    0.012768 -0.00022403    -0.31854      0.1206    0.049472    0.024461
0.03583    0.026735   0.0069217    -0.40558     0.15796    0.074482    0.020888
0.037129    0.033881    0.011794    -0.44229     0.18946    0.084876    0.014392
0.034206    0.031932    0.019914      -0.415      0.2096    0.077405   0.0039985
0.030633    0.021213     0.02706    -0.33835      0.2109    0.058566  -0.0080194
0.024786   0.0059473     0.02641    -0.24708     0.19239    0.037454   -0.019388
0.018615  -0.0057458    0.017316    -0.19154     0.15763    0.023162    -0.02426
0.013743   -0.010293   0.0020496     -0.2055     0.12353    0.018615   -0.023285
0.014717  -0.0063954   -0.015165    -0.28216     0.10761    0.017965   -0.016464
0.01894   0.0046481   -0.028482     -0.3744     0.10599    0.013418  -0.0080194
0.024137     0.01764   -0.036927    -0.43254    0.090722  0.00042559  -0.0031473
0.024461    0.026735     -0.0405    -0.42767    0.046873   -0.019712  -0.0054209
0.020239    0.026735   -0.038876     -0.3705   -0.024909   -0.045047    -0.01614
0.0088706    0.015042   -0.032705    -0.30749    -0.11163   -0.072006   -0.032055
-0.0060706  -0.0034721    -0.02426    -0.30165    -0.19803   -0.094743    -0.04862
-0.020362   -0.023935   -0.018088    -0.39129    -0.27274    -0.10416   -0.058365
-0.029457   -0.039201   -0.023935    -0.55759    -0.31724   -0.098316   -0.053817
-0.032055   -0.048296   -0.047321    -0.73851    -0.32373   -0.079477   -0.038227
-0.025884   -0.052843   -0.086623    -0.86356    -0.30294    -0.05804   -0.015815
-0.010943    -0.04927    -0.11845    -0.85154    -0.26364   -0.037902    0.009845
0.0091954   -0.030106    -0.10709    -0.58553    -0.21037   -0.022311    0.033881
0.032582   0.0069217   -0.029132    0.041351    -0.13827   -0.010293    0.052395
0.054019    0.057592    0.099817     0.97582   -0.054467  -0.0041217     0.06084
0.069285     0.10339     0.23169      1.9574    0.017965  -0.0096434    0.058566
0.073507     0.12385     0.31614      2.6772    0.054993   -0.026533    0.044599
0.065062     0.11021     0.33011      2.9282    0.044924   -0.047321    0.024786
0.045249    0.071234     0.28041       2.684 -0.00087364   -0.075255   0.0069217
0.01894    0.023487     0.19076      2.0935   -0.057715    -0.10871   -0.010293
-0.008669   -0.016464     0.09397      1.3932    -0.10091    -0.14184   -0.021337
-0.032055   -0.041799    0.013418     0.78906    -0.11683    -0.16328   -0.027508
-0.043099   -0.052193   -0.038876     0.39377    -0.10968    -0.16588   -0.027833
-0.0405    -0.04992   -0.064211     0.20408   -0.087597    -0.14866   -0.022961
-0.029132   -0.042124   -0.069408     0.14172   -0.063237    -0.11813   -0.012242
-0.012567   -0.034004    -0.06681     0.11086   -0.043748   -0.082725      0.0014
0.0088706   -0.025884   -0.068109    0.050121   -0.025884   -0.049595    0.016016
0.030957   -0.018088   -0.076229   -0.052518  -0.0054209   -0.022311    0.033881
0.047198   -0.011592   -0.088572    -0.17659    0.016991  -0.0044465    0.054019
0.05272  -0.0080194   -0.094743    -0.28638    0.038103   0.0010752    0.071883
0.05207  -0.0083442   -0.088247    -0.34484    0.053694  -0.0047713    0.076755
0.049472   -0.010293   -0.068758    -0.33965    0.056942   -0.020037    0.065712
0.046223   -0.013541   -0.045697    -0.30002    0.041027   -0.041799    0.043625
0.040377   -0.017439   -0.030756    -0.28248   0.0052977    -0.05804    0.018615
0.029333   -0.021986   -0.028807    -0.31204   -0.037252   -0.061937  -0.0021729
0.017965   -0.024909   -0.035628    -0.34387   -0.063561   -0.049595   -0.012242
0.011144   -0.024585   -0.038227    -0.30847   -0.055116   -0.019063  -0.0073698
0.0088706   -0.023935   -0.036927    -0.17594   -0.019712    0.025111   0.0078962
0.00042559   -0.026533   -0.045047    0.017965    0.011469     0.06896    0.024786
-0.01549   -0.037252   -0.075904     0.18881    0.014068     0.10047     0.03453
-0.032705   -0.056416     -0.1295     0.24825   -0.011592     0.11476    0.033231
-0.046022   -0.077528    -0.19641     0.15146   -0.035303     0.11703    0.025111
-0.052193   -0.092794    -0.25812   -0.072981    -0.03173     0.11411    0.019589
-0.053168   -0.094743    -0.29482     -0.3403 -0.00054884     0.11086    0.020239
-0.052193     -0.0824    -0.29515    -0.54817    0.034855     0.10404    0.023487
-0.046996   -0.062912     -0.2578    -0.62483    0.048497    0.092346    0.024461
-0.037577   -0.040175    -0.19089    -0.55889    0.031282    0.073507    0.016341
-0.025234   -0.018738    -0.11001    -0.39032  -0.0063954    0.053044   0.0017248
-0.012892   0.0020496    -0.03173    -0.18601    -0.04927    0.031282   -0.012892
-0.0054209    0.021538    0.029333  -0.0063954   -0.087272    0.011469    -0.02426
-0.0011985    0.039078    0.060515     0.10501    -0.11651  -0.0067202   -0.028807
0.0033489    0.051745    0.062789     0.13749    -0.13599   -0.021661   -0.022311
0.010495    0.056942    0.048497     0.10404    -0.14379   -0.030106  -0.0063954
0.021213    0.055643    0.029658     0.03453    -0.14087   -0.033354    0.014392
0.026085    0.049472    0.015692   -0.044723    -0.12722   -0.028482    0.032906
0.023487      0.0433   0.0056225    -0.12917    -0.10611   -0.017439      0.0433
0.014392     0.03583 -0.00054884    -0.25845   -0.080451  -0.0024977     0.04395
0.0020496     0.02641  -0.0060706    -0.47282   -0.050569     0.01017    0.036804
-0.012242    0.015042   -0.013866    -0.76644    -0.02426    0.019589    0.028034
-0.024909    0.003024   -0.024585     -1.0799  -0.0060706    0.025436    0.021538
-0.036278  -0.0057458   -0.035628     -1.3592      0.0014    0.023487    0.015692
-0.043748   -0.012567    -0.04115     -1.5807 -0.00022403    0.013743   0.0091954
-0.046022   -0.017439   -0.038551     -1.7308  -0.0060706   0.0033489   0.0020496
-0.046996   -0.020687   -0.029782     -1.7483   -0.014516  0.00010078  -0.0024977
-0.050244   -0.019063   -0.015165     -1.5103   -0.015165   0.0052977  -0.0054209
-0.052193   -0.010618    0.010819    -0.92463   0.0069217    0.016341   -0.007045
-0.052518   0.0059473    0.053694   -0.047646    0.056942     0.02706   -0.007045
-0.049595    0.025436     0.11021      0.8839     0.11963    0.030308  -0.0073698
-0.047971    0.039402      0.1651      1.6079     0.16543    0.023487   -0.012567
-0.047646    0.038103     0.20246      1.9863     0.16933   0.0088706    -0.02361
-0.048296    0.022188     0.20928      2.0152     0.13197  -0.0096434   -0.037252
-0.052843  0.00010078     0.18297      1.7791    0.076106   -0.027833   -0.048296
-0.057065   -0.018413     0.13002      1.3877    0.029009     -0.0405   -0.053817
-0.051219   -0.024585    0.062139      0.9297   0.0088706   -0.046022   -0.050894
-0.034004    -0.01549  -0.0063954      0.4727     0.01829   -0.046022   -0.041475
-0.0089938   0.0049729   -0.064211    0.087149    0.047198   -0.044398   -0.029782
0.016991    0.029658    -0.10091    -0.16523    0.073507   -0.042124   -0.013216
0.039078    0.053044    -0.11196    -0.26397    0.079354   -0.039526    0.003024
0.054993    0.067661    -0.10676    -0.24026     0.05272   -0.039201    0.015367
0.061814    0.065062   -0.097666    -0.16295   0.0039985   -0.037577    0.022837
0.06084    0.048172   -0.089871   -0.096042   -0.049595   -0.032705    0.023812
0.055643    0.028034   -0.079477   -0.052518   -0.097017   -0.025884    0.021863
0.05272    0.018615   -0.058365   0.0039985     -0.1282   -0.020687    0.021538
0.052395     0.02641   -0.021986     0.10956    -0.13437   -0.018088    0.024137
0.055318    0.047198     0.02641     0.26222     -0.1178    -0.01549    0.028684
0.057592    0.072533    0.075781     0.43145   -0.087597   -0.011917    0.030633
0.054668    0.088773     0.11378     0.57079   -0.059664  -0.0063954    0.029333
0.046223    0.091696     0.12937     0.64062   -0.039526 -0.00054884    0.021538
0.032906    0.080978     0.12093     0.63218   -0.027508   0.0039985   0.0072465
0.017965    0.061489    0.093645     0.56559   -0.023285   0.0056225   -0.011917
0.0069217    0.038428    0.058891      0.4727   -0.025884   0.0039985   -0.026858
0.0017248    0.015692    0.024137     0.38142   -0.031081  -0.0018481    -0.03238
-0.00022403  -0.0024977  -0.0050961     0.30445   -0.035303   -0.010293   -0.031406
0.00010078    -0.01549   -0.027183     0.24013   -0.034004   -0.018738   -0.027183
0.0033489   -0.021986   -0.038876     0.18459   -0.029457   -0.027508   -0.025234
0.0036737   -0.025559   -0.038876     0.13392   -0.019063   -0.034654   -0.029457
-0.0073698   -0.028807   -0.033679    0.076755 -0.00087364   -0.038227   -0.038227
-0.029457   -0.035628   -0.035628    0.010819    0.023162   -0.039526    -0.04927
-0.055766   -0.045047   -0.051219   -0.062262    0.043625   -0.036602   -0.059014
-0.076554   -0.052843   -0.072331    -0.13989    0.050121   -0.029457    -0.06616
-0.085324    -0.04927   -0.080776    -0.21979    0.032906   -0.025884   -0.064211
-0.076229   -0.034978   -0.064211    -0.29028  -0.0089938   -0.030431   -0.052843
-0.053817   -0.012242   -0.022311    -0.32731   -0.061613    -0.04115   -0.035953
-0.026533    0.010819    0.028359    -0.31042    -0.10319    -0.04862   -0.019388
-0.0041217    0.027385    0.070584    -0.24318    -0.11975   -0.046022  -0.0047713
0.0085458     0.03453    0.092671    -0.15223    -0.10644    -0.03173   0.0088706
0.009845    0.034206    0.092021   -0.072656   -0.071682    -0.01484    0.017965
0.0033489    0.029333     0.07708   -0.030756    -0.03173  -0.0031473    0.020564
-0.0096434     0.01894    0.054993   -0.033354  -0.0018481  0.00075039    0.012768
-0.024909   0.0059473    0.033881   -0.072656    0.009845   0.0010752  -0.0041217
-0.038876   -0.011917    0.016666     -0.1308   0.0036737  0.00075039   -0.021986
-0.046996    -0.03173   0.0078962    -0.18731   -0.010618  -0.0024977   -0.036602
-0.046347   -0.047971    0.003024    -0.22824   -0.023285   -0.013866   -0.043423
-0.036278   -0.056091      0.0014    -0.25065   -0.029132   -0.034004   -0.044398
-0.027833   -0.059664      0.0014    -0.26039   -0.030431   -0.056091   -0.038876
-0.026209   -0.056416  0.00075039    -0.26299   -0.028157   -0.072656   -0.030431
-0.030106   -0.047971   0.0017248    -0.25975    -0.02361   -0.079477   -0.023935
-0.031406   -0.038551   0.0033489     -0.2513   -0.017439   -0.076229   -0.020037
-0.024909   -0.029132   0.0033489    -0.24253   -0.015815    -0.06551   -0.015815
-0.012892   -0.021661    0.003024    -0.23668   -0.019388   -0.053168  -0.0099683
-0.00087364   -0.017114      0.0014    -0.23538   -0.025559   -0.045697  -0.0037969
0.0059473   -0.012242  -0.0015233    -0.23571   -0.026858   -0.044398  -0.0011985
0.0043233  -0.0080194  -0.0018481    -0.23311   -0.021012   -0.044723  -0.0021729
-0.0021729  -0.0041217   0.0010752    -0.22726   -0.011592   -0.048296  -0.0067202
-0.0080194  -0.0057458   0.0062721    -0.22109  -0.0018481   -0.053817   -0.013541
-0.0083442   -0.013541   0.0085458    -0.21752   0.0036737   -0.059989   -0.022311
-0.0073698   -0.022961   0.0056225    -0.21817   0.0036737   -0.062262   -0.029782
-0.0089938   -0.028482  -0.0041217    -0.22304  -0.0011985   -0.059339   -0.037252
-0.01484   -0.026533   -0.021012    -0.23246  -0.0044465   -0.051219   -0.044723
-0.022961   -0.021661   -0.043423    -0.24318 -0.00054884   -0.038227   -0.050894
-0.029132   -0.015815    -0.06616     -0.2474   0.0091954   -0.025884   -0.052843
-0.030756   -0.011592   -0.080776    -0.23993    0.019264   -0.014191    -0.04992
-0.026533  -0.0093186   -0.079152     -0.2172    0.023162  -0.0076946     -0.0405
-0.020687  -0.0083442   -0.060313    -0.18017    0.014068  -0.0076946   -0.026533
-0.015165  -0.0080194   -0.028157    -0.13177   -0.012242   -0.012892   -0.010293
-0.013216  -0.0050961   0.0091954   -0.080776   -0.046671    -0.02361  0.00042559
-0.015815 -0.00087364      0.0433   -0.035628   -0.079477   -0.038551  0.00010078
-0.021012   0.0059473    0.063438  -0.0031473   -0.098965   -0.054142  -0.0076946
-0.024585    0.012443    0.067011    0.010495   -0.097017   -0.067134   -0.017439
-0.021986    0.018615    0.051745   0.0043233   -0.071682   -0.072656   -0.029782
-0.013541    0.020564    0.027709   -0.021337   -0.028807   -0.071032   -0.044073
-0.0060706    0.016016   0.0065969    -0.05739    0.019914   -0.063886   -0.060963
-0.0037969   0.0065969  -0.0041217   -0.075904    0.058891   -0.051868   -0.075579
-0.012242  -0.0050961  -0.0034721   -0.058365    0.076106   -0.037577   -0.080451
-0.02361   -0.017764  -0.0011985  -0.0060706    0.070259   -0.019712   -0.071682
-0.030106   -0.029457  -0.0099683    0.064413    0.044924  0.00042559   -0.048945
-0.022311   -0.036278   -0.033679     0.13392    0.010495    0.020888   -0.017764
-0.0015233   -0.035628   -0.067134     0.17127   -0.020687    0.044924    0.016016
0.029333   -0.026209    -0.09929     0.13879   -0.041799    0.070259    0.047523
0.062789   -0.010293    -0.12268     0.01764   -0.051868    0.095594    0.075131
0.091696    0.009845     -0.1282    -0.15061   -0.046996     0.11995     0.10047
0.11086    0.029658    -0.11326    -0.29093   -0.026533      0.1349      0.1232
0.11671    0.048822   -0.085973    -0.35232   0.0039985     0.13684     0.13977
0.10956    0.062464   -0.056091    -0.32795    0.027385     0.12548     0.14367
0.087799    0.066686   -0.030431    -0.23441    0.029333    0.099817      0.1284
0.055968    0.059541    -0.01549   -0.095393   0.0088706    0.064737    0.097543
0.020239    0.045574   -0.010943    0.056617   -0.023285    0.029658    0.062464
-0.011267    0.028359   -0.014191     0.18524   -0.054792  -0.0018481    0.033556
-0.03173    0.013093   -0.022311     0.26482    -0.07428   -0.023935    0.013743
-0.044398   0.0020496   -0.032705      0.2895   -0.086298    -0.03173   0.0052977
-0.052193  -0.0044465   -0.044723     0.27586   -0.098316   -0.024909   0.0062721
-0.054467   -0.008669   -0.052843     0.24923    -0.11553  -0.0083442    0.012768
-0.051544   -0.010618   -0.053168     0.22487    -0.13534   0.0072465     0.01829
-0.045372    -0.01614   -0.039851      0.2083    -0.14996    0.016016     0.01894
-0.037577    -0.02361   -0.016789     0.19239    -0.15029    0.015042    0.015042
-0.027183    -0.03173   0.0072465      0.1677    -0.13275   0.0065969   0.0088706
-0.015165   -0.037577    0.021863     0.13295    -0.10709  -0.0076946   0.0049729
-0.0083442   -0.036602     0.01894    0.092021   -0.079477   -0.022636   0.0026992
-0.0073698   -0.026533  -0.0021729    0.044275   -0.050894   -0.031081   0.0017248
-0.0093186   -0.008669   -0.035303 -0.00022403   -0.025884   -0.033354   0.0017248
-0.010293    0.011794   -0.064861   -0.028482  -0.0060706   -0.031081   0.0046481
-0.0096434    0.027709   -0.072981   -0.030756   0.0043233   -0.027183    0.011469
-0.0063954    0.033231    -0.05804   -0.012567  -0.0037969   -0.025884    0.018615
0.0014     0.02706    -0.03303   0.0069217    -0.03238    -0.03173    0.024137
0.0088706    0.012443  -0.0093186 -0.00054884    -0.07428   -0.043099    0.023487
0.010819  -0.0060706   0.0046481   -0.037577    -0.11683   -0.056091    0.017316
0.0069217   -0.022636   0.0072465    -0.08305    -0.14704    -0.06616    0.012443
-0.0037969   -0.032705 -0.00087364    -0.11293    -0.16068   -0.073955    0.013418
-0.016464   -0.038227   -0.015165    -0.12365    -0.16035   -0.078827    0.018615
-0.023935   -0.038551   -0.027508    -0.11943    -0.14834   -0.077853    0.024137
-0.020687    -0.03303    -0.03173   -0.093769    -0.12235    -0.06681    0.029658
-0.0080194   -0.019063   -0.023935    -0.01549   -0.072656   -0.045372     0.03583
0.0059473   0.0023744  -0.0067202     0.14821  -0.0067202    -0.01614    0.042651
0.015042    0.024461    0.012443     0.37883    0.061165    0.010819    0.047198
0.019589    0.038753    0.025111     0.60002     0.11118    0.028359    0.047198
0.01894    0.041027    0.024461     0.74131      0.1323    0.033231    0.042651
0.016991    0.032257    0.012443     0.77087     0.12515    0.026735    0.035505
0.013093    0.015042  -0.0063954     0.69909     0.10014    0.013418    0.024786
0.0062721   -0.010618   -0.025559      0.5565    0.066037  -0.0054209    0.012119
-0.0034721   -0.038227   -0.042124      0.3876    0.033556   -0.029132 -0.00054884
-0.012242   -0.059989   -0.051219     0.22941   0.0095202   -0.050569  -0.0096434
-0.015165   -0.069083   -0.047971     0.10599  -0.0034721   -0.065835   -0.013541
-0.01484   -0.063237   -0.036927    0.027385  -0.0028225   -0.072331   -0.015165
-0.013216   -0.051219   -0.024909   -0.011267   0.0088706   -0.072981   -0.017114
-0.010618   -0.038551   -0.010293   -0.021986    0.024137   -0.070707   -0.024909
-0.0080194   -0.025884   0.0043233   -0.016789    0.037129   -0.067784   -0.034654
-0.0073698   -0.016464    0.014392  -0.0050961    0.045899   -0.068109   -0.043748
-0.008669  -0.0096434    0.023162   0.0020496    0.050771    -0.07428   -0.053492
-0.0089938  -0.0080194    0.033556   0.0023744    0.048497   -0.083375   -0.065186
-0.010943  -0.0099683    0.045899  -0.0021729    0.040377   -0.087272   -0.075579
-0.01549    -0.01484    0.053694  -0.0083442    0.028034   -0.085648   -0.081751
-0.025559   -0.019712    0.054344   -0.013866    0.014392   -0.081751   -0.082725
-0.0405   -0.022311    0.050121   -0.018413   0.0046481   -0.077203   -0.081751
-0.055441   -0.021337    0.046223   -0.021012   0.0049729   -0.072331   -0.077203
-0.064211   -0.016789    0.043625    -0.02426    0.013418   -0.063886   -0.072981
-0.062262  -0.0099683    0.041351   -0.025559    0.025111   -0.052193   -0.070382
-0.04992  -0.0018481    0.041676   -0.021661    0.034855   -0.041475   -0.068109
-0.030756   0.0046481    0.038753   -0.012242    0.040052    -0.03238   -0.060638
-0.008669    0.009845    0.036479   0.0036737    0.047847   -0.022636   -0.045697
0.012119    0.013093    0.033881    0.026735    0.062789   -0.013541    -0.02361
0.023162    0.013743    0.027709    0.055643    0.082277  -0.0047713   0.0039985
0.026085    0.010495    0.020888    0.088773    0.096893   0.0036737    0.031932
0.025436   0.0039985    0.011144     0.11151    0.096569    0.013093    0.049796
0.021863  -0.0047713  -0.0034721    0.097218    0.074482     0.01894    0.055318
0.011144   -0.015165   -0.019063    0.027385    0.037778    0.012768    0.044599
-0.0054209    -0.02361   -0.033679   -0.089871   0.0059473  -0.0080194    0.017965
-0.020037   -0.025884   -0.038876    -0.22207  -0.0089938   -0.039851    -0.01614
-0.028157   -0.019712   -0.026858    -0.33283  -0.0050961   -0.072981   -0.046022
-0.031081  -0.0099683 -0.00054884    -0.39681   0.0088706   -0.096692   -0.063886
-0.031081  0.00010078     0.02706    -0.41111    0.023812    -0.10481   -0.067459
-0.025234     0.01017    0.037129    -0.38772     0.03453   -0.095068   -0.056741
-0.010618    0.014717    0.023162    -0.35004    0.038428    -0.06616    -0.03238
0.011144    0.012119   -0.011592    -0.31236     0.03583   -0.024585   0.0023744
0.033231   0.0052977   -0.053817    -0.27534    0.024786     0.01829    0.042326
0.05142   0.0023744   -0.088896    -0.23246   0.0065969    0.056617    0.078055
0.061489   0.0020496    -0.10903    -0.18277   -0.012892    0.078055     0.10144
0.062789   0.0026992    -0.11066    -0.13567   -0.030106    0.075781     0.10599
0.055968   0.0010752    -0.10059   -0.094743   -0.045372    0.055968    0.089423
0.037778  -0.0018481   -0.086623   -0.062912   -0.055441    0.030957    0.057267
0.010495  -0.0057458   -0.072981   -0.039201   -0.062912    0.008221    0.021863
-0.021012   -0.011592   -0.060963    -0.02426   -0.064211  -0.0076946  -0.0047713
-0.045372   -0.017439   -0.047646   -0.017439   -0.060963   -0.018088   -0.019388
-0.055116    -0.02361    -0.03173   -0.018413   -0.053817   -0.026209   -0.026858
-0.051219   -0.027833   -0.015165   -0.025234   -0.042774   -0.032705   -0.033679
-0.043099   -0.029782  -0.0031473   -0.035303   -0.032055   -0.033354   -0.042124
-0.037252   -0.029132   0.0052977   -0.042774   -0.024909   -0.027183    -0.04862
-0.038876   -0.022311    0.012768   -0.042124   -0.022636   -0.017439   -0.050244
-0.046671   -0.011267    0.019589   -0.028157    -0.02361   -0.010618   -0.043748
-0.053168   0.0020496    0.022837  -0.0050961   -0.024909  -0.0083442   -0.027183
-0.04927    0.013093    0.019914    0.016341   -0.021661   -0.012242  -0.0093186
-0.033354    0.020888    0.013743    0.025761   -0.014516   -0.015815   0.0026992
-0.013866    0.026085   0.0088706    0.023487  -0.0083442   -0.015165   0.0052977
0.0049729    0.032582   0.0049729    0.021538   -0.007045   -0.014191 -0.00054884
0.01764    0.038103      0.0014    0.028034   -0.015815   -0.016464  -0.0057458
0.024461    0.041351  -0.0031473    0.047198   -0.036927   -0.023935  -0.0073698
0.021863    0.038753  -0.0060706    0.078704   -0.066485   -0.031406   -0.010293
0.010495    0.031282  -0.0031473     0.11573   -0.090845   -0.034654   -0.013541
-0.0047713    0.020564   0.0088706     0.14626    -0.10091   -0.033679   -0.018738
-0.019388    0.011469    0.028684     0.15666    -0.09929   -0.027833   -0.029132
-0.031406   0.0088706    0.048172     0.14399   -0.094743   -0.016789   -0.042124
-0.034004    0.012119    0.058241     0.11378   -0.087922  -0.0031473   -0.051544
-0.028157     0.01894    0.059865     0.07773   -0.079152    0.016991   -0.055766
-0.018738    0.026735    0.053369    0.048822   -0.065186    0.038103   -0.053492
-0.0089938     0.03453      0.0433     0.03453   -0.046347    0.051096   -0.043748
-0.0021729    0.041027     0.03583    0.034206   -0.024585    0.049147   -0.029782
0.0014    0.043625    0.029658    0.038428  -0.0047713     0.03453   -0.020037
0.0017248    0.041676    0.024137    0.042326   0.0075714    0.016341   -0.017764
-0.00087364    0.036154     0.01894    0.042975    0.012768   0.0026992   -0.022961
-0.0054209    0.030633    0.016341    0.039078    0.013743 -0.00087364   -0.030106
-0.0096434    0.031932    0.014717    0.032582    0.013743   0.0056225   -0.035628
-0.013541    0.034855    0.016991    0.028684    0.016016    0.020888   -0.037577
-0.015815     0.03518    0.016991    0.028359    0.019914    0.038428   -0.034978
-0.01549    0.028359   0.0095202    0.024137    0.022837    0.053044   -0.027183
-0.010293    0.016341   -0.007045    0.013418    0.021213    0.058566   -0.011592
0.00010078   0.0020496   -0.028807  -0.0044465    0.013093    0.055968    0.011469
0.011469   -0.011917   -0.047321   -0.026858      0.0014     0.05142     0.03453
0.021213   -0.021986   -0.055116   -0.048945  -0.0099683    0.046873    0.049472
0.023812   -0.026209   -0.054467   -0.063561   -0.018413      0.0433    0.049472
0.019264   -0.026533   -0.050894   -0.075904    -0.02361    0.036479    0.038428
0.013418   -0.025884   -0.052518   -0.092145   -0.021012    0.025436    0.026085
0.0075714   -0.025884   -0.061937    -0.12138   -0.013541   0.0078962    0.016666
0.0043233   -0.026533   -0.076554    -0.16458  -0.0037969   -0.010293    0.012768
0.0046481   -0.025559   -0.084024    -0.20453  0.00075039   -0.021012    0.012443
0.0062721    -0.02361   -0.077203    -0.21427  -0.0041217   -0.024909    0.013743
0.0052977   -0.021661   -0.053817    -0.17724   -0.020037   -0.026533    0.017316
0.0010752   -0.018413   -0.022961    -0.10319   -0.042124   -0.026209    0.023487
-0.0044465   -0.014516   0.0049729   -0.024585   -0.063561   -0.024585    0.028359
-0.0047713  -0.0080194    0.024786    0.023162    -0.07428   -0.021986    0.026735
0.0014   0.0033489     0.03518    0.025436   -0.073306   -0.019388    0.019589
0.012119     0.01829    0.036479  0.00075039    -0.06616   -0.016789    0.012768
0.019589    0.029983    0.033556   -0.010618   -0.063561   -0.015815   0.0075714
0.018615    0.032906    0.036479    0.029333   -0.075579   -0.020037   0.0023744
0.009845    0.030957    0.045249     0.12937    -0.10611   -0.027833  -0.0015233
0.0014    0.029009    0.057917     0.26157    -0.14346   -0.035953   0.0017248
-0.0024977    0.028034    0.068635      0.3798     -0.1753   -0.041475    0.012119
-0.0044465    0.025436    0.070259     0.44476    -0.19348   -0.041475    0.024461
-0.0057458    0.021863    0.063113     0.44249    -0.19738   -0.038227    0.035505
-0.0057458    0.016016    0.049796     0.38045    -0.18439   -0.034004    0.040377
-0.0063954    0.011144    0.032906     0.28593    -0.15678   -0.030756     0.03453
-0.008669   0.0085458    0.017965     0.18946    -0.12105   -0.027183    0.022512
-0.01484   0.0091954   0.0049729     0.11411   -0.085648   -0.021661    0.008221
-0.019712     0.01017  -0.0076946    0.065062   -0.052193    -0.01549  -0.0015233
-0.02426    0.010819   -0.019388    0.041676   -0.023285    -0.01484   -0.007045
-0.026209     0.01017   -0.031406    0.030308 -0.00087364   -0.016789   -0.007045
-0.025234   0.0075714   -0.038551    0.017965    0.012443   -0.017764  -0.0050961
-0.019712   0.0039985   -0.041475   0.0023744     0.01764   -0.017764   -0.007045
-0.008669   0.0020496   -0.040175   -0.016789     0.01764   -0.018738   -0.014191
0.0056225   0.0010752   -0.037902   -0.035303    0.014717   -0.021337   -0.021661
0.021538   0.0010752   -0.035303   -0.050894    0.011469   -0.025559    -0.02361
0.03518  -0.0011985   -0.035953   -0.057715   0.0069217   -0.028157   -0.019063
0.043625  -0.0073698   -0.038227    -0.05739   0.0033489    -0.03173   -0.013541
0.040377   -0.012892   -0.040175   -0.053492   0.0056225   -0.034329   -0.008669
0.028034   -0.018088   -0.041475    -0.04992    0.016016   -0.035953   -0.007045
0.010819   -0.019063   -0.041475   -0.050244    0.033881   -0.038227  -0.0089938
-0.0050961    -0.01484   -0.044723   -0.053817    0.055643   -0.044398  -0.0089938
-0.018738  -0.0063954   -0.047971   -0.059014    0.078055   -0.051219  -0.0050961
-0.026858  0.00042559   -0.050894   -0.064861    0.095594   -0.055766  -0.0015233
-0.030756   0.0043233   -0.053168   -0.071032     0.10404   -0.056741  0.00075039
-0.032705   0.0036737   -0.055116   -0.076879     0.10177    -0.05804 -0.00022403
-0.036927  -0.0015233   -0.059014   -0.081426    0.092021   -0.057715 -0.00022403
-0.043423  -0.0093186   -0.057715   -0.084999    0.076755   -0.056741  0.00075039
-0.04992   -0.016789   -0.047646     -0.0837     0.06084   -0.055766  0.00075039
-0.054792   -0.018738   -0.029782   -0.076879    0.046548   -0.053492  0.00075039
-0.056416    -0.01484   -0.013216   -0.070382    0.033231   -0.051219  -0.0024977
-0.055116   -0.008669  -0.0037969   -0.066485    0.022188   -0.047971   -0.008669
-0.044723  -0.0028225  -0.0018481   -0.062912    0.012443   -0.043099   -0.016789
-0.027183   0.0020496   0.0010752   -0.055116   0.0026992   -0.037902   -0.023285
-0.0057458   0.0062721   0.0078962   -0.040175  -0.0047713   -0.030431   -0.027183
0.010495   0.0088706    0.013743   -0.023285  -0.0096434   -0.020362   -0.029782
0.016666   0.0085458    0.016016   -0.011917   -0.017764   -0.011592    -0.03303
0.014392   0.0026992    0.014068  -0.0076946   -0.028157  -0.0096434   -0.038227
0.0036737  -0.0060706   0.0085458  -0.0067202   -0.036927   -0.011592   -0.044398
-0.0076946   -0.015165  0.00042559  -0.0073698   -0.042449    -0.01549    -0.04927
-0.017439   -0.019388  -0.0067202  -0.0076946   -0.044723   -0.013216   -0.048945
-0.02426   -0.018088   -0.012242  -0.0093186   -0.044723  -0.0031473   -0.042449
-0.024909   -0.012567   -0.012242   -0.011917   -0.040825    0.016666   -0.028482
-0.017764  -0.0067202  -0.0047713    -0.01484   -0.034004    0.037778   -0.012892
-0.0041217  -0.0034721    0.003024   -0.012567   -0.027508     0.05142 -0.00022403
0.0091954  -0.0031473    0.010819  -0.0011985   -0.021986    0.053369   0.0046481
0.016991  -0.0047713    0.021863    0.023487    -0.01549     0.04395   0.0017248
0.017965  -0.0063954    0.038103    0.063763   -0.012242    0.022188  -0.0083442
0.012443   -0.007045    0.056942     0.11054   -0.012242   -0.013541   -0.026858
0.0039985   -0.007045    0.069285     0.14367   -0.018738    -0.05804    -0.04992
-0.0057458  -0.0073698    0.075456     0.14042   -0.029782    -0.10156   -0.072981
-0.017114   -0.008669    0.074157    0.097868     -0.0405    -0.12982   -0.087272
-0.023285   -0.013216    0.059216    0.033881   -0.043423    -0.13275   -0.085973
-0.026533   -0.022636    0.030633   -0.028807   -0.040175    -0.10968   -0.068434
-0.028157   -0.034654   -0.012242   -0.075579   -0.034329    -0.06681   -0.038227
-0.028157   -0.046347   -0.063237    -0.10709   -0.028482   -0.013216  -0.0028225
-0.025884   -0.057065    -0.11813    -0.13307   -0.025234    0.042326    0.029658
-0.02361   -0.063237    -0.16718    -0.15386   -0.022636    0.089748    0.054344
-0.018413   -0.063561    -0.20128    -0.15743   -0.018738     0.11768    0.070584
-0.007045   -0.059339    -0.21265     -0.1334   -0.012892     0.12125    0.078055
0.0069217   -0.049595    -0.20225   -0.089546   -0.010293     0.10794    0.078704
0.022837   -0.039526    -0.18082   -0.052843   -0.011917    0.083901    0.075456
0.03453   -0.030431    -0.15646   -0.048296   -0.011267    0.057917    0.065712
0.036479   -0.023935    -0.12398   -0.086298  -0.0028225    0.037778    0.054344
0.029658   -0.016789   -0.078827    -0.15418   0.0075714    0.025436      0.0433
0.020888   -0.012567    -0.02426    -0.22272   0.0049729    0.018615    0.032906
0.013743   -0.013541    0.029658    -0.25942  -0.0093186    0.013093    0.024137
0.008221    -0.01614    0.073182    -0.24383   -0.026858   0.0046481    0.014717
-0.00087364   -0.018088    0.096893    -0.17822   -0.040175  -0.0054209   0.0059473
-0.012567   -0.020037     0.10144   -0.087272   -0.042449   -0.018738      0.0014
-0.020687   -0.025234    0.091047  -0.0054209   -0.029782   -0.032055   0.0017248
-0.022311   -0.029782     0.06831    0.031932  0.00042559   -0.043099      0.0014
-0.017764   -0.028482    0.036804   0.0072465    0.045249   -0.044723  -0.0018481
-0.008669   -0.015815  -0.0018481    -0.06616    0.097543   -0.038551  -0.0067202
0.0049729   0.0046481   -0.043099    -0.15841     0.14984   -0.028807   -0.010943
0.022837    0.028034     -0.0824    -0.23798     0.18849   -0.019712  -0.0099683
0.041351    0.048497    -0.10676    -0.28313     0.19888   -0.013541  0.00010078
0.054993    0.061489    -0.10709    -0.28898     0.16868   -0.012242    0.015367
0.059865    0.063763   -0.081751    -0.27306    0.095919   -0.015165    0.028034
0.053694    0.056292   -0.041799    -0.27891  -0.0096434   -0.021337    0.033556
0.038753    0.042326  -0.0080194    -0.34874     -0.1282   -0.032705    0.028684
0.019589    0.027709   0.0075714    -0.48873    -0.23344   -0.043748    0.022188
0.0052977     0.01829   0.0036737    -0.65309    -0.29482   -0.044073    0.020239
-0.0028225    0.017965   -0.012567    -0.76774     -0.2984   -0.034978     0.02641
-0.0044465    0.019264   -0.033679    -0.75248    -0.25487   -0.023285    0.037129
0.00042559     0.01829   -0.050894    -0.54428    -0.19024   -0.016464    0.044924
0.0095202    0.017316   -0.052518    -0.12852    -0.12885    -0.01484    0.042001
0.019264    0.023162   -0.031406     0.41878   -0.082076   -0.015165    0.030308
0.02706    0.039402   0.0075714     0.96998   -0.050894   -0.018088    0.015367
0.030633    0.059865    0.051096      1.3977   -0.034329   -0.022961    0.003024
0.029983    0.075131    0.081952      1.6047   -0.025234   -0.029782  -0.0060706
0.026735    0.078704    0.090397      1.5679   -0.021012   -0.036927   -0.012892
0.020564    0.070909    0.079354      1.3412   -0.022311   -0.042449   -0.016789
0.010819    0.054019    0.059541      1.0158    -0.02426   -0.047971   -0.019063
-0.0031473    0.033231     0.03583     0.68609   -0.022961   -0.054142   -0.019388
-0.017114    0.015042    0.016016     0.41943   -0.020687   -0.060963   -0.021012
-0.029457   0.0010752   0.0078962     0.24533   -0.021337   -0.067459   -0.026858
-0.036602   -0.007045    0.010495     0.15244   -0.024909   -0.067134   -0.034329
-0.0405   -0.012567    0.020564     0.10859   -0.030431   -0.059664   -0.042449
-0.045047   -0.019063    0.031607    0.081627   -0.036602   -0.046996   -0.048296
-0.051544   -0.024909    0.040377     0.05272   -0.040175   -0.037577    -0.04992
-0.059664   -0.030431    0.045249    0.016666   -0.038227   -0.036927   -0.047646
-0.068758   -0.034978    0.039727   -0.021986   -0.026209   -0.040825   -0.043423
-0.073955   -0.037577    0.025436   -0.058365  -0.0073698   -0.043099   -0.034978
-0.071682   -0.035953   0.0088706    -0.09182    0.012119   -0.041799    -0.02426
-0.061613   -0.033679  -0.0028225    -0.12722    0.024461   -0.039526   -0.013541
-0.041799   -0.032705   -0.007045    -0.16653     0.02706   -0.038227  -0.0044465
-0.021337   -0.032055  -0.0073698    -0.20518    0.021213   -0.034654  -0.0018481
-0.010943   -0.031081   -0.011917    -0.23961   0.0065969   -0.029782  -0.0031473
-0.014191   -0.031406   -0.019712    -0.26787   -0.010943    -0.03173  -0.0063954
-0.028807    -0.03303   -0.029457    -0.28703    -0.03173   -0.042124   -0.008669
-0.046347   -0.034978   -0.038227    -0.28378   -0.054467   -0.055116  -0.0080194
-0.057715   -0.035628   -0.042124    -0.24253   -0.072656   -0.064861  -0.0034721
-0.055116    -0.03173   -0.035628    -0.16685   -0.072331   -0.063561   0.0036737
-0.036278    -0.02361   -0.018738    -0.07493    -0.04992   -0.051219    0.011469
-0.011267   -0.013541   0.0026992   0.0062721   -0.018088    -0.03238     0.01764
0.009845  -0.0031473    0.020239    0.055968    0.011144   -0.016464    0.021213
0.020888   0.0056225    0.029983    0.062464    0.029009   -0.013216    0.019264
0.020564   0.0085458    0.031282     0.03583    0.034855   -0.021337    0.013418
0.01017   0.0085458    0.025436  -0.0073698    0.032582   -0.033354   0.0039985
-0.0096434   0.0046481    0.017965   -0.054142     0.02706   -0.042774  -0.0083442
-0.031081  -0.0018481    0.012443   -0.093769    0.022512   -0.044723   -0.024909
-0.043748  -0.0083442    0.012119    -0.12203    0.025111   -0.040825   -0.038227
-0.046347   -0.014191    0.017316    -0.13372    0.033881   -0.036278   -0.039526
-0.046022   -0.016789    0.025111     -0.1282      0.0433   -0.033354   -0.031081
-0.046347    -0.01614     0.03518    -0.11488    0.054019   -0.029782   -0.019712
-0.048296   -0.014516    0.040052    -0.10579    0.064088   -0.020362   -0.015165
-0.046347   -0.015165    0.033556    -0.10903    0.070584   -0.008669    -0.01614
-0.039201   -0.018738    0.015367    -0.12982    0.074157  0.00042559   -0.020037
-0.027833   -0.022961   -0.010618      -0.161    0.075131   0.0033489   -0.028482
-0.017439   -0.021012   -0.034329    -0.18439    0.072858      0.0014   -0.039201
-0.008669   -0.013866   -0.046996    -0.18407    0.063113  -0.0018481   -0.047646
-0.0028225  -0.0034721   -0.043099    -0.15353    0.042651  -0.0037969   -0.051544
-0.0028225   0.0043233   -0.024585   -0.092794    0.016016  -0.0054209   -0.050894
-0.007045   0.0085458   0.0062721   -0.010293    -0.01484   -0.007045   -0.046671
-0.0093186    0.013093    0.039727    0.076755   -0.043748  -0.0076946   -0.040175
-0.0067202     0.01764    0.063763     0.14724   -0.067784   -0.011267   -0.031406
-0.00054884    0.023812    0.076431     0.18946   -0.084024   -0.019063   -0.022311
0.0072465     0.02706     0.07708     0.19791   -0.091495   -0.027833    -0.01549
0.012119    0.026085     0.06896     0.17972   -0.093119   -0.034329   -0.012567
0.013093    0.022188    0.054993     0.14529   -0.088896   -0.039851   -0.015165
0.013093     0.01894    0.042001     0.10339   -0.079802   -0.042124   -0.020362
0.013418    0.017316    0.034206    0.061814   -0.067784   -0.039851   -0.027833
0.014717    0.015692    0.027385    0.021213   -0.055441    -0.03303   -0.032055
0.016666    0.012119    0.013743   -0.017764   -0.043423   -0.022636   -0.030106
0.016991   0.0065969   -0.008669   -0.053492   -0.034654  -0.0073698   -0.019388
0.01829  -0.0021729   -0.035628   -0.085648   -0.027833    0.014717  -0.0034721
0.022512   -0.012567   -0.063886    -0.11456   -0.024585    0.042975    0.013418
0.030957   -0.022961   -0.087922    -0.14184   -0.022636    0.071234    0.025436
0.038753    -0.03238    -0.10741    -0.16815   -0.018738    0.095269    0.030957
0.041676   -0.038227    -0.12463    -0.18764   -0.011917     0.11248     0.03453
0.038753    -0.04115    -0.13827    -0.19576  -0.0057458     0.12093    0.040377
0.038428    -0.04115    -0.14574    -0.18764 -0.00054884     0.12093    0.048497
0.040377   -0.039201    -0.14249    -0.17205    0.003024     0.11281    0.057917
0.041676   -0.037577    -0.12625    -0.15386   0.0056225    0.099817    0.062464
0.040377   -0.035953   -0.099615    -0.13534   0.0043233    0.081952    0.057592
0.037778    -0.03238   -0.070058    -0.11391   0.0036737    0.062464    0.040377
0.032906   -0.028157   -0.043099   -0.089546  0.00010078     0.04395    0.019589
0.024786   -0.022961   -0.022636   -0.067784  -0.0050961    0.027709  0.00010078
0.013418    -0.01614   -0.011267   -0.053492  -0.0093186    0.013743    -0.01549
0.0039985  -0.0099683  -0.0083442   -0.044723  -0.0089938   0.0052977   -0.025234
-0.00087364  -0.0057458  -0.0089938   -0.034004  -0.0057458   0.0049729   -0.028482
-0.0011985  -0.0054209  -0.0050961   -0.019712  -0.0037969    0.014392   -0.020687
-0.00087364  -0.0067202  0.00010078  -0.0050961  -0.0041217    0.024461   -0.007045
-0.0015233  -0.0093186   0.0046481   0.0059473  -0.0047713    0.032582   0.0046481
-0.0057458   -0.012567     0.01017    0.009845  -0.0057458     0.03518   0.0065969
-0.013216   -0.014516    0.015367    0.012443  -0.0034721    0.032582  0.00042559
-0.020687   -0.012892    0.017965    0.015367   0.0036737     0.02641  -0.0083442
-0.022636  -0.0083442    0.014068    0.019914    0.012443    0.020239   -0.011917
-0.019388 -0.00054884   0.0065969    0.022512    0.019589    0.015042   -0.010618
-0.01614   0.0043233   0.0020496    0.016991    0.023162    0.008221  -0.0067202
-0.01549   0.0039985   0.0036737   0.0026992    0.024137  0.00042559  -0.0021729
-0.017764   0.0026992    0.010495   -0.017439     0.02706   -0.012892 -0.00054884
-0.017439   0.0036737    0.016341   -0.037902    0.033231   -0.027508  -0.0031473
-0.014191    0.010819    0.019914   -0.058689    0.038428   -0.036927  -0.0099683
-0.014516    0.020564    0.020239   -0.084024    0.040702   -0.038876   -0.016464
-0.021012    0.028359    0.012119     -0.1204    0.042651   -0.036278   -0.018413
-0.033679    0.031607   -0.014191    -0.16977    0.048172   -0.032055    -0.01484
-0.045697    0.031607   -0.054792    -0.22791    0.061165   -0.028157   -0.008669
-0.054142    0.027709   -0.094418    -0.27988    0.080653    -0.02361  -0.0047713
-0.054467    0.021213     -0.1191    -0.29353    0.088773   -0.021337  -0.0028225
-0.047321    0.016666    -0.12268    -0.23603    0.074157   -0.023935 -0.00022403
-0.038876    0.013418    -0.10579   -0.097341    0.032257   -0.034978   0.0026992
-0.028482    0.009845   -0.069083    0.096244   -0.028807   -0.051219   0.0075714
-0.015165   0.0059473   -0.019063     0.29438   -0.096042    -0.06616    0.013093
0.00010078   0.0023744    0.032582     0.44541    -0.15581   -0.077853    0.021213
0.013743   0.0039985    0.079029     0.51914    -0.19901   -0.079477    0.029658
0.019914    0.013093     0.11443     0.51492    -0.22174   -0.070058    0.037129
0.01829    0.025111      0.1349     0.45386    -0.22629   -0.056091    0.039727
0.012443    0.032582     0.13717     0.36648    -0.21557   -0.044723    0.038428
0.0065969    0.034206     0.12288     0.28041    -0.19446   -0.040175    0.031607
0.0026992    0.030957     0.10014     0.21188     -0.1649   -0.042449     0.01829
0.00075039    0.026085     0.07773     0.16575     -0.1321   -0.043099 -0.00087364
-0.00054884    0.024461    0.058566      0.1362    -0.10286   -0.038876   -0.018088
-0.0034721    0.024786    0.040052     0.11054     -0.0824   -0.028157   -0.029457
-0.0083442    0.026735    0.023812      0.0852   -0.069408   -0.018088   -0.034654
-0.01614    0.026735    0.012443    0.062139   -0.058689  -0.0093186    -0.03238
-0.026533    0.025111   0.0033489    0.046548   -0.051219  -0.0037969   -0.020687
-0.033679    0.018615  -0.0028225     0.03518   -0.044723  -0.0050961  -0.0057458
-0.033354   0.0085458   -0.007045    0.023162   -0.036927   -0.012242   0.0056225
-0.028157 -0.00087364  -0.0073698   0.0095202   -0.027183   -0.025234   0.0085458
-0.022311  -0.0034721  -0.0054209  -0.0034721   -0.016464   -0.040175  0.00042559
-0.019063 -0.00054884  -0.0041217   -0.012242  -0.0060706   -0.050569   -0.011592
-0.017439   0.0046481  -0.0060706   -0.016464   0.0049729    -0.05739   -0.021337
-0.016464   0.0049729   -0.012242   -0.018738    0.014068   -0.059014   -0.022311
-0.011592 -0.00054884   -0.021337   -0.021986     0.01764   -0.052193   -0.013216
-0.0031473   -0.010293   -0.030106   -0.027183    0.012119   -0.039201   0.0010752
0.003024   -0.021012   -0.033679   -0.030431  0.00075039    -0.02426   0.0095202
0.0033489   -0.029782   -0.033679   -0.028157  -0.0083442   -0.011917    0.009845
-0.0031473   -0.034329   -0.028807   -0.021661  -0.0089938   -0.007045   0.0052977
-0.017439   -0.035953    -0.01614   -0.013866  -0.0037969  -0.0089938  -0.0050961
-0.03173   -0.030756  -0.0021729  -0.0080194   0.0020496   -0.014516   -0.017439
-0.037577   -0.023285   0.0078962  -0.0067202   0.0039985   -0.019712   -0.025234
-0.032055   -0.017764   0.0072465  -0.0080194   0.0046481   -0.027183   -0.024909
-0.017764   -0.014516  -0.0018481   -0.011267    0.010495   -0.037252   -0.016464
-0.0034721   -0.015815   -0.012567   -0.011592    0.019264    -0.04927  -0.0024977
0.0036737   -0.019063   -0.019388  -0.0096434    0.028034   -0.059989    0.013743
0.0010752   -0.021337   -0.022961  -0.0047713    0.033556   -0.064861    0.020888
-0.0096434   -0.018413   -0.022636   0.0020496    0.032582   -0.063886    0.013418
-0.021337   -0.014191   -0.020687   0.0091954    0.024786   -0.060963 -0.00087364
-0.026533   -0.010293   -0.017764    0.014068    0.017316   -0.059664   -0.010943
-0.019712  -0.0076946    -0.01549    0.013418    0.010495   -0.055766   -0.013866
-0.0015233  -0.0044465   -0.012892   0.0072465   0.0026992    -0.04992   -0.011917
0.021213   0.0023744   -0.012567   -0.007045  -0.0037969   -0.046996  -0.0076946
0.038753    0.012768   -0.011917   -0.031406  -0.0060706   -0.050569  -0.0063954
0.045249     0.01894   -0.010293   -0.073306  -0.0037969   -0.059339   -0.010293
0.036479     0.01764   -0.010293    -0.14022  0.00075039   -0.071032   -0.017114
0.020888   0.0091954   -0.013541    -0.23051   0.0033489   -0.082076   -0.020687
0.0065969  -0.0031473   -0.023285    -0.34387   0.0033489   -0.090521   -0.019712
0.0010752   -0.013541   -0.037577    -0.47087   0.0026992   -0.092145   -0.014516
0.0062721   -0.019063   -0.052843    -0.59397   0.0072465   -0.089546  -0.0099683
0.013743   -0.020362   -0.062912    -0.70181    0.019264     -0.0837  -0.0060706
0.01829    -0.01614   -0.069083    -0.77781     0.03453    -0.07428      0.0014
0.021538  -0.0083442   -0.074605    -0.79308    0.043625   -0.061288    0.013418
0.029658   0.0046481   -0.084024    -0.72519    0.045899   -0.044073    0.029009
0.038753    0.019914   -0.093769    -0.56636    0.049796   -0.022636    0.042975
0.049796     0.03583   -0.098641    -0.33672    0.063438 -0.00054884    0.051745
0.056942     0.04395   -0.094093   -0.078503    0.084551    0.016666    0.051096
0.054019    0.044924   -0.082725     0.15146    0.098193    0.024786    0.042651
0.041676    0.040377   -0.066485     0.32751    0.083901    0.025111    0.029009
0.024137    0.031932   -0.046347     0.47594    0.037129    0.019264    0.015367
0.011794    0.025761   -0.021661     0.64712   -0.032705   0.0085458   0.0075714
0.0049729    0.026085   0.0033489     0.84265    -0.11293  -0.0047713   0.0085458
0.0049729    0.032906    0.014392     0.99174    -0.18569    -0.01614    0.016016
0.013093    0.041676   0.0085458      1.0109    -0.23084   -0.022636    0.020888
0.029009    0.051745  -0.0063954     0.89722    -0.23279   -0.021986    0.019914
0.048172    0.063763   -0.014516     0.72637    -0.19381   -0.013541    0.017316
0.061814     0.07708   -0.007045     0.57566    -0.13502  -0.0011985    0.016016
0.063763    0.084876    0.012768     0.47887   -0.084999   0.0049729    0.015367
0.054019    0.082277    0.033881     0.43209   -0.063237   0.0033489    0.012443
0.03583    0.069285     0.04395     0.41553    -0.07428  -0.0050961   0.0088706
0.012768    0.048822    0.039078     0.40286    -0.10254   -0.014191   0.0049729
-0.011917    0.030308    0.020239     0.36973     -0.1282   -0.021337   0.0026992
-0.031081    0.015692  -0.0060706     0.30867    -0.13664   -0.024585   0.0020496
-0.037577    0.008221    -0.03238     0.23136    -0.12138   -0.026209      0.0014
-0.03303   0.0069217   -0.054792     0.15893   -0.091495   -0.031081  0.00042559
-0.025234    0.010819   -0.067459     0.10371   -0.060963   -0.038227  -0.0015233
-0.024585    0.011469   -0.072981     0.05207   -0.040825   -0.042124  -0.0057458
-0.029457   0.0062721   -0.078178    -0.01614   -0.031081   -0.042124   -0.012892
-0.034329      0.0014   -0.080776    -0.10059   -0.026209   -0.038551   -0.023285
-0.036278   0.0020496   -0.073306    -0.17822   -0.022311   -0.035303   -0.037902
-0.035953     0.01017   -0.046671    -0.22077    -0.01614   -0.030106   -0.050569
-0.033679    0.020239  -0.0057458    -0.21622  -0.0089938   -0.020687   -0.059664
-0.028807    0.026085    0.039078    -0.17465  -0.0047713  -0.0093186    -0.06551
-0.023935    0.024137    0.072208    -0.12398  -0.0047713   0.0017248   -0.068434
-0.021986    0.013093    0.080653   -0.093769  -0.0093186   0.0095202   -0.067134
-0.022311  -0.0028225    0.063113    -0.10903   -0.019712    0.011794   -0.060313
-0.021337   -0.017764    0.030308    -0.18017   -0.030431    0.013743   -0.051219
-0.019063   -0.027833  -0.0063954     -0.2958   -0.038227    0.014717   -0.045047
-0.020037   -0.035953   -0.043099    -0.42832   -0.040825    0.013093     -0.0405
-0.022961   -0.043423   -0.070707     -0.5446   -0.039851    0.010819   -0.035953
-0.025884   -0.049595   -0.084674    -0.60891     -0.0405   0.0085458   -0.035628
-0.029132   -0.051544    -0.08305    -0.61314   -0.042124   0.0072465   -0.037252
-0.027833    -0.04862   -0.070058    -0.57351   -0.042774   0.0072465   -0.039526
-0.018738    -0.04115    -0.04927    -0.50855   -0.035303    0.011144   -0.038227
-0.0073698   -0.030431   -0.019063    -0.41825   -0.017114    0.016991   -0.034004
0.0069217   -0.013866    0.021863    -0.28573    0.015042    0.029983   -0.027833
0.02706   0.0052977    0.065062     -0.0824    0.056292    0.048172   -0.020362
0.049796    0.020239    0.097868     0.17842    0.092996    0.066362   -0.010293
0.062464    0.028034     0.11021     0.42397     0.11248    0.078379   0.0036737
0.058241    0.026735     0.10436     0.57923     0.10566    0.081952    0.015042
0.041027     0.01829    0.082277     0.61204     0.07708    0.076755    0.015692
0.016991   0.0072465    0.053369     0.53701    0.037454    0.060515   0.0059473
-0.008669  -0.0060706    0.027385     0.39864 -0.00054884    0.035505  -0.0089938
-0.034654   -0.016464   0.0088706     0.24436   -0.020362    0.008221   -0.021337
-0.05804   -0.025559   0.0023744     0.11476   -0.019712   -0.013541   -0.029457
-0.076879   -0.030106   0.0072465    0.034206  -0.0044465   -0.025884   -0.031081
-0.085973   -0.034004    0.021213  0.00010078    0.016016   -0.033679    -0.03303
-0.087272   -0.038551    0.037454  -0.0050961    0.032582   -0.043099   -0.032705
-0.081751   -0.042124    0.048497   0.0023744    0.039402   -0.055116    -0.03303
-0.071682   -0.040825    0.058241    0.013418    0.040377    -0.06551   -0.035953
-0.062912   -0.036278    0.067661    0.024786    0.041351   -0.070058   -0.044073
-0.058365   -0.031081    0.071234    0.034855    0.048497   -0.063886   -0.057715
-0.054792   -0.022961    0.064413    0.041676    0.063763    -0.04862   -0.067134
-0.047646   -0.015165    0.050771    0.047847    0.086824   -0.028482   -0.064536
-0.033679   -0.011592    0.033881    0.057592     0.10534  -0.0044465   -0.046022
-0.015165   -0.013866    0.013093     0.06084     0.10014    0.020888   -0.014516
0.0033489   -0.023935   -0.017114    0.030957    0.059541    0.043625    0.023162
0.016666   -0.035953   -0.054142   -0.057715  -0.0050961    0.061489    0.055643
0.01764   -0.046022   -0.093769     -0.2029   -0.064861    0.072858    0.072208
0.0088706   -0.050244     -0.1256    -0.36661   -0.095393    0.075456    0.074482
-0.0028225   -0.049595    -0.14476    -0.49978   -0.088247    0.071558    0.067661
-0.011267   -0.046996    -0.14769    -0.56734   -0.052518    0.063113    0.061814
-0.016789   -0.045697    -0.13469    -0.55759  -0.0080194    0.054019    0.056292
-0.02426   -0.047971    -0.10838    -0.48094    0.028034     0.04395    0.048822
-0.035628   -0.050894   -0.076554    -0.36596    0.044924    0.027385    0.036154
-0.045372   -0.052193   -0.044073    -0.25195    0.044924   0.0085458    0.021213
-0.045372   -0.053492   -0.019063    -0.16555    0.034855  -0.0096434   0.0072465
-0.036278   -0.053492  -0.0047713    -0.11975    0.021863   -0.019712  -0.0015233
-0.019063   -0.050894   0.0023744    -0.11391    0.010495   -0.018413  -0.0015233
-0.0021729   -0.043099   0.0033489    -0.14379   0.0039985   -0.011592   0.0059473
0.008221   -0.034978  -0.0031473    -0.18926   0.0026992  -0.0080194     0.01764
0.010495   -0.028157   -0.012892    -0.22661   0.0039985   -0.010943    0.028034
0.0072465   -0.022311   -0.017114    -0.23993    0.010819   -0.021337    0.033556
0.0017248   -0.018738   -0.010293    -0.22272    0.021213   -0.035628    0.031932
-0.0047713   -0.020362   0.0039985    -0.18017    0.028684   -0.048945    0.021213
-0.011592   -0.029782    0.018615    -0.12235     0.02641   -0.054792   0.0075714
-0.017439   -0.040175    0.029983   -0.058365    0.016341   -0.051544  -0.0037969
-0.019063   -0.045047    0.037129   -0.011917   0.0056225   -0.044398  -0.0067202
-0.015815   -0.034978    0.033881  -0.0057458   0.0075714   -0.035628      0.0014
-0.0041217   -0.013541    0.016991    -0.04862    0.025436   -0.029457    0.014392
0.012443    0.013093   -0.012242    -0.10806    0.046223   -0.030756    0.022837
0.023162    0.034206   -0.045047    -0.13047    0.048822    -0.04115    0.020564
0.022837    0.041676   -0.064861   -0.075579    0.026735   -0.055116   0.0095202
0.012443    0.034855    -0.06681    0.056292   -0.016464   -0.068434  -0.0018481
-0.0028225    0.017316   -0.053817     0.21772   -0.063561    -0.07493   -0.013216
-0.012567  -0.0028225    -0.03303      0.3418    -0.10059   -0.073631   -0.020362
-0.012567   -0.019388   -0.011267     0.38305    -0.11618   -0.064211   -0.018413
-0.0041217   -0.027508  -0.0031473     0.33433    -0.11131   -0.045047  -0.0034721
0.008221   -0.025559   -0.011592     0.22065   -0.092145    -0.01549    0.020564
0.023487    -0.01614   -0.030431    0.087474   -0.068434    0.016341    0.045249
0.038428  -0.0047713   -0.053168   -0.023935   -0.047971    0.039727    0.065712
0.045899   0.0023744   -0.070707   -0.095068   -0.035953    0.051745    0.076106
0.039727   0.0010752   -0.080451    -0.11845   -0.027508     0.05207    0.072533
0.022188  -0.0037969   -0.079802    -0.09994   -0.020687    0.044275    0.057917
0.0033489   -0.007045   -0.068434   -0.053817   -0.014191    0.030957    0.042651
-0.011592  -0.0028225   -0.051868  -0.0018481  -0.0057458    0.013743    0.032582
-0.017764   0.0075714   -0.031081    0.044275   0.0052977  -0.0015233    0.026085
-0.014191     0.01894   -0.012242    0.081627    0.015367   -0.013216    0.019589
-0.007045    0.028034   0.0010752     0.11768    0.023162   -0.023935    0.011469
-0.0024977    0.031932   0.0072465     0.15828    0.026085   -0.034654  -0.0011985
-0.0080194    0.029658    0.008221     0.19888    0.021538   -0.045047   -0.015815
-0.018413    0.020888   0.0039985     0.23266     0.01017   -0.054792   -0.029782
-0.026209    0.011794  -0.0024977      0.2502  -0.0044465    -0.06551   -0.041799
-0.029132   0.0039985  -0.0037969     0.24533   -0.020037   -0.075579   -0.049595
-0.029457  -0.0018481   0.0065969     0.21902   -0.036278   -0.087597   -0.053817
-0.028807  -0.0057458    0.023162     0.18004   -0.050569   -0.094093   -0.053492
-0.028482  -0.0089938    0.038753     0.13977   -0.061937   -0.092145    -0.04862
-0.029132   -0.012892    0.046223     0.10956   -0.068758     -0.0824   -0.038551
-0.030431   -0.013541    0.047847    0.092671   -0.074605   -0.069408   -0.031406
-0.03303  -0.0096434    0.042326    0.088773   -0.079802   -0.060638   -0.031406
-0.035628 -0.00054884    0.030633    0.090072   -0.080776   -0.056091   -0.039851
-0.034654   0.0075714     0.01894    0.092671   -0.073306   -0.056091   -0.048945
-0.030756    0.012443    0.011144    0.092671   -0.058365   -0.057715   -0.053492
-0.027183    0.014392    0.011469    0.091696   -0.042774    -0.05739   -0.051544
-0.023285    0.015367    0.020564    0.092671   -0.033679   -0.056416    -0.04115
-0.016789    0.016666    0.036154    0.096893   -0.033679   -0.050244   -0.029782
-0.007045    0.019589    0.049796     0.10047   -0.038551   -0.039851    -0.02361
0.0014    0.025436    0.056942    0.097868     -0.0405   -0.029457   -0.023285
0.0043233     0.03453    0.055968    0.088124   -0.041475   -0.025234   -0.025884
0.0010752    0.044275    0.048497    0.074157   -0.042449   -0.027508   -0.026858
-0.007045    0.048172    0.039078    0.058241   -0.045372   -0.033354   -0.025559
-0.018088    0.044599    0.028359    0.042651   -0.046022   -0.036927    -0.02361
-0.026209    0.036804    0.018615    0.029658   -0.041475   -0.037252   -0.023285
-0.030431    0.026735    0.013093    0.019589   -0.030106   -0.038227   -0.023935
-0.029132    0.016016   0.0095202    0.013743    -0.01549   -0.039526   -0.024585
-0.022311   0.0049729   0.0091954     0.01017  -0.0057458   -0.040175    -0.02361
-0.012892  -0.0037969     0.01017   0.0059473  -0.0034721   -0.038551   -0.022311
-0.0054209  -0.0076946    0.010495  -0.0041217  -0.0050961   -0.034654   -0.020037
-0.00087364  -0.0067202   0.0088706   -0.023935  -0.0047713   -0.029132    -0.01549
0.0014  -0.0015233   0.0033489   -0.053492  -0.0011985   -0.021012  -0.0076946
0.0023744   0.0056225  -0.0037969   -0.087597   0.0085458   -0.011592  -0.0044465
0.0020496    0.013418   -0.010293    -0.11066    0.019914  -0.0037969  -0.0028225
-0.00022403     0.01829   -0.013216    -0.10514     0.02641  0.00075039  -0.0034721
-0.0057458    0.017965   -0.010618    -0.06551    0.020564      0.0014  -0.0037969
-0.011917    0.012443  0.00042559  0.00042559    0.003024  -0.0024977  -0.0067202
-0.011917   0.0056225    0.014717    0.072533   -0.020037  -0.0060706   -0.012892
-0.0073698  -0.0015233    0.023812     0.12872    -0.04115  -0.0057458   -0.017114
-0.0024977  -0.0073698    0.028359     0.15958   -0.058689  -0.0047713   -0.012567
-0.00054884   -0.008669    0.030308     0.16445   -0.069408  -0.0050961  -0.0028225
-0.00054884  -0.0041217    0.033556     0.15081   -0.072981  -0.0031473   0.0062721
-0.00087364   0.0046481     0.03453     0.12353   -0.067784  0.00042559   0.0088706
0.0010752    0.012443    0.031282    0.091372   -0.063886   0.0039985   0.0052977
0.0043233    0.017316    0.021538    0.059216   -0.065835   0.0059473  -0.0021729
0.0039985    0.016666   0.0065969    0.032257   -0.071682   0.0052977  -0.0096434
-0.0034721    0.010819  -0.0096434    0.012443    -0.07493   0.0010752    -0.01549
-0.012892  0.00010078   -0.023285  -0.0041217   -0.070058  -0.0054209   -0.021012
-0.017764   -0.014191   -0.028482   -0.024909   -0.055766   -0.012567    -0.02426
-0.01484   -0.026858   -0.022961    -0.04862   -0.038876   -0.018088    -0.02426
-0.0063954    -0.03303   -0.016789   -0.068434   -0.025234   -0.020037   -0.019063
-0.00022403   -0.033679    -0.01549   -0.081426   -0.020362   -0.021986  -0.0089938
0.0043233   -0.028807   -0.019712   -0.086948   -0.021986   -0.025559 -0.00022403
0.0039985   -0.018413   -0.025559    -0.09117   -0.020687   -0.029457   0.0046481
0.0026992  -0.0060706   -0.031081    -0.10091   -0.011917   -0.028482    0.008221
0.0039985   0.0039985   -0.040825    -0.12138   0.0046481   -0.019712    0.011794
0.010495    0.010495   -0.055116    -0.15158    0.026735  -0.0047713    0.017965
0.021213    0.012119   -0.070707    -0.18179    0.049472   0.0075714    0.024137
0.028034    0.011144   -0.081751    -0.19576    0.063113    0.012443    0.026735
0.025436     0.01017   -0.080776    -0.18017     0.06084   0.0078962    0.025436
0.01764    0.011469   -0.065835    -0.12885    0.040702  -0.0054209    0.022512
0.0091954    0.014392     -0.0405   -0.043423   0.0095202   -0.018413    0.019264
0.0014    0.018615   -0.012242    0.063113   -0.024909   -0.025884    0.019589
-0.00087364    0.021538    0.010819      0.1625   -0.056416   -0.030431    0.022188
-0.0024977    0.021213    0.029333     0.22941   -0.079802    -0.03238     0.02706
-0.0037969    0.019589    0.040052     0.25183   -0.095717   -0.030756    0.029658
-0.0063954    0.016991    0.045574     0.23396    -0.10156   -0.025234    0.028359
-0.0063954    0.015367    0.045249     0.19044   -0.096367   -0.019063    0.025436
-0.0018481    0.013743    0.040702     0.14172   -0.081751   -0.013541    0.022188
0.0069217    0.012443    0.031932    0.098517   -0.061288  -0.0093186    0.017965
0.013743    0.008221    0.018615    0.063438   -0.039851   -0.008669    0.012443
0.019589   0.0056225   0.0069217    0.036804   -0.021986   -0.013541   0.0085458
0.025761   0.0036737  0.00042559    0.015367   -0.015165   -0.022311   0.0059473
0.029658   0.0036737  -0.0034721  -0.0034721   -0.018738   -0.030106   0.0046481
0.029333   0.0059473   -0.007045   -0.020037   -0.028157   -0.035303   0.0036737
0.024461   0.0078962  -0.0093186   -0.038227   -0.034654   -0.033679   0.0033489
0.015692    0.011144   -0.014191   -0.061613   -0.033354   -0.026533   0.0049729
0.0078962    0.015042   -0.022636   -0.086623   -0.027833   -0.019388   0.0065969
0.0056225    0.016666   -0.032705    -0.10968   -0.020687   -0.013866   0.0065969
0.0072465    0.013743   -0.043423    -0.12755   -0.014191  -0.0073698   0.0069217
0.0049729   0.0072465   -0.051219    -0.14346  -0.0093186  -0.0011985   0.0059473
-0.00054884  -0.0031473   -0.052843    -0.15483  -0.0060706   0.0052977   0.0020496
-0.0054209   -0.012892   -0.046347    -0.15678  -0.0083442    0.008221  -0.0018481
-0.0080194   -0.019712   -0.037252    -0.15126    -0.01549   0.0043233  -0.0037969
-0.008669   -0.021986   -0.035303    -0.15061    -0.02361  -0.0034721  -0.0024977
-0.0093186   -0.022636   -0.043099    -0.16653    -0.02426  -0.0089938  -0.0031473
-0.008669    -0.02361   -0.055766    -0.19673    -0.01549  -0.0080194  -0.0099683
-0.0047713   -0.022636   -0.064536    -0.21687  -0.0034721  -0.0044465   -0.020037
-0.0011985   -0.019063   -0.064861    -0.19998  -0.0011985  0.00042559   -0.025559
-0.0024977    -0.01484    -0.05804    -0.12527   -0.019388   0.0010752   -0.024585
-0.008669   -0.012567    -0.04115  0.00042559    -0.05804  -0.0063954   -0.020687
-0.019712   -0.012892   -0.019388     0.14269    -0.10026   -0.017764   -0.018738
-0.03173    -0.01614  -0.0011985     0.25735    -0.12722   -0.023285   -0.013541
-0.038551   -0.015165     0.01017     0.31516    -0.13015   -0.019388  -0.0031473
-0.035953  -0.0073698    0.012443     0.30607    -0.11293  -0.0067202    0.010819
-0.021661   0.0062721   0.0036737     0.24143   -0.088247   0.0059473    0.025436
0.00042559    0.019914   -0.011592     0.14464   -0.063886    0.018615     0.03453
0.024137    0.029658   -0.027833    0.048172    -0.04115    0.029333     0.03583
0.037454    0.029009   -0.041799   -0.023935   -0.024585    0.037129    0.031932
0.036154    0.019914   -0.051219   -0.061288    -0.01484    0.037778    0.026085
0.024137   0.0088706   -0.057065   -0.067134  -0.0050961    0.030957    0.021213
0.01017  0.00042559   -0.061937   -0.056416    0.011469    0.021863    0.019264
0.00010078  -0.0037969   -0.070058   -0.043099    0.039402    0.015042    0.016341
-0.0034721  -0.0034721   -0.080127   -0.034329    0.072208    0.014068    0.013418
-0.0034721  -0.0015233   -0.085648   -0.025884    0.096569    0.017316     0.01017
-0.0011985  0.00075039   -0.080776    -0.01614     0.10566     0.01894   0.0075714
0.00010078   0.0023744   -0.067134  -0.0080194    0.096569    0.013093    0.003024
0.00042559   0.0033489   -0.044073  -0.0080194     0.07708      0.0014  -0.0028225
-0.00022403   0.0043233   -0.019388   -0.016464    0.054344   -0.008669  -0.0080194
-0.0018481   0.0059473  -0.0021729   -0.027183    0.037778   -0.015165   -0.011267
-0.0031473   0.0056225   0.0036737   -0.036278    0.029009   -0.017764   -0.014191
-0.0073698   0.0062721   0.0017248   -0.046996    0.029658   -0.022311   -0.017114
-0.011267   0.0088706  -0.0024977   -0.057065    0.031282   -0.027183   -0.017764
-0.014516    0.012768  -0.0050961   -0.062912    0.028359   -0.033354   -0.015815
-0.015815    0.014392  -0.0047713   -0.061937    0.019589   -0.034329   -0.010943
-0.016789    0.016016  -0.0031473   -0.057065     0.01017   -0.029132  -0.0073698
-0.019388    0.017316 -0.00022403   -0.053168   0.0056225   -0.022311  -0.0057458
-0.021012    0.016341   0.0017248   -0.052843    0.008221    -0.01614  -0.0063954
-0.017764    0.011469   0.0017248   -0.055766    0.014392   -0.013541   -0.010618
-0.011917   0.0075714 -0.00054884   -0.059014    0.022188  -0.0089938   -0.015815
-0.0073698   0.0062721  -0.0047713   -0.055766    0.030957  0.00042559   -0.018088
-0.0063954    0.011144  -0.0076946   -0.035953    0.039078    0.010819   -0.018088
-0.0093186    0.015042  -0.0076946   -0.008669    0.038428     0.01894   -0.017114
-0.014516    0.012443  -0.0028225   0.0095202    0.018615    0.020888   -0.020362
-0.018738   0.0043233  0.00010078  -0.0018481   -0.018413    0.017965   -0.026209
-0.022636  -0.0034721  -0.0011985   -0.046022   -0.059014    0.008221   -0.027508
-0.026209   -0.007045  -0.0054209    -0.10579   -0.087597  -0.0080194   -0.024585
-0.030431   -0.007045  -0.0080194    -0.15581   -0.097991   -0.024909   -0.022636
-0.035628  -0.0041217  -0.0057458    -0.17562   -0.092469   -0.039526   -0.028807
-0.038551  -0.0024977      0.0014     -0.1597   -0.079477   -0.050894   -0.039851
-0.036278  -0.0050961    0.009845    -0.11651   -0.062912   -0.062587   -0.050569
-0.029457   -0.010618    0.014392   -0.064861   -0.046996   -0.071032    -0.05804
-0.021337   -0.017114    0.013743   -0.023285   -0.034004   -0.073631   -0.062262
-0.011267   -0.023935    0.008221  -0.0047713   -0.025559   -0.068109   -0.062912
0.00075039   -0.027183  -0.0018481   -0.012892   -0.017439   -0.055116   -0.062912
0.0088706   -0.027833   -0.011267   -0.034978   -0.014191   -0.039526   -0.062587
0.011794   -0.026858   -0.016789   -0.056091   -0.017764   -0.021012   -0.057715
0.0091954   -0.027183   -0.025559   -0.076229   -0.028807  -0.0054209    -0.04927
-0.00054884   -0.031081   -0.045697    -0.09182   -0.046022   0.0039985   -0.038876
-0.01614   -0.036602   -0.069408   -0.088247   -0.062587   0.0049729   -0.029132
-0.029132   -0.037252   -0.081426   -0.041799   -0.071032  -0.0037969   -0.022636
-0.036927   -0.030106    -0.06616    0.046548   -0.073631   -0.020687   -0.019388
-0.036278   -0.012892   -0.020037     0.15373   -0.074605   -0.036927   -0.016464
-0.027833   0.0095202    0.041027     0.25215   -0.076229   -0.043423   -0.010618
-0.01614     0.02706    0.093321     0.32069    -0.07428   -0.037577  -0.0037969
-0.0067202    0.032582     0.11768     0.34732   -0.071357   -0.025559  -0.0011985
-0.0024977    0.023162     0.11248     0.32946   -0.070707   -0.012567  -0.0021729
-0.0021729   0.0062721    0.088448     0.28073   -0.071032  -0.0024977  -0.0060706
-0.0011985  -0.0083442    0.062789     0.21415   -0.070707   0.0069217  -0.0050961
0.00042559   -0.013866    0.048497     0.14496   -0.067134    0.015042   0.0026992
0.0010752  -0.0076946    0.047523    0.084551   -0.062587    0.016991    0.014717
0.0014    0.003024    0.054019    0.037778    -0.05804    0.012443    0.021538
-0.0011985   0.0095202    0.059216   0.0072465   -0.057065   0.0036737    0.019914
-0.0076946   0.0095202    0.057917  -0.0018481   -0.054792  -0.0050961    0.011144
-0.018088   0.0039985    0.046223   0.0065969   -0.046671   -0.012892  -0.0034721
-0.030106  -0.0037969     0.02706    0.025111   -0.035303   -0.018413    -0.01484
-0.037577   -0.012567   0.0078962    0.050121   -0.025559   -0.021986   -0.019712
-0.039201   -0.020037  -0.0076946    0.080003   -0.017114   -0.022311    -0.01549
-0.035303   -0.027508    -0.02426    0.093645   -0.007045   -0.018088  -0.0037969
-0.027833   -0.035953   -0.044723    0.054668   0.0065969   -0.013216   0.0062721
-0.01484   -0.039851   -0.071357   -0.058689    0.024786  -0.0054209    0.014717
0.0043233   -0.036278   -0.097017    -0.21265    0.050446      0.0014    0.023487
0.028359   -0.021661    -0.10774    -0.33543    0.089748   0.0052977     0.03518
0.046548 -0.00054884    -0.09929    -0.38577     0.13295   0.0085458    0.049472
0.056942    0.019264   -0.070382    -0.37505     0.16185    0.010495    0.063113
0.056292    0.030308   -0.030756    -0.34127     0.16868    0.008221    0.073182
0.044599    0.026735   0.0056225    -0.31594     0.15373   0.0010752    0.074157
0.027385    0.011144    0.025436    -0.32081     0.12743   -0.010943    0.066362
0.0085458  -0.0083442    0.021213    -0.35751     0.10209   -0.025234    0.052395
-0.0080194    -0.02426  -0.0050961     -0.4124    0.087474   -0.038227    0.039078
-0.020362   -0.032705   -0.040825    -0.46405    0.083251   -0.046671     0.02706
-0.026533   -0.030431   -0.065835    -0.47087    0.080653   -0.057065    0.009845
-0.026533   -0.017764   -0.060313    -0.39292    0.067661   -0.076229   -0.012892
-0.018413   0.0052977   -0.019063     -0.2159    0.032257    -0.10611   -0.035953
-0.0021729    0.036154    0.048497    0.029983   -0.018738    -0.14054   -0.057065
0.018615    0.066686     0.11963     0.28691   -0.072656    -0.16653   -0.071032
0.038103    0.088448      0.1729     0.49316     -0.1178    -0.17335    -0.07493
0.050121    0.098842     0.19304     0.60879    -0.14996    -0.15776   -0.066485
0.054019    0.097218     0.17355      0.6286     -0.1662     -0.1243   -0.046671
0.05142    0.081303     0.12093     0.58021    -0.17075   -0.084999   -0.017764
0.044924    0.051745    0.049147     0.50713    -0.17594   -0.045697    0.012443
0.034855    0.012443   -0.025884     0.44346    -0.18764   -0.013216    0.036479
0.020564   -0.030756   -0.094743     0.40124    -0.20258    0.013418     0.05272
0.0078962   -0.067459    -0.14509     0.37201    -0.20583    0.033231    0.061814
-0.0044465   -0.090521    -0.16912      0.3392    -0.18991    0.046223    0.064413
-0.01484   -0.096692    -0.16523     0.29275    -0.15516    0.050446    0.057917
-0.020037   -0.089221    -0.13957     0.23331    -0.11196    0.045574     0.04395
-0.017439    -0.07493    -0.10676     0.16673   -0.070707    0.032582    0.025111
-0.012567   -0.060638   -0.080127     0.10306   -0.037577    0.015692   0.0059473
-0.0093186   -0.050569   -0.059339    0.049147    -0.01484   0.0023744  -0.0073698
-0.012892   -0.043423   -0.041475    0.008221  -0.0024977  -0.0060706   -0.013216
-0.018413   -0.035303   -0.028807   -0.021012  -0.0021729   -0.010293   -0.010618
-0.021661   -0.024585   -0.023285   -0.042449   -0.007045   -0.011592  -0.0021729
-0.018088   -0.013216   -0.025559   -0.061613   -0.012567   -0.007045    0.010819
-0.0083442  -0.0073698   -0.036278   -0.084024   -0.017439   0.0020496    0.023812
0.0052977  -0.0057458   -0.050569    -0.10449   -0.019388    0.009845     0.03453
0.019264  -0.0073698   -0.061937     -0.1191   -0.013866    0.013743    0.039078
0.032906  -0.0096434   -0.067459     -0.1295  0.00042559    0.015042    0.037454
0.04395   -0.010943   -0.063886    -0.13632    0.017965    0.014068    0.031607
0.049472   -0.011267   -0.052518    -0.13729    0.036479   0.0088706    0.026085
0.045899   -0.010943   -0.039201     -0.1321     0.05142 -0.00054884    0.023162
0.03583   -0.014516   -0.030431    -0.12235    0.061814   -0.013541    0.021863
0.019264   -0.019063   -0.026209    -0.10903    0.065387   -0.025559    0.021538
0.0010752   -0.026533   -0.022311   -0.095717    0.058891    -0.03303    0.020239
-0.014191   -0.032055   -0.019063   -0.086623    0.042326   -0.034004    0.014717
-0.024585   -0.034329   -0.014191   -0.080127    0.021538   -0.027183   0.0043233
-0.03238   -0.035953   -0.008669   -0.073306 -0.00054884   -0.020037  -0.0093186
-0.040825   -0.039526  -0.0060706   -0.064536   -0.015165   -0.017764   -0.018738
-0.046022   -0.043099   -0.007045   -0.054467   -0.018088   -0.021012   -0.020037
-0.047971   -0.046996  -0.0063954   -0.043099   -0.010293   -0.029132   -0.016464
-0.045372   -0.050894  -0.0021729    -0.03238   0.0036737   -0.034978   -0.015815
-0.039851   -0.052193    0.009845   -0.020362    0.017316   -0.036278   -0.020687
-0.034654   -0.047971     0.02706   -0.013216     0.02641   -0.034654   -0.030756
-0.027833   -0.033679    0.043625   -0.010618    0.031607   -0.030756     -0.0405
-0.021012   -0.013541    0.055643   -0.007045    0.037454   -0.024585   -0.044398
-0.018738   0.0036737    0.063113  -0.0018481    0.046873    -0.01484   -0.037902
-0.023285    0.011794    0.065062   0.0065969    0.057917  -0.0067202   -0.024909
-0.031081   0.0095202    0.059865    0.012768    0.063113 -0.00087364   -0.010618
-0.035628   0.0020496    0.050446    0.016991    0.055318   0.0026992 -0.00054884
-0.034004  -0.0060706    0.038753    0.019914    0.042001   0.0059473   0.0010752
-0.031081   -0.011592    0.029009    0.022837    0.029009   0.0072465   -0.007045
-0.032055   -0.012892    0.020888    0.024461    0.022512   0.0049729   -0.020037
-0.036927  -0.0093186    0.017965    0.025436    0.023162   -0.007045   -0.034978
-0.043099  -0.0018481    0.019264    0.024786     0.02641    -0.02361   -0.044398
-0.047321   0.0056225    0.025436    0.024137    0.029009   -0.035303   -0.045697
-0.045372    0.010495    0.034206    0.021213    0.028684   -0.035628   -0.040825
-0.039201    0.014068    0.040052    0.021538    0.024137   -0.025559   -0.031406
-0.03303    0.015367    0.042975    0.023162    0.017965    -0.01549    -0.02361
-0.028482    0.016016    0.041027    0.022512    0.013743   -0.012892   -0.020687
-0.029782    0.014392    0.033231     0.01764    0.012119   -0.016789   -0.021986
-0.033679    0.012119    0.022188    0.015692    0.011144   -0.022961   -0.026209
-0.035628    0.010495    0.012119    0.026735   0.0039985    -0.03303   -0.032055
-0.03238   0.0095202   0.0043233    0.047198   -0.011917   -0.046347   -0.040175
-0.027183    0.008221  -0.0034721    0.062464   -0.035953   -0.057065   -0.047971
-0.022311   0.0059473   -0.013541    0.053044   -0.062587   -0.062912   -0.054792
-0.018088    0.003024   -0.027508    0.016016   -0.079477   -0.059989   -0.057715
-0.013541   0.0023744   -0.044398   -0.051868   -0.081101   -0.046347   -0.053168
-0.0054209   0.0072465   -0.060963    -0.15223   -0.068434   -0.028807    -0.04115
0.0049729    0.017316   -0.073955    -0.28703    -0.04992   -0.012567   -0.026858
0.015042    0.030633   -0.086298    -0.45723   -0.038227  -0.0047713   -0.013866
0.022512    0.042651   -0.096692    -0.64724   -0.037577  -0.0024977  -0.0015233
0.026085    0.048822    -0.10091    -0.82751   -0.045047  -0.0044465   0.0078962
0.026735     0.04395   -0.096042    -0.94834   -0.051868   -0.010293    0.016666
0.02706    0.030308   -0.087272     -0.9675   -0.055766   -0.018088    0.021538
0.02706    0.014717    -0.07428    -0.86096   -0.059014   -0.028482    0.015692
0.022188  0.00042559    -0.05739    -0.61314   -0.059664   -0.039526  0.00010078
0.011794  -0.0054209   -0.032705    -0.22369   -0.054142   -0.048296    -0.01484
-0.0054209  0.00075039  0.00075039     0.26449   -0.038876   -0.050894   -0.022961
-0.02426    0.015042    0.041027      0.7634   -0.014516   -0.048296   -0.022636
-0.037252    0.031607    0.081952      1.1707    0.010819    -0.04115   -0.015815
-0.045372    0.042001     0.11151      1.3951    0.028034   -0.032705  -0.0099683
-0.051868    0.042651     0.12288      1.4013    0.027385   -0.026533   -0.008669
-0.052843    0.036804     0.11281      1.2256   0.0088706   -0.025234   -0.012567
-0.045697    0.028034    0.088448     0.94724    -0.01614   -0.021661   -0.019063
-0.033354    0.017965    0.058891     0.64972   -0.034654   -0.012892   -0.021337
-0.021661    0.011469    0.032257     0.39799   -0.040175   0.0010752   -0.015165
-0.014516   0.0072465    0.012119     0.22357   -0.038227    0.014392  -0.0044465
-0.013541   0.0049729   0.0026992     0.12353   -0.030431    0.019589   0.0020496
-0.018413   0.0056225 -0.00022403    0.075456   -0.020687    0.015042  0.00075039
-0.024909   0.0078962  -0.0011985    0.050771   -0.010943   0.0065969  -0.0018481
-0.028157    0.011794 -0.00022403    0.032257  -0.0011985    0.003024  -0.0018481
-0.024585    0.016666   0.0023744    0.013743   0.0062721   0.0069217   0.0020496
-0.019388    0.019589   0.0056225   -0.007045   0.0065969    0.014717   0.0039985
-0.012892    0.018615    0.012768   -0.029132 -0.00054884    0.020888  0.00075039
-0.010293    0.016341    0.020888   -0.048945   -0.011267    0.023487  -0.0076946
-0.011267    0.016991    0.033231   -0.065835   -0.021337    0.019589   -0.019063
-0.01484    0.020564      0.0433   -0.078503    -0.02426    0.012119   -0.030756
-0.019712    0.025111    0.045899   -0.084349   -0.021337   0.0052977   -0.037252
-0.023285     0.02706    0.036804   -0.087922   -0.014516      0.0014   -0.035953
-0.022961    0.027385     0.01894    -0.09117   -0.010293 -0.00022403   -0.029132
-0.020037    0.022837 -0.00054884   -0.095068   -0.012567 -0.00022403   -0.021661
-0.018088    0.014068    -0.01614    -0.10254   -0.022311  -0.0018481   -0.016789
-0.019388   0.0049729   -0.024909    -0.11293   -0.034654  -0.0083442   -0.012567
-0.016464  -0.0050961   -0.027833      -0.123   -0.046671   -0.017439  -0.0063954
-0.008669   -0.011267   -0.024585     -0.1269   -0.051544   -0.025234   0.0010752
0.0014    -0.01614   -0.020687    -0.12008   -0.045047   -0.026858   0.0036737
0.0091954   -0.019063   -0.016789    -0.10286   -0.026209   -0.021661  0.00010078
0.014068   -0.018413   -0.015815   -0.081426  -0.0024977   -0.010943  -0.0050961
0.016991   -0.012892   -0.017764   -0.057715    0.020888   0.0043233  -0.0080194
0.018615  -0.0047713   -0.021012   -0.025884    0.040052    0.020888  -0.0050961
0.01894 -0.00022403   -0.025234    0.014392    0.047847    0.034206      0.0014
0.015692  -0.0031473   -0.034329    0.055318    0.039402    0.041027    0.011144
0.008221   -0.013541   -0.054142    0.072858    0.016341    0.039078    0.020888
-0.0018481   -0.024909   -0.082725    0.045574   -0.014516    0.029333    0.029658
-0.010943   -0.030106    -0.10319   -0.029132   -0.042774    0.016016    0.037778
-0.012242   -0.026209    -0.10254    -0.13534   -0.062262   0.0010752    0.043625
-0.0096434   -0.014516   -0.078178    -0.23961   -0.073306   -0.012892    0.042001
