0.052395    0.039727    0.034206    0.093645   -0.039851   -0.051544   0.0065969
0.053369    0.038428    0.054668     0.12678   -0.096692   -0.063561   0.0059473
0.048172    0.031607    0.055318     0.12905    -0.15646   -0.072656   0.0062721
0.040052    0.021538    0.045899     0.10436    -0.20193   -0.071032    0.010495
0.031932    0.011469    0.031607    0.065712    -0.22564   -0.057715     0.01894
0.025761   0.0033489    0.016341    0.027709    -0.22694   -0.036927    0.031282
0.021863  -0.0034721   0.0017248   0.0052977     -0.2146   -0.016464    0.042651
0.019589  -0.0063954  -0.0083442   0.0052977    -0.19771  0.00010078    0.047523
0.016991  -0.0044465  -0.0093186    0.021538    -0.18407   0.0078962    0.044924
0.013418 -0.00022403  -0.0044465     0.04395    -0.17757   0.0039985    0.038103
0.0023744   0.0046481   0.0010752    0.062139    -0.18309  -0.0096434    0.031282
-0.015815   0.0078962   0.0010752    0.070909    -0.20031   -0.030431    0.025436
-0.035953    0.008221  -0.0050961    0.062464    -0.22986   -0.054792    0.022512
-0.049595   0.0056225   -0.013216    0.031932    -0.26916   -0.078503    0.021863
-0.053168  -0.0011985   -0.018738   -0.024585    -0.30132    -0.10124    0.022512
-0.051544   -0.010943   -0.025559    -0.10156    -0.30165    -0.12268    0.021213
-0.050569   -0.022636   -0.035628    -0.18342     -0.2539    -0.13957    0.015367
-0.052193    -0.03303   -0.049595    -0.24968    -0.16555    -0.14541      0.0014
-0.052193   -0.039526   -0.064211    -0.28248   -0.063886    -0.13632   -0.018738
-0.049595     -0.0405    -0.07493    -0.27501    0.021538    -0.11845   -0.035303
-0.045372   -0.039526   -0.080127    -0.23863    0.075131   -0.097017   -0.042449
-0.040825     -0.0405   -0.081101    -0.19608     0.10371   -0.079477   -0.043423
-0.037902   -0.042124   -0.080451    -0.16653     0.13132   -0.067459   -0.038551
-0.035953    -0.04115   -0.084349    -0.15581     0.17712   -0.059014   -0.028157
-0.034004   -0.036602   -0.097341    -0.16263     0.24176   -0.048296   -0.013866
-0.032055   -0.028482    -0.11618    -0.18049     0.30834   -0.034654  0.00042559
-0.030106   -0.020037    -0.13437    -0.19381     0.35901   -0.023935    0.010495
-0.028157   -0.012567    -0.14184    -0.18634     0.38435   -0.020687    0.012443
-0.02426  -0.0080194    -0.12852    -0.14769     0.37785   -0.025234   0.0072465
-0.021986   -0.007045   -0.094093   -0.077203      0.3444   -0.033679   0.0033489
-0.02426  -0.0099683   -0.044398    0.012443     0.30055   -0.043748  0.00075039
-0.03303   -0.013216   0.0069217     0.10436      0.2567   -0.052193  -0.0011985
-0.045047   -0.013216    0.045899     0.17907     0.21772    -0.05804  -0.0044465
-0.053168  -0.0096434    0.064088     0.22682     0.18654   -0.056416  -0.0076946
-0.053492  -0.0047713    0.064413     0.24306     0.16868   -0.048296   -0.012892
-0.046022 -0.00087364    0.055968     0.22974     0.16608   -0.042124   -0.020362
-0.033354   0.0036737    0.043625     0.19661     0.17192    -0.04115   -0.028157
-0.019388   0.0075714    0.029009     0.15536     0.16803    -0.04927   -0.034978
-0.0099683    0.011144    0.012119     0.11411     0.12613   -0.063886   -0.036927
-0.0067202    0.014068  -0.0034721    0.074157    0.015367   -0.079802   -0.034329
-0.0041217    0.015367    -0.01614    0.040702    -0.17172   -0.097017   -0.030756
0.00010078    0.015692   -0.027833    0.013093    -0.41858    -0.10774   -0.027183
0.0062721    0.016666   -0.039851   -0.008669    -0.68135    -0.10871   -0.023935
0.009845    0.020888   -0.048945   -0.025234    -0.90221    -0.10221   -0.018738
0.0072465    0.024786   -0.053492   -0.034654      -1.037   -0.092794  -0.0099683
0.0010752    0.025761   -0.052518   -0.036278     -1.0727     -0.0837  0.00075039
-0.0060706    0.019914   -0.045047    -0.03173     -1.0201    -0.07493    0.011144
-0.010293    0.012443   -0.033679   -0.023285    -0.90027   -0.063237    0.016016
-0.012892   0.0062721   -0.021012   -0.011917    -0.73721   -0.047646    0.016991
-0.012892   0.0072465  -0.0093186 -0.00087364    -0.55954   -0.028807    0.014068
-0.0073698    0.014392 -0.00022403   0.0039985    -0.38999   -0.010293   0.0091954
0.00010078    0.026085   0.0075714   -0.008669    -0.24415   0.0036737   0.0010752
0.0088706     0.03583    0.016341   -0.054467     -0.1295    0.011144  -0.0063954
0.017965    0.038753    0.024461    -0.14509   -0.043099    0.014392  -0.0083442
0.023162    0.031932     0.02706    -0.27436    0.024786    0.016341  -0.0060706
0.021538    0.018615    0.022188    -0.42215    0.082277    0.016016  -0.0018481
0.01829   0.0043233    0.012443    -0.55467     0.13879    0.014392   0.0062721
0.017965   -0.007045   0.0023744    -0.65211     0.19369    0.010495    0.015692
0.01764   -0.012567  -0.0089938    -0.71415     0.23624  0.00042559    0.020564
0.013418   -0.012892   -0.019388    -0.73591     0.25183    -0.01484    0.016666
0.0043233  -0.0073698   -0.027508    -0.69921     0.23461   -0.027508   0.0078962
-0.0050961   0.0026992   -0.026209    -0.56247     0.19499   -0.030106  0.00075039
-0.0096434    0.014717   -0.013541    -0.28898     0.15731   -0.023285    0.003024
-0.011917    0.024461   0.0091954     0.10664     0.14334  -0.0089938    0.010819
-0.012567    0.031607    0.032582     0.54383     0.16575   0.0085458    0.016991
-0.013541    0.036479    0.049147     0.91508     0.21545    0.024137    0.019589
-0.017114    0.038428    0.054668      1.1376     0.27261    0.030957    0.016666
-0.023935    0.036154    0.045574      1.1837     0.31419     0.02641   0.0072465
-0.034004    0.029983    0.022837       1.083     0.32686    0.016991  -0.0089938
-0.046347    0.020888 -0.00054884     0.89689     0.31127   0.0078962   -0.027833
-0.059339    0.013093   -0.017114     0.69162     0.28041  0.00042559   -0.045697
-0.066485   0.0069217   -0.023285     0.51525     0.25118  -0.0044465   -0.056091
-0.06616   0.0039985   -0.019063     0.38727     0.24111  -0.0067202    -0.05804
-0.056416   0.0052977   -0.010618     0.30445     0.25443  -0.0057458   -0.051544
-0.038551    0.008221  -0.0018481     0.24955     0.28138  -0.0018481   -0.041475
-0.017439   0.0095202   0.0043233     0.20798     0.30477   0.0033489   -0.029132
-0.0015233   0.0072465   0.0075714     0.17485     0.30737     0.01017   -0.017114
0.0036737   0.0039985   0.0046481     0.14594     0.28983    0.015692  -0.0041217
-0.0015233   0.0017248   -0.007045     0.11898     0.25897    0.020888   0.0065969
-0.012567   0.0010752   -0.027183    0.096893     0.22844    0.024786    0.012768
-0.024909   0.0020496   -0.048945    0.081952     0.21415    0.030633    0.013743
-0.030106   0.0033489   -0.060313    0.076431     0.22097    0.033556   0.0088706
-0.022636   0.0036737   -0.056741     0.07773     0.24046    0.029983  -0.0015233
-0.0067202   0.0039985    -0.04115    0.081952      0.2593    0.021538   -0.012242
0.0072465   0.0052977   -0.017439    0.082602     0.26709    0.013418   -0.020362
0.013743   0.0065969   0.0052977    0.074806     0.26092   0.0072465   -0.024909
0.012119   0.0088706    0.022188    0.062139     0.23981 -0.00022403   -0.026858
0.0043233   0.0095202    0.030633    0.051096     0.20343  -0.0041217   -0.024909
-0.0041217   0.0088706    0.033881    0.037454     0.15179  -0.0067202   -0.020362
-0.012242   0.0065969    0.032582    0.020239    0.079029  -0.0096434   -0.016464
-0.017114   0.0023744    0.031932   0.0010752   -0.013866  -0.0044465   -0.011917
-0.01549  -0.0024977    0.031607   -0.019388    -0.11878   0.0075714  -0.0073698
-0.010293  -0.0054209    0.032582   -0.042124    -0.22889    0.020888  -0.0024977
-0.0096434  -0.0041217    0.033231   -0.068109      -0.339    0.028359   0.0023744
-0.013216  -0.0018481    0.030633   -0.089221    -0.44781    0.028359   0.0072465
-0.01614  -0.0015233    0.024461    -0.09994    -0.55337    0.027385    0.011794
-0.015815  -0.0041217    0.014392    -0.10254    -0.65926    0.030957     0.01829
-0.014191  -0.0063954   0.0036737    -0.10091    -0.76417    0.038103     0.02641
-0.012892   -0.010618  -0.0015233   -0.097991    -0.86129    0.041027    0.030633
-0.011917    -0.01614  -0.0031473   -0.086298    -0.93015    0.040377    0.029333
-0.011592   -0.021986  -0.0041217   -0.068758    -0.96068    0.033881    0.024461
-0.012567   -0.027183  -0.0080194   -0.058689    -0.93989    0.022188    0.016991
-0.015165   -0.030431   -0.016789   -0.059014    -0.85739   0.0085458   0.0059473
-0.018088   -0.034004   -0.029132   -0.064211     -0.7148  -0.0067202  -0.0076946
-0.021661   -0.038876   -0.042774   -0.076879    -0.52771   -0.024585   -0.017114
-0.024585   -0.045697   -0.057065     -0.1178    -0.31951   -0.042449   -0.020687
-0.026209   -0.050894   -0.070382    -0.20485    -0.11586   -0.055116   -0.017439
-0.02426   -0.047971   -0.072331    -0.31009    0.066362   -0.059014  -0.0073698
-0.019388   -0.035953   -0.053168    -0.36758     0.22422   -0.055766   0.0052977
-0.010293   -0.018088   -0.013866    -0.34192     0.36194   -0.050894    0.015042
0.0020496  -0.0018481    0.031282    -0.26592     0.47205   -0.051868    0.016991
0.012768   0.0095202    0.064088    -0.19706     0.54415   -0.056741    0.013418
0.019589    0.013743    0.076755    -0.17107     0.56592   -0.063237   0.0091954
0.020888    0.014392    0.069934    -0.18374     0.53766   -0.070058   0.0065969
0.018615    0.011144     0.05207    -0.20908     0.47464   -0.072331   0.0069217
0.014392   0.0078962    0.030957    -0.22434     0.40156   -0.070058   0.0046481
0.0062721   0.0046481    0.011144    -0.22564     0.33952   -0.064536 -0.00087364
-0.0054209      0.0014   -0.007045    -0.21557     0.29892   -0.053817  -0.0060706
-0.013216  -0.0063954   -0.022311    -0.19868     0.28236   -0.040825  -0.0067202
-0.013541   -0.017439   -0.035628     -0.1753     0.28788   -0.025559  -0.0067202
-0.0073698   -0.027833   -0.047971    -0.15029     0.31419   -0.008669  -0.0099683
-0.0031473    -0.03173   -0.056416    -0.13145     0.35317   0.0033489   -0.012567
-0.0011985   -0.028157   -0.052193    -0.12463     0.39084   0.0078962   -0.014516
0.0014   -0.018088   -0.034329    -0.12657     0.41391   0.0078962   -0.017114
0.0043233  -0.0060706   -0.010943    -0.13372     0.41261  0.00075039   -0.021986
0.0033489   0.0043233   0.0078962    -0.14087     0.38825   -0.015165   -0.030431
-0.0067202   0.0088706    0.016991    -0.14476     0.35219   -0.036602   -0.041799
-0.02426   0.0069217    0.015692    -0.14671     0.32491   -0.059664   -0.051544
-0.042124  0.00075039   0.0049729    -0.15288     0.31386   -0.076879   -0.059989
-0.04992  -0.0083442   -0.011917    -0.17822     0.31192    -0.08305   -0.066485
-0.047971   -0.017439   -0.028482    -0.23993     0.30802   -0.082076   -0.067459
-0.038876   -0.022311   -0.043748     -0.3351     0.29827   -0.080776   -0.062587
-0.021986   -0.020037   -0.052193    -0.43092     0.26677   -0.082725   -0.050244
0.00075039  -0.0096434   -0.050244    -0.47769     0.17939   -0.083375   -0.038551
0.021538   0.0033489   -0.041475    -0.43904  -0.0057458   -0.081101   -0.030431
0.033881    0.012768   -0.035628    -0.31918    -0.29158   -0.073306   -0.026533
0.036479    0.015692   -0.036602    -0.16328    -0.62353   -0.060638    -0.02426
0.037129    0.016016   -0.042124   -0.013866    -0.91748   -0.047971   -0.017114
0.039402    0.014717   -0.051868     0.10404     -1.0994   -0.034978  -0.0021729
0.042001    0.016341   -0.061613     0.18979     -1.1364   -0.026533    0.016666
0.046548    0.020564   -0.065186      0.2489      -1.036   -0.027833    0.031932
0.053369    0.024786   -0.058689     0.28885    -0.83271   -0.038551    0.039402
0.06019    0.026735   -0.044398     0.31711    -0.57221   -0.051544    0.038753
0.061165    0.024137   -0.031406     0.33465    -0.29937   -0.056741    0.027385
0.051745    0.016016   -0.026858     0.33595   -0.053492   -0.052843   0.0091954
0.035505  0.00075039   -0.031081     0.31516     0.14042   -0.038876  -0.0050961
0.016666   -0.015165   -0.037252     0.28528     0.27002   -0.020037   -0.010943
-0.0015233   -0.027508   -0.039851     0.26482      0.3405  -0.0031473   -0.008669
-0.010618    -0.03303   -0.036927     0.25637     0.36324   0.0059473  -0.0044465
-0.012892   -0.032055   -0.028157     0.25053     0.34959   0.0046481  -0.0021729
-0.008669   -0.030106   -0.014516     0.23039     0.30899  -0.0028225  -0.0024977
-0.0041217    -0.03303   0.0039985     0.18751     0.24241  -0.0080194  -0.0054209
0.0020496   -0.035303    0.030957     0.11995     0.15373  -0.0057458  -0.0076946
0.01017   -0.028807    0.064737    0.032906    0.059541   0.0059473  -0.0076946
0.020888   -0.013866    0.099167   -0.063237   -0.010943    0.026085  -0.0034721
0.031282   0.0036737     0.12613    -0.15158   -0.028807    0.047847   0.0052977
0.038753     0.01829      0.1362    -0.20615    0.016341    0.062789    0.015692
0.042001    0.026085     0.12483    -0.21037     0.11216    0.067661    0.024786
0.041351    0.028684    0.092346     -0.1675     0.22097    0.067661    0.030957
0.038753    0.026085     0.05207   -0.096367     0.30152    0.065062    0.034855
0.036479    0.025111    0.011794   -0.012242     0.32621    0.059216    0.033231
0.036154    0.029009   -0.018088    0.072208     0.28788    0.053044    0.028359
0.037129     0.03518   -0.036602     0.14139     0.20051    0.045899     0.02706
0.041027    0.037129   -0.043099     0.18622    0.087149    0.039078    0.032906
0.052395    0.032257    -0.04115     0.20668   -0.031081    0.030957    0.042326
0.066686    0.023487    -0.03303     0.20765    -0.14216    0.022837    0.047523
0.075456    0.011794   -0.022961     0.19726     -0.2461    0.015692    0.042975
0.072858 -0.00087364   -0.018413     0.17939    -0.34225   0.0052977    0.031282
0.06019   -0.011267   -0.021986     0.15341    -0.42637   -0.011592    0.016991
0.038753   -0.021661   -0.028482     0.11768    -0.49523   -0.034978   0.0069217
0.018615   -0.031406   -0.032055    0.079029    -0.53388   -0.063886 -0.00054884
0.0036737   -0.035628   -0.027183    0.044275    -0.52998   -0.090196  -0.0057458
-0.0034721   -0.037252   -0.016789    0.019914    -0.47607    -0.10579   -0.010943
-0.0041217   -0.039526  -0.0093186   0.0023744    -0.37895    -0.10319   -0.012242
0.00042559   -0.043423   -0.010943   -0.013866    -0.25162   -0.084674  -0.0050961
0.0069217   -0.044073   -0.022636    -0.03238    -0.11813   -0.059989   0.0088706
0.0085458   -0.040175   -0.038227   -0.048945  -0.0054209   -0.036602    0.025111
0.0072465   -0.034004    -0.04992   -0.057065    0.073507   -0.014516    0.039727
0.0033489   -0.028157   -0.057065   -0.054792     0.11898   0.0056225    0.047198
-0.0011985   -0.018088   -0.059014   -0.042774     0.14107    0.023812    0.046548
-0.0057458  -0.0050961   -0.055116   -0.025234     0.14984    0.036804    0.037454
-0.0080194   0.0059473   -0.045697  -0.0050961     0.15016    0.042651    0.022837
-0.0089938    0.013418   -0.032055    0.011469     0.14821    0.043625   0.0069217
-0.0096434    0.016016   -0.018413    0.021863     0.14756    0.039402  -0.0037969
-0.013216    0.012119  -0.0089938    0.030308     0.15276    0.030957  -0.0083442
-0.020037   0.0059473  -0.0063954    0.041351     0.16608    0.019264   -0.012567
-0.026209 -0.00054884  -0.0067202    0.053369     0.18816    0.009845   -0.018413
-0.03173 -0.00054884  -0.0067202    0.062139     0.20863   0.0062721   -0.023935
-0.036927   0.0062721  -0.0024977    0.068635      0.2161   0.0072465    -0.02361
-0.039201    0.016016   0.0046481    0.070909      0.2057    0.010819   -0.017764
-0.036602    0.021863    0.012119    0.072858     0.18329    0.016991  -0.0083442
-0.030756    0.021213    0.013418    0.074157     0.15568    0.022512   0.0033489
-0.022311    0.013093   0.0091954    0.078055     0.13002    0.026085    0.009845
-0.014191  0.00010078   0.0010752    0.081303     0.10826    0.026085    0.008221
-0.013216   -0.011267  -0.0034721    0.080978    0.094945    0.024461  -0.0031473
-0.01614   -0.020037  -0.0021729    0.080978    0.086175    0.022512   -0.018413
-0.018738   -0.026858   0.0026992    0.087799    0.073182    0.019589   -0.028482
-0.022311   -0.032705   0.0062721     0.10501    0.053044    0.016016   -0.029782
-0.026858   -0.036927   0.0033489     0.13132    0.029333    0.011144   -0.028807
-0.03303   -0.039526  -0.0067202     0.15438    0.008221    0.011144   -0.027183
-0.040175   -0.037577   -0.018088     0.16153  -0.0099683    0.016666    -0.02426
-0.042124   -0.025559   -0.020362     0.14594   -0.028482    0.024786   -0.017764
-0.033679  -0.0054209  -0.0089938     0.11346    -0.04992    0.032257  -0.0060706
-0.017764     0.01764    0.016991    0.068635   -0.077853    0.037129    0.012443
-0.00022403     0.03518    0.049147     0.01894    -0.11228    0.041676    0.032582
0.011794     0.04395    0.073182   -0.030106    -0.14801    0.048497    0.048497
0.014392    0.045249    0.080978   -0.064861    -0.18439    0.054993    0.054344
0.0078962    0.041676    0.073832   -0.072656    -0.23474    0.057917    0.047523
-0.0028225     0.03453    0.057917   -0.053817    -0.30489    0.050771    0.035505
-0.017114    0.028359    0.037778    -0.02426    -0.39519    0.032906    0.023812
-0.033354    0.025111    0.015692  0.00075039    -0.48646   0.0078962    0.016016
-0.048945    0.023162  -0.0050961    0.011144    -0.55889   -0.018738    0.009845
-0.060313    0.019589   -0.018413    0.008221    -0.59397   -0.043099      0.0014
-0.070382    0.015692   -0.024585 -0.00054884    -0.57059   -0.064536  -0.0080194
-0.075255    0.012768   -0.025884  -0.0076946    -0.47055   -0.078178    -0.01484
-0.076554    0.013093   -0.021986   -0.010618    -0.29223   -0.079802   -0.020037
-0.072331    0.013743   -0.013216   -0.013541   -0.061613   -0.070707   -0.031081
-0.065186    0.012443  -0.0021729   -0.017114     0.17907    -0.05804    -0.04862
-0.061613   0.0078962   0.0033489   -0.021986      0.3811   -0.046671   -0.067784
-0.063561    0.003024  0.00010078   -0.026209     0.50323   -0.037902    -0.08305
-0.068758  -0.0028225   -0.012242   -0.026858     0.53408   -0.032055   -0.086623
-0.073955   -0.007045   -0.026209   -0.026209     0.49088   -0.029782   -0.081101
-0.078503   -0.011592   -0.033354   -0.027183     0.40221   -0.032705   -0.070058
-0.083375   -0.013216   -0.033354   -0.028482      0.2947   -0.040175   -0.059339
-0.087597   -0.012567   -0.029457   -0.031406     0.19239   -0.048296   -0.053492
-0.087922   -0.010618   -0.022636   -0.035303     0.10989   -0.054142   -0.050244
-0.0824  -0.0060706   -0.014516   -0.039526    0.044924    -0.05739   -0.047321
-0.069083      0.0014   -0.011267   -0.040175   -0.018738    -0.05739   -0.043423
-0.051219    0.009845   -0.014191   -0.036927   -0.096367   -0.059339   -0.033679
-0.032705     0.01764   -0.017439   -0.033679    -0.18926   -0.065186   -0.021661
-0.01614    0.020239   -0.015815   -0.032705     -0.2867   -0.070707   -0.010293
-0.00022403    0.020888   -0.010293    -0.03303    -0.37018   -0.072006  -0.0057458
0.013743    0.023162  -0.0063954   -0.030756    -0.43352   -0.069733  -0.0044465
0.025111    0.027709  -0.0060706   -0.028482    -0.47152   -0.067784  -0.0031473
0.028684    0.031932  -0.0093186   -0.025559    -0.47022   -0.067134   0.0010752
0.026085    0.033881   -0.012242   -0.025234    -0.42377    -0.06681   0.0072465
0.019914    0.032582   -0.012242   -0.021661     -0.3377    -0.06551    0.010819
0.012119     0.02641  -0.0093186   -0.014516    -0.22694   -0.062587   0.0075714
0.0065969    0.016016  -0.0080194   -0.010293    -0.10774   -0.058365 -0.00022403
0.0043233   0.0039985   -0.012567   -0.010943    0.010495   -0.053168  -0.0044465
0.0065969  -0.0041217   -0.017764   -0.020362     0.12613   -0.047971  -0.0018481
0.0049729  -0.0093186   -0.021661   -0.033354     0.23591   -0.045372   0.0069217
-0.0018481   -0.011592   -0.022961   -0.045372      0.3314   -0.044398    0.015042
-0.014516   -0.010943   -0.027183   -0.054142     0.40319   -0.043423    0.016016
-0.030756  -0.0093186    -0.03238   -0.059014     0.45191   -0.041799   0.0085458
-0.04115  -0.0089938   -0.037902   -0.059664     0.48179   -0.040175  -0.0034721
-0.043099  -0.0096434   -0.043099   -0.059014     0.49803   -0.037577  -0.0093186
-0.039851  -0.0096434   -0.045047   -0.059014     0.50063   -0.034978  -0.0093186
-0.03303  -0.0080194   -0.043423   -0.055766     0.48601   -0.027833  -0.0057458
-0.027183  -0.0044465     -0.0405   -0.047646     0.44801   -0.018413  -0.0041217
-0.020687 -0.00087364   -0.035303   -0.034329      0.3824   -0.012567   -0.008669
-0.01549   0.0020496   -0.027508   -0.019063     0.28918    -0.01549   -0.019712
-0.012242   0.0020496   -0.018413  -0.0057458      0.1703    -0.02361   -0.034978
-0.010618 -0.00022403   -0.011592   0.0010752    0.037454    -0.03238   -0.050244
-0.0089938  -0.0034721   -0.011592   0.0017248   -0.085973   -0.043099    -0.05739
-0.008669  -0.0080194    -0.01614 -0.00054884      -0.174   -0.052843   -0.052193
-0.0080194   -0.011592    -0.02426  -0.0015233     -0.2133   -0.058689   -0.038551
-0.0073698   -0.012242    -0.03238   0.0017248     -0.2081   -0.058365   -0.021012
-0.0054209  -0.0076946   -0.037902    0.008221    -0.17335   -0.054142  -0.0060706
-0.0037969      0.0014   -0.037252    0.016016    -0.12463   -0.046022    0.003024
-0.0034721    0.011469   -0.031081    0.020888    -0.07428   -0.032705   0.0046481
-0.0047713    0.016341   -0.019712    0.019589   -0.034978   -0.016789   0.0026992
-0.0089938    0.014392  -0.0080194    0.013418  -0.0089938  -0.0024977  -0.0015233
-0.0089938   0.0085458  0.00010078    0.008221   0.0095202   0.0072465  -0.0063954
-0.0044465  0.00042559  -0.0021729   0.0039985    0.028359    0.011794   -0.011592
-0.0021729   -0.008669   -0.015165  -0.0015233    0.051096    0.008221    -0.01614
-0.0057458   -0.015165   -0.035628  -0.0096434    0.074482 -0.00054884   -0.017114
-0.012892   -0.015815   -0.050569   -0.021337    0.087149  -0.0034721   -0.012892
-0.019712    -0.01549   -0.051868   -0.030756    0.083251   0.0026992  -0.0060706
-0.022636    -0.01484   -0.042449   -0.036278    0.061814    0.013743 -0.00022403
-0.019063   -0.016464   -0.032705   -0.036278    0.031282    0.024461   0.0036737
-0.011917   -0.018738   -0.027183   -0.031406   0.0065969    0.028684   0.0088706
-0.0041217   -0.022311   -0.025884   -0.021661  -0.0057458     0.02641    0.016666
0.0052977   -0.025234   -0.024585   -0.008669  -0.0044465    0.019589     0.02641
0.014392   -0.026209   -0.017764   0.0069217    0.003024    0.010819     0.03453
0.020564   -0.024909  -0.0047713    0.024461     0.01017 -0.00087364    0.038753
0.023487   -0.020037   0.0095202    0.041027    0.019589   -0.013866     0.03583
0.022837   -0.013541    0.020888    0.051096    0.032257   -0.026533    0.029009
0.019589  -0.0063954    0.027385     0.05272    0.048172   -0.036602    0.020888
0.014717 -0.00054884    0.028359    0.046548     0.06831   -0.044073    0.015042
0.0095202 -0.00054884    0.030308    0.039727    0.092671   -0.051544    0.012119
0.0072465  -0.0015233    0.034206    0.036154     0.11606   -0.058365    0.013418
0.0095202  0.00075039    0.037454    0.041676     0.13035   -0.060638    0.017965
0.012119   0.0062721    0.037778     0.05272     0.13262   -0.055116    0.021863
0.009845    0.010495    0.038753     0.06084      0.1206   -0.047321    0.019589
0.0026992    0.013418    0.039727    0.063113    0.094295   -0.042449    0.010495
-0.0054209    0.011794    0.036804    0.058566    0.057267   -0.041799  -0.0031473
-0.010293   0.0056225     0.02641    0.045249    0.015367   -0.044723   -0.014516
-0.0080194  -0.0034721    0.011794     0.02641   -0.028482   -0.044723   -0.016789
0.0026992  -0.0099683  -0.0067202   0.0069217   -0.073955   -0.033679   -0.011592
0.020239  -0.0099683   -0.021337   -0.010293    -0.11683   -0.010943      0.0014
0.041027  -0.0041217   -0.031081   -0.025884    -0.15158    0.010819    0.019264
0.061814   0.0046481   -0.035953   -0.038551     -0.1753    0.024137    0.033556
0.076755    0.009845   -0.042449    -0.04862    -0.19154    0.028034    0.041351
0.081303   0.0085458   -0.052518   -0.057065     -0.2016    0.025761    0.043625
0.078704   0.0026992   -0.064211   -0.063237    -0.20258    0.024137    0.041676
0.072858  -0.0024977   -0.071357   -0.064861    -0.19348    0.027385    0.041351
0.062789  -0.0054209   -0.072981   -0.061937    -0.17887    0.037778    0.046548
0.05142  -0.0076946   -0.069733   -0.060313    -0.17497    0.049796    0.055643
0.043625   -0.010943   -0.060963   -0.060313    -0.18796    0.057267    0.065062
0.041027   -0.013216   -0.046671   -0.061613    -0.21265    0.057267    0.067336
0.042651   -0.016789   -0.029132   -0.061288    -0.23668    0.050446    0.059541
0.041676   -0.019063   -0.013541   -0.062262    -0.25033    0.041027    0.045249
0.035505   -0.019388  -0.0018481   -0.067134    -0.25617    0.030308    0.028034
0.022837   -0.021337   0.0062721   -0.076554    -0.25585    0.019914   0.0075714
0.0062721   -0.027183    0.008221   -0.081101    -0.24805   0.0091954  -0.0096434
-0.0099683   -0.034329   0.0072465   -0.061937    -0.22499  -0.0015233   -0.018088
-0.018413   -0.034654    0.011794   -0.011267    -0.18114   -0.012242   -0.019712
-0.016464   -0.026533    0.021213    0.059216    -0.12073   -0.019712   -0.018738
-0.0076946   -0.010943    0.030957     0.12223   -0.057715   -0.020362   -0.017114
0.0033489   0.0062721    0.038428     0.15536  -0.0089938   -0.012567   -0.012892
0.012119     0.01829    0.038428     0.14886    0.012119  -0.0011985  -0.0067202
0.020239    0.024786    0.032257     0.11021   -0.007045    0.011469      0.0014
0.029658     0.02706    0.023487     0.06084   -0.068109    0.021538   0.0085458
0.039727    0.025436     0.01764    0.025111    -0.16003    0.024137    0.012443
0.044599    0.020888    0.016666    0.017965    -0.26559    0.014717    0.011144
0.040052    0.016016     0.01894    0.039402    -0.36823  -0.0018481   0.0069217
0.027385    0.013743    0.024461    0.076755    -0.45918   -0.019388   0.0026992
0.0095202    0.013093    0.032906     0.11541    -0.53193   -0.033354 -0.00054884
-0.0083442    0.013418    0.040052     0.14042    -0.57968   -0.042774  -0.0050961
-0.020687    0.011469    0.044924     0.14691    -0.59657   -0.048945   -0.010943
-0.022311   0.0059473    0.047523     0.13912    -0.57773   -0.053817    -0.01549
-0.016464  -0.0028225    0.047523     0.12645    -0.52024   -0.053492   -0.019388
-0.008669   -0.012892    0.046223     0.10924     -0.4254   -0.045697   -0.024909
-0.0047713   -0.020037    0.044275    0.087149    -0.29775   -0.033679   -0.033354
-0.0041217   -0.021337    0.040052    0.064088    -0.13827    -0.02361   -0.043748
-0.0018481   -0.015165    0.034206     0.04395    0.036479   -0.019712   -0.052518
0.0023744  -0.0067202    0.025111    0.028034     0.19109   -0.021012   -0.058365
0.0046481  -0.0021729    0.013418    0.015692      0.2934   -0.026533   -0.060313
0.0062721  -0.0011985    0.003024   0.0059473     0.32848   -0.035628   -0.058689
0.0065969  -0.0041217  -0.0031473  -0.0047713      0.3012   -0.045047   -0.055116
0.0075714  -0.0067202  -0.0041217   -0.016464     0.23883   -0.050569    -0.04862
0.0075714   -0.007045  -0.0037969   -0.029457     0.18362    -0.04992   -0.037902
0.0072465  -0.0057458 -0.00087364   -0.044073     0.16673   -0.042774   -0.023935
0.0078962  -0.0037969   0.0020496   -0.056741     0.19596   -0.029782   -0.008669
0.0088706  -0.0047713   0.0026992   -0.067134      0.2619   -0.016464   0.0023744
0.0088706   -0.007045  -0.0024977   -0.072981     0.34829  -0.0060706   0.0085458
0.011469   -0.008669   -0.014191   -0.073631     0.43827   0.0017248    0.011794
0.011469   -0.007045   -0.027183   -0.068109     0.51882   0.0056225    0.015367
0.0072465  -0.0050961   -0.038876   -0.060638     0.59125   0.0046481    0.021213
0.00075039  -0.0080194   -0.045372   -0.056416     0.65978  -0.0041217    0.027709
-0.0073698   -0.013216   -0.045697   -0.059989     0.71695   -0.018738    0.029983
-0.018738   -0.020362   -0.042449   -0.071357     0.74261     -0.0405    0.024137
-0.029132   -0.027183   -0.039526   -0.084024      0.7137   -0.070382    0.012768
-0.036927   -0.031406   -0.039201    -0.09182     0.59872    -0.10124  -0.0011985
-0.0405   -0.034654   -0.043423   -0.095717     0.37623    -0.12885   -0.015165
-0.039526   -0.039201   -0.050569   -0.098965    0.055968    -0.15483   -0.025884
-0.038227   -0.043099   -0.056741    -0.10189     -0.3403    -0.17984    -0.03238
-0.035953   -0.045372   -0.055441    -0.09929    -0.77294     -0.2016   -0.036602
-0.036927   -0.046671    -0.04927   -0.092794     -1.1997    -0.21232   -0.039851
-0.042774   -0.047321   -0.041475   -0.084999     -1.5814     -0.2094   -0.042774
-0.046996   -0.046347   -0.037577   -0.079152     -1.8802    -0.19186   -0.043423
-0.043748   -0.041799   -0.037577   -0.079477     -2.0559    -0.16328     -0.0405
-0.034654   -0.035953    -0.04115   -0.080776     -2.0761    -0.13242   -0.035628
-0.026533   -0.029457   -0.040175   -0.078827      -1.939    -0.11163   -0.030756
-0.021012   -0.023285   -0.034654   -0.072006     -1.6785    -0.10611   -0.031406
-0.022636   -0.018088   -0.028157   -0.062262     -1.3436    -0.11651   -0.037902
-0.029782   -0.012892   -0.026533   -0.053817    -0.98374    -0.13404   -0.047971
-0.038876  -0.0089938   -0.028482   -0.053817    -0.63132    -0.15029   -0.059664
-0.043748  -0.0057458   -0.030431   -0.063561    -0.30067    -0.15808   -0.065835
-0.043099  -0.0011985   -0.025884   -0.074605    0.010495    -0.15256   -0.062912
-0.037902   0.0020496   -0.018088   -0.076554      0.2973    -0.13015   -0.054142
-0.029457   0.0033489   -0.012242   -0.068434     0.53993   -0.096367   -0.044723
-0.022311 -0.00022403   -0.011917   -0.051219     0.71143   -0.055766   -0.035953
-0.020037  -0.0041217   -0.013866    -0.03238     0.79361   -0.016464   -0.029132
-0.021986  -0.0073698   -0.013866   -0.019712     0.79003    0.015692   -0.023285
-0.027183  -0.0063954   -0.010293   -0.015165     0.72182    0.038428   -0.015815
-0.034004  -0.0021729  -0.0037969   -0.015815     0.61431    0.053369  -0.0041217
-0.040825  -0.0011985   0.0043233   -0.012567     0.50128    0.064737   0.0091954
-0.046022  -0.0060706    0.015042  -0.0037969     0.41163    0.077405    0.014717
-0.044398   -0.014191    0.021863   0.0056225     0.36421    0.091047    0.013743
-0.034004   -0.017439    0.021538    0.012119     0.36324     0.10306   0.0095202
-0.017439    -0.01484    0.016016    0.011469     0.39669     0.10956   0.0033489
-0.0050961  -0.0060706   0.0062721   0.0010752     0.45223     0.10989  -0.0067202
-0.00022403   0.0046481  -0.0076946   -0.018738     0.51037     0.10891    -0.01549
-0.0028225    0.013418   -0.018413   -0.036602     0.55844     0.10729   -0.017114
-0.0073698    0.019264    -0.02361   -0.034978     0.59028     0.10534   -0.012892
-0.0093186    0.023487   -0.015815 -0.00054884     0.60099     0.10501  -0.0041217
-0.0093186     0.02706    0.008221     0.06831      0.5945     0.10436   0.0072465
-0.0034721    0.030633    0.045899     0.16185     0.56949     0.10242    0.023162
0.0072465    0.034855    0.085525     0.26644     0.52694     0.10112    0.039078
0.017965    0.041676     0.11118     0.35447     0.47399    0.097868    0.049147
0.024786     0.05142     0.11281     0.38727     0.41813    0.092996     0.05272
0.029333    0.062789    0.090722     0.34017     0.36843    0.087149    0.051096
0.032906    0.069285    0.049147     0.21577      0.3314    0.086175     0.05272
0.035505    0.064413  -0.0015233    0.049472     0.30997    0.092346    0.059541
0.03583    0.047847    -0.04992    -0.10936       0.296     0.10404    0.068635
0.03453    0.024786     -0.0837    -0.21395     0.28171     0.11638    0.073832
0.028359   0.0059473   -0.096042    -0.24286     0.25735     0.11963    0.071883
0.022512  -0.0037969   -0.090845    -0.20258     0.22292     0.10956    0.064413
0.01894  -0.0041217   -0.076229    -0.11975     0.18037    0.090072    0.056292
0.016666   0.0059473   -0.061288   -0.023935     0.13652    0.066362    0.050446
0.014068    0.016666   -0.051219    0.058241     0.10469    0.046223    0.044275
0.010819    0.021863    -0.04862     0.10989    0.094295    0.032582    0.038428
0.01017     0.01829   -0.050244     0.12288     0.10469    0.026085    0.033881
0.010819   0.0078962   -0.053168     0.10631     0.13652    0.023487    0.031607
0.01017  -0.0031473   -0.051219    0.078055     0.18102    0.021538    0.030308
0.0072465   -0.012892   -0.042774    0.054344     0.22292    0.022512    0.030308
0.0059473   -0.017764   -0.031406    0.041351     0.24728    0.024461    0.030957
0.0023744   -0.017439   -0.019388    0.034206     0.23948    0.028684    0.033231
-0.0054209   -0.012567   -0.011917    0.030308     0.19888    0.029009    0.034206
-0.014516  -0.0037969  -0.0063954    0.028359      0.1362    0.024461    0.031932
-0.024585   0.0059473   0.0010752    0.025436    0.071558     0.01764    0.028034
-0.03238    0.014392    0.012443    0.024786    0.021863    0.012119    0.021863
-0.036927    0.021538    0.024137    0.026735   0.0052977   0.0078962   0.0095202
-0.039526    0.025111    0.030308    0.031607    0.025111   0.0052977  -0.0044465
-0.04115    0.024137     0.02641     0.03583     0.06831   0.0026992   -0.019063
-0.047321     0.01894    0.019589    0.038103     0.11021   0.0033489   -0.029457
-0.053492    0.013093    0.016016    0.038753     0.12937   0.0036737   -0.033679
-0.056091    0.012119    0.015367    0.041027     0.11833   0.0033489    -0.03173
-0.051544    0.012443    0.013418    0.042651    0.079679  0.00042559   -0.024909
-0.043099    0.013418   0.0078962    0.039078    0.028034  -0.0063954   -0.018088
-0.035628    0.016341  -0.0015233    0.027385   -0.020037   -0.023285   -0.013541
-0.034978     0.01894  -0.0096434    0.008221   -0.047971   -0.051219   -0.015165
-0.039526    0.017316    -0.01484   -0.018413   -0.043748   -0.087922   -0.021337
-0.044073    0.009845   -0.020037    -0.04862  -0.0044465    -0.12917   -0.027833
-0.044398  0.00010078   -0.030756    -0.07493    0.061814    -0.16458   -0.031081
-0.039851  -0.0080194   -0.046671   -0.092794     0.13717    -0.18764   -0.034004
-0.03238   -0.013216   -0.065186    -0.10221     0.20246    -0.19576   -0.033679
-0.025884   -0.015165   -0.078503    -0.10514     0.24663    -0.18796   -0.031081
-0.020362   -0.014191   -0.079802    -0.10156     0.26904    -0.16945   -0.026858
-0.016789   -0.013216   -0.070707   -0.094418     0.28073    -0.14444   -0.023285
-0.012242   -0.010943    -0.05804     -0.0837     0.29015    -0.12203   -0.020037
-0.0060706  -0.0063954   -0.050569   -0.070707     0.29795    -0.10351   -0.018738
-0.0063954  -0.0037969   -0.048945   -0.057065     0.29795   -0.093119   -0.019712
-0.011917  -0.0028225   -0.051219   -0.043748     0.28301   -0.087272   -0.025559
-0.016464  -0.0031473   -0.051868   -0.030106     0.24533   -0.081101   -0.029457
-0.018413  -0.0018481   -0.046022   -0.016789     0.18687   -0.069083   -0.027508
-0.017114   0.0026992   -0.031406  -0.0041217     0.11671   -0.046996   -0.019388
-0.010293    0.012443   -0.014191   0.0062721    0.041676   -0.017439  -0.0093186
-0.0015233    0.024137  -0.0021729    0.011794   -0.029132    0.014392  0.00010078
0.0075714    0.034855   0.0052977    0.016016   -0.092145    0.041676   0.0049729
0.015042    0.042651    0.009845    0.025761    -0.14314    0.063763   0.0036737
0.022512    0.044275    0.013093    0.031932    -0.18082    0.080003  -0.0037969
0.028034    0.041676    0.014717   0.0056225     -0.2068    0.092021   -0.015815
0.029658    0.034206    0.012768   -0.072331    -0.22694    0.097543   -0.026533
0.024137    0.026085   0.0056225    -0.19933    -0.23993    0.098193   -0.035953
0.016341     0.01829  -0.0034721    -0.34679    -0.24221     0.09397    -0.04115
0.0075714    0.014068   -0.011267    -0.48061    -0.22856      0.0852   -0.042449
0.0014    0.013093   -0.012567    -0.59852    -0.20063    0.072533   -0.039526
0.0026992    0.013418   -0.011267    -0.71253    -0.16165    0.055968   -0.034978
0.0065969    0.012768  -0.0044465     -0.7973    -0.12073    0.038103    -0.03173
0.0088706    0.013418    0.009845     -0.7921   -0.089221    0.020239   -0.029132
0.0075714    0.016341    0.034855    -0.63295   -0.069083   0.0078962   -0.024909
0.0065969    0.025436    0.067336    -0.30587   -0.058365    0.010495   -0.018413
0.0026992    0.036154    0.099167     0.13652   -0.060313    0.025761   -0.011592
-0.00087364    0.047523      0.1206     0.59125   -0.079802    0.046873  -0.0083442
-0.0041217    0.054019     0.12418     0.95439      -0.123    0.060515  -0.0099683
-0.0067202     0.05272     0.10989      1.1577    -0.18926    0.059216    -0.01484
-0.0041217      0.0433    0.082602      1.1918    -0.27306    0.046873   -0.019388
-0.0028225    0.024786    0.053369      1.0915    -0.36141     0.02706   -0.023285
-0.007045   0.0020496    0.029333     0.92158    -0.43936    0.003024   -0.025884
-0.01549   -0.017764    0.011469     0.74034     -0.4975   -0.021986   -0.028807
-0.025234    -0.03238  0.00010078      0.5841    -0.53193   -0.046996    -0.03238
-0.030756   -0.037577  -0.0054209      0.4636    -0.54135   -0.072656   -0.037252
-0.030756   -0.034978  -0.0024977     0.37103    -0.52446   -0.094093   -0.044073
-0.026209   -0.030431   0.0062721     0.28723    -0.47152    -0.10546   -0.050894
-0.017764   -0.028157    0.013418     0.19791    -0.37505    -0.10774   -0.055766
-0.0093186   -0.027508    0.014068     0.10761    -0.23571    -0.10221   -0.053492
0.00075039   -0.026533   0.0056225    0.026735    -0.07428   -0.095393   -0.046022
0.013093    -0.02361  -0.0089938    -0.03238    0.072858   -0.093119   -0.036927
0.023812   -0.022636   -0.020037   -0.060638      0.1664   -0.098641    -0.03173
0.022512   -0.026533   -0.024585   -0.064536     0.18946    -0.11488   -0.028482
0.0065969    -0.03303   -0.024909   -0.061288     0.15049    -0.13534   -0.026858
-0.021337   -0.040825   -0.025884   -0.071357     0.07773    -0.14964   -0.022636
-0.047971   -0.047971   -0.032055    -0.10221   0.0059473    -0.15093    -0.01614
-0.059989   -0.049595   -0.042124    -0.14801   -0.041799    -0.13892   -0.010618
-0.050569   -0.042124   -0.052843    -0.19608   -0.062587    -0.11748  -0.0076946
-0.02426   -0.026858   -0.059989    -0.23538   -0.067459   -0.088247  -0.0063954
0.0095202   -0.010618   -0.059014    -0.25975   -0.074605    -0.05804  -0.0021729
0.037778  0.00075039   -0.048296    -0.26624   -0.093119   -0.037252   0.0065969
0.057592   0.0056225   -0.026858    -0.25033    -0.12592   -0.030431    0.019264
0.067011   0.0069217    0.003024    -0.20615    -0.17302   -0.035303    0.030308
0.064413   0.0033489    0.033231    -0.14087    -0.23798   -0.046671    0.033881
0.054344  -0.0047713    0.053369    -0.07493    -0.32795   -0.060963    0.029009
0.042975    -0.01549    0.057592   -0.027833    -0.43027   -0.075904    0.017965
0.031932   -0.022961    0.044599   -0.015815    -0.51245   -0.087922   0.0075714
0.028359   -0.022961    0.017965   -0.047646    -0.53908   -0.088572  0.00010078
0.033231   -0.013216   -0.012242    -0.10936    -0.49426    -0.07428 -0.00054884
0.0433  0.00075039   -0.037902     -0.1649    -0.38934   -0.051868 -0.00022403
0.052395     0.01017   -0.054467    -0.17789    -0.26819   -0.032055  -0.0037969
0.054344    0.010495   -0.060313    -0.13469    -0.17367   -0.021986   -0.012892
0.046873   0.0020496   -0.057715   -0.040175    -0.13145   -0.020037   -0.022636
0.030308  -0.0096434    -0.04992    0.081303    -0.13762   -0.024909   -0.028807
0.0095202   -0.021986   -0.039851     0.20018    -0.16977   -0.031081   -0.029132
-0.011592    -0.03173   -0.029782     0.28691    -0.20096   -0.035628   -0.021012
-0.027833   -0.034978   -0.021661     0.32166    -0.21297   -0.034978  -0.0063954
-0.032055    -0.03303   -0.017114     0.30315    -0.19901   -0.025234    0.008221
-0.022961   -0.026858   -0.013541     0.24501     -0.1636  -0.0054209    0.022837
-0.0041217   -0.019063  -0.0093186      0.1651    -0.11943    0.021213    0.037778
0.014392   -0.013541  -0.0073698    0.082927   -0.087597    0.047523    0.045249
0.022837  -0.0093186   -0.010943     0.01017   -0.083375    0.062789    0.042001
0.01829  -0.0041217   -0.017439   -0.047971    -0.11066    0.066362    0.034206
0.0059473   0.0010752   -0.024585   -0.092794    -0.15581    0.061814    0.025111
-0.0093186   0.0043233   -0.028807    -0.12527    -0.19868    0.049796    0.019264
-0.020037   0.0075714   -0.031081    -0.14899    -0.22856    0.034855     0.01764
-0.021012   0.0095202   -0.031406    -0.16425    -0.24708    0.021538    0.021213
-0.013541   0.0075714   -0.027183    -0.17367    -0.25617   0.0062721    0.028034
-0.0099683   0.0049729   -0.016464    -0.17692     -0.2591  -0.0083442    0.035505
-0.012567   0.0023744 -0.00087364    -0.17724    -0.25812   -0.017764    0.040052
-0.018738  0.00010078    0.016666    -0.17172    -0.24968   -0.017114    0.042001
-0.023285  -0.0028225    0.028359    -0.15646    -0.23571   -0.010293    0.042326
-0.021337  -0.0034721    0.029983    -0.13469    -0.22434  -0.0050961    0.042001
-0.016464  -0.0021729    0.024786    -0.10968    -0.21849  -0.0073698    0.037778
-0.01614  0.00010078    0.015367   -0.090196    -0.21979   -0.018413    0.024786
-0.023935 -0.00087364   0.0043233   -0.084349    -0.22499   -0.032705   0.0072465
-0.036927  -0.0050961  -0.0044465    -0.10189    -0.23441   -0.044398  -0.0083442
-0.046022   -0.011267  -0.0050961    -0.13729    -0.23831   -0.051544   -0.018738
-0.044398   -0.015815  0.00010078    -0.17172    -0.22142   -0.057715   -0.023935
-0.036927    -0.01549   0.0043233    -0.18374    -0.17757   -0.065186   -0.026858
-0.03173  -0.0099683   0.0010752    -0.17562    -0.11293   -0.075255   -0.026533
-0.032705  -0.0024977  -0.0089938    -0.15905   -0.036927   -0.086623    -0.02361
-0.037577   0.0046481   -0.026533    -0.14216    0.054668   -0.094743   -0.017439
-0.037252    0.010495   -0.045372     -0.1321      0.1651   -0.097341  -0.0083442
-0.029457    0.010495   -0.061613    -0.13177     0.28366   -0.089871   0.0023744
-0.018088    0.003024   -0.073306    -0.13632     0.39214   -0.075255    0.016991
-0.012567  -0.0093186   -0.087597    -0.14346     0.47107   -0.056091    0.031932
-0.017439   -0.023935    -0.10449    -0.14866     0.51167   -0.036927    0.045899
-0.029782   -0.032705    -0.11975    -0.15191     0.51687   -0.022636    0.053694
-0.039851   -0.032705    -0.12268    -0.15776     0.49673   -0.013541    0.054019
-0.038876   -0.025884    -0.10676     -0.1688     0.46458  -0.0083442    0.051096
-0.024909   -0.015165   -0.070058    -0.17952     0.43145 -0.00054884    0.045249
-0.0044465  -0.0015233   -0.025559    -0.17335     0.39214   0.0091954    0.036154
0.015367    0.010819    0.011794    -0.13502     0.32848     0.01894    0.027385
0.02641    0.018615    0.029983   -0.062587     0.23104    0.023487    0.016016
0.029658    0.021213    0.024461    0.023162      0.1206    0.022837   0.0052977
0.022837    0.022837   0.0056225     0.10047    0.041027    0.021213  -0.0028225
0.0095202    0.024461   -0.012892     0.15601    0.021538    0.023812  -0.0037969
-0.0047713    0.024786   -0.018738       0.169    0.063438    0.030633 -0.00054884
-0.0093186    0.027385   -0.011592     0.11476     0.14204    0.036804   0.0056225
-0.0021729    0.031607   0.0052977  0.00042559     0.22357    0.042001    0.012768
0.012768    0.032257    0.028359    -0.13145     0.28073    0.046873    0.021863
0.029983    0.027385    0.047198    -0.22921     0.30347    0.057267    0.034855
0.042651    0.017316     0.05142    -0.26527     0.29405    0.074157    0.043625
0.046873   0.0069217    0.039402     -0.2435     0.25897    0.095919    0.047523
0.040702   0.0010752     0.01894    -0.18991     0.20538     0.11573    0.051096
0.029333  0.00042559  -0.0034721    -0.13242     0.13457     0.12385    0.049472
0.016341   0.0010752   -0.024909   -0.087922     0.05207     0.11801    0.040052
0.0020496  0.00075039   -0.039526   -0.059339   -0.039526     0.10079    0.026735
-0.012567  -0.0021729   -0.042774   -0.037252    -0.13404    0.076755    0.011794
-0.027183  -0.0063954   -0.035953   -0.017114    -0.21947    0.047523  0.00010078
-0.038876   -0.011267   -0.026209   0.0033489     -0.2867    0.019264  -0.0067202
-0.047646   -0.015165    -0.01484    0.023162    -0.33153  -0.0057458  -0.0073698
-0.051219   -0.019063  -0.0057458    0.040377    -0.34225   -0.021986  -0.0044465
-0.049595   -0.021012   0.0046481     0.05142    -0.31236   -0.026858  -0.0011985
-0.050569    -0.02361    0.014392    0.056292    -0.24643   -0.022636  -0.0011985
-0.057715   -0.026209    0.021863    0.057267    -0.16458    -0.01614  -0.0076946
-0.069408   -0.030431     0.02641    0.055643   -0.079477   -0.013866   -0.018088
-0.079152   -0.036602    0.025111    0.059216  -0.0063954   -0.017439   -0.028807
-0.080451   -0.042774    0.019914    0.074806      0.0433   -0.024585   -0.035953
-0.075904   -0.044398    0.016341    0.095919    0.064088   -0.030756   -0.038551
-0.070058   -0.041475    0.020239     0.11833    0.057267   -0.030431   -0.037252
-0.067459   -0.033679    0.030633     0.13847    0.031932    -0.02426   -0.032705
-0.065835    -0.02426    0.042001     0.15211  0.00075039   -0.013866   -0.028157
-0.060963   -0.014191    0.048822     0.16445   -0.025559  -0.0041217   -0.026533
-0.04992  -0.0060706    0.051745     0.17387   -0.041475   0.0010752   -0.028157
-0.033354  -0.0034721    0.050771     0.17842   -0.044073   0.0023744   -0.030756
-0.019063  -0.0060706    0.043625      0.1716   -0.037577   0.0023744   -0.035953
-0.007045   -0.008669    0.030957     0.15276   -0.028482   0.0036737   -0.040825
0.0056225   -0.008669    0.013418      0.1297   -0.022311   0.0052977   -0.045372
0.023162  -0.0057458  -0.0076946     0.10534   -0.014516   0.0065969   -0.045697
0.043625   0.0020496   -0.030431    0.083901  -0.0018481   0.0078962   -0.039201
0.063113    0.012119    -0.04862    0.064088    0.021863   0.0072465   -0.026209
0.074806    0.022837   -0.057065    0.050121    0.061814   0.0026992  -0.0080194
0.076755    0.030957   -0.056416      0.0433     0.11703  -0.0041217   0.0088706
0.069934    0.030957   -0.054467    0.042326      0.1716   -0.010943     0.01894
0.06019    0.023487   -0.053817    0.045249     0.21155    -0.01484    0.022188
0.049147    0.013743   -0.051868    0.045899     0.22844   -0.020362    0.018615
0.039078   0.0056225   -0.046347    0.042326     0.21642    -0.03238   0.0043233
0.030308   0.0017248   -0.038876    0.038753     0.17647   -0.048296   -0.018413
0.021538   0.0023744    -0.03173    0.039727     0.10956   -0.061613   -0.042774
0.010495   0.0056225   -0.025234    0.048497    0.019589   -0.068434   -0.062587
0.0014   0.0095202   -0.021337    0.058566   -0.087272   -0.069083   -0.073306
-0.0057458    0.010495   -0.021012    0.070909    -0.19219   -0.068109   -0.072656
-0.010618   0.0059473   -0.020687    0.083251    -0.27079   -0.068758   -0.060313
-0.014191  0.00075039   -0.021986    0.090722    -0.30652   -0.067784   -0.039526
-0.014516  -0.0050961   -0.021337     0.09462     -0.2958   -0.061937   -0.017764
-0.0096434   -0.012242   -0.018413    0.095269    -0.23993   -0.052518  -0.0096434
0.0010752   -0.019063   -0.015815    0.095594    -0.14834   -0.044398   -0.015165
0.011794   -0.021012   -0.012892    0.099167   -0.029782   -0.038876   -0.026533
0.019264   -0.019712  -0.0083442     0.10436    0.099817   -0.034004   -0.032055
0.021213   -0.017114  -0.0024977     0.10924     0.22877   -0.026858   -0.028807
0.019589    -0.01484  -0.0015233     0.11216     0.34505   -0.018088   -0.021661
0.01764   -0.013541  -0.0067202     0.11313     0.43664   -0.011917   -0.017439
0.016991   -0.011917   -0.015815     0.11118     0.49901   -0.012567   -0.019388
0.016341   -0.012892   -0.021012     0.10956     0.52791   -0.016464    -0.02361
0.011794    -0.01614    -0.02426     0.10891     0.52402   -0.018413   -0.027183
0.0026992   -0.021661   -0.021337     0.10696     0.49121   -0.018413   -0.030756
-0.0099683   -0.026858   -0.012567     0.10144     0.43534   -0.019712    -0.03303
-0.02361   -0.027833      0.0014    0.095269     0.36713    -0.02361   -0.029132
-0.033354   -0.026858    0.016991    0.092996     0.30282   -0.027833   -0.021661
-0.036602   -0.025234    0.032906    0.092346     0.25345   -0.025234   -0.013216
-0.03238    -0.02361    0.042326    0.092021      0.2187   -0.015165   -0.007045
-0.02361   -0.022636    0.044924    0.090397     0.19369  -0.0041217  -0.0054209
-0.014191   -0.017764    0.044599    0.087474     0.17192  0.00042559  -0.0073698
-0.0076946   -0.010618    0.043625      0.0865     0.14496  -0.0041217  -0.0099683
-0.0054209  -0.0031473    0.040052     0.08585     0.11281    -0.01549   -0.013216
-0.0096434    0.003024    0.037129    0.081952    0.078379   -0.032055    -0.01614
-0.016464   0.0069217    0.031282    0.073832    0.055968   -0.046347   -0.017764
-0.020687   0.0085458    0.022512    0.068635    0.055643   -0.051544   -0.019063
-0.016789   0.0095202    0.016991    0.067011    0.079029   -0.045697   -0.021337
-0.0067202    0.013093    0.013418    0.065712     0.11866    -0.03303   -0.019063
0.0046481    0.016016    0.011794    0.059865     0.16283   -0.021337   -0.012567
0.0091954    0.017316   0.0078962    0.047847     0.19693   -0.018413  -0.0089938
0.0049729    0.014717   0.0020496    0.029983     0.20505   -0.021337  -0.0096434
-0.0044465   0.0095202  -0.0028225   0.0052977     0.17485   -0.032705    -0.01614
-0.016789   0.0033489  -0.0044465   -0.021661     0.10566   -0.052193   -0.026858
-0.025559  -0.0034721  -0.0037969    -0.04862    0.016016   -0.078178   -0.037902
-0.029132   -0.007045  -0.0024977   -0.069733    -0.06551    -0.09929   -0.047321
-0.02426   -0.008669  -0.0015233   -0.079152    -0.11683    -0.10644   -0.053492
-0.013866   -0.007045  -0.0024977   -0.075255    -0.12592    -0.09994   -0.049595
-0.0041217  -0.0047713  -0.0073698   -0.060963   -0.088896   -0.085324   -0.039526
0.00042559 -0.00087364   -0.010943   -0.044073   -0.017114   -0.068109   -0.028157
-0.00054884   0.0052977   -0.014516   -0.028807    0.064737    -0.04927   -0.019388
-0.0050961   0.0078962   -0.018738   -0.017114     0.12905   -0.028157   -0.014516
-0.010618   0.0088706   -0.019712   -0.010618     0.15049  -0.0076946   -0.012567
-0.012242    0.012119   -0.014516  -0.0080194     0.11021    0.011144   -0.010943
-0.0076946    0.019264  -0.0034721  -0.0063954   0.0026992    0.026085  -0.0080194
-0.0011985    0.029333   0.0078962  -0.0080194    -0.15776    0.035505  -0.0050961
0.0091954    0.040377    0.013093   -0.013866    -0.34939    0.039727 -0.00022403
0.020564    0.053044   0.0095202   -0.019388    -0.55792    0.040702   0.0059473
0.029658    0.063113  0.00010078   -0.022961    -0.78269    0.040052    0.013743
0.033231     0.06831   -0.011917   -0.022961     -1.0224    0.036154    0.023812
0.026735    0.064088   -0.022961   -0.022311     -1.2611    0.029009    0.036479
0.013093    0.051745   -0.033679   -0.026209     -1.4625    0.016016    0.047523
-0.0015233    0.034206   -0.041799   -0.037577     -1.5817  -0.0037969    0.051745
-0.0089938    0.016991   -0.046347   -0.056091     -1.5892   -0.029132    0.046873
-0.012242   0.0017248   -0.049595   -0.076879     -1.4875   -0.059989    0.033556
-0.015165   -0.010943   -0.050894   -0.097341     -1.3072   -0.089546    0.017965
-0.019388   -0.018413   -0.052518    -0.11261     -1.0913    -0.11553   0.0049729
-0.026858   -0.022636    -0.05739    -0.11845    -0.88792    -0.13632  -0.0054209
-0.035628   -0.022636   -0.063561    -0.11521    -0.72682    -0.15093   -0.013866
-0.04115   -0.019712    -0.06681    -0.10286    -0.61411    -0.15483   -0.016789
-0.043099   -0.012242   -0.062262   -0.085648    -0.53291    -0.14704   -0.016789
-0.04115  -0.0018481   -0.048296   -0.070707    -0.45138    -0.12982   -0.015165
-0.036278   0.0062721   -0.029782   -0.060963    -0.34549    -0.10838   -0.013541
-0.032055   0.0085458   -0.013216   -0.055116    -0.19283    -0.08305   -0.011592
-0.03303   0.0065969  -0.0031473   -0.056416    0.009845   -0.052843  -0.0060706
-0.036602   0.0036737   0.0039985   -0.061288     0.23851   -0.018413   0.0010752
-0.038227      0.0014   0.0059473   -0.064861     0.45581    0.018615   0.0095202
-0.030106  -0.0024977   0.0039985   -0.062912     0.63315    0.050446    0.019914
-0.014191  -0.0060706  -0.0021729   -0.056741      0.7556    0.073182    0.027385
0.00042559  -0.0080194  -0.0089938    -0.04927     0.81862    0.086175    0.030957
0.008221  -0.0067202   -0.016789   -0.043423     0.82381    0.092346    0.029009
0.0085458  -0.0011985   -0.024909   -0.039851     0.78451    0.093645    0.020564
0.0059473   0.0046481   -0.029132   -0.034654     0.72475    0.089098    0.013093
0.0033489   0.0065969   -0.030106   -0.027183     0.66888    0.078379   0.0072465
0.0046481   0.0056225   -0.030756   -0.019063     0.62958    0.065712   0.0056225
0.010495   0.0033489   -0.028482   -0.015165     0.60944     0.06084   0.0059473
0.01894      0.0014   -0.021661    -0.01549     0.59905    0.067336   0.0078962
0.028034   0.0017248   -0.011267   -0.017439     0.58768    0.077405    0.012443
0.03453   0.0023744 -0.00054884   -0.018738     0.57241    0.086824    0.019589
0.038753   0.0026992   0.0095202   -0.018738     0.56007    0.091372    0.028359
0.037778    0.003024    0.013093   -0.016789     0.55877     0.09462     0.03453
0.029658   0.0039985   0.0085458   -0.011917     0.56981    0.098517    0.037129
0.016016   0.0069217   0.0020496  -0.0050961     0.57858     0.10144     0.03583
0.0033489    0.012443  -0.0028225 -0.00087364     0.57046     0.10079    0.029658
-0.0047713    0.017316  -0.0044465 -0.00054884     0.52694    0.092346    0.020239
-0.0096434    0.018615  -0.0018481  -0.0047713     0.44834    0.075781    0.010819
-0.013216    0.016666      0.0014   -0.010618     0.35024    0.057917   0.0046481
-0.01484    0.012443  0.00075039   -0.016464      0.2515    0.045574      0.0014
-0.016789   0.0091954   -0.007045   -0.027508     0.17257    0.041351   0.0039985
-0.015165   0.0088706   -0.020037   -0.046022     0.11671      0.0433    0.011469
-0.0060706   0.0078962   -0.037252   -0.072006    0.077405    0.047198    0.021863
0.0072465   0.0043233   -0.051544   -0.094093     0.05207    0.050771    0.029333
0.016016   0.0010752   -0.058689    -0.10286    0.029333    0.053369    0.031932
0.014392 -0.00054884   -0.056741   -0.090845    0.008221    0.054344    0.028034
0.0062721  0.00010078   -0.045697   -0.055766   -0.013216    0.053694    0.020888
0.0010752   0.0056225   -0.023285  -0.0067202   -0.033354    0.046873     0.01764
0.0046481    0.011794   0.0059473    0.041027   -0.051544    0.034855    0.018615
0.014392    0.016666    0.032257    0.078379   -0.059989    0.017316    0.021538
0.023487     0.01894    0.047198     0.10339   -0.055116 -0.00087364    0.023812
0.025761    0.019914    0.053369     0.11736    -0.04115   -0.017439    0.023812
0.021538    0.018615    0.057267     0.11768   -0.026858   -0.027833    0.020239
0.016666    0.013743    0.054993     0.10891   -0.023935    -0.03303    0.017316
0.011794   0.0078962    0.042326    0.092996   -0.036278   -0.035628    0.019914
0.0052977   0.0036737    0.024137    0.076755   -0.054792   -0.041475    0.022188
-0.0015233   0.0039985   0.0088706    0.066037   -0.065835    -0.04862    0.021213
-0.0034721   0.0078962   0.0036737    0.059541   -0.060638    -0.04992    0.017316
-0.00087364    0.012119    0.011794    0.054993   -0.034004   -0.042124    0.015692
0.0039985    0.012443    0.024137    0.050446   0.0065969   -0.025234    0.016341
0.0075714   0.0065969    0.033231    0.041027    0.048497  -0.0041217    0.020239
0.011794  -0.0041217    0.036154    0.026085    0.080653    0.014068    0.025436
0.012768   -0.014191    0.032582    0.008221    0.095919    0.022837    0.027385
0.012119   -0.020362    0.022188   -0.007045    0.095919    0.019264     0.02706
0.011144   -0.020037    0.009845   -0.012567    0.082927   0.0043233    0.027385
0.011469    -0.01484  -0.0018481   -0.010293    0.059865   -0.016789    0.027709
0.01017  -0.0060706   -0.010618  -0.0047713     0.02641    -0.04115    0.026085
0.0078962   0.0010752   -0.016464  -0.0015233   -0.019388   -0.064861    0.021538
0.0046481   0.0046481    -0.02426  -0.0021729   -0.076229   -0.084349    0.017965
0.00042559   0.0049729   -0.031406  -0.0099683    -0.13794   -0.098316    0.019589
-0.0076946   0.0039985   -0.035953   -0.026858    -0.19251    -0.10774    0.023487
-0.019388   0.0036737   -0.035303   -0.046671    -0.23441    -0.11488    0.022837
-0.03303   0.0026992   -0.035303   -0.062912    -0.27014    -0.12268    0.013418
-0.045047 -0.00054884   -0.037902   -0.075579    -0.30879    -0.13599  -0.0041217
-0.055441  -0.0067202   -0.036927   -0.084674    -0.34939    -0.15093   -0.025559
-0.067134   -0.012892   -0.028482   -0.095393    -0.37895    -0.15873   -0.048296
-0.078827   -0.019712   -0.013541    -0.10871    -0.38642    -0.15743   -0.069408
-0.088247   -0.025884   0.0043233    -0.12105    -0.37375    -0.14801   -0.086948
-0.094418   -0.029457    0.016991     -0.1334    -0.35524    -0.13469   -0.098316
-0.098316   -0.028807    0.015692    -0.14769    -0.33737    -0.11943    -0.10091
-0.10059   -0.029132 -0.00022403    -0.15548    -0.32211    -0.10384   -0.097341
-0.09929   -0.031081    -0.02361    -0.14509    -0.29807   -0.085973   -0.088896
-0.094743   -0.030756   -0.044398    -0.11228    -0.25357   -0.064211   -0.076229
-0.084024   -0.022961   -0.060638   -0.070707    -0.18699   -0.036927   -0.057715
-0.06681   -0.010943   -0.072656   -0.038227    -0.10774  -0.0099683   -0.035953
-0.043748 -0.00087364   -0.082725   -0.024909   -0.031406   0.0095202   -0.014191
-0.020037   0.0046481   -0.088247   -0.034004    0.017965    0.018615   0.0036737
-0.0011985   0.0078962   -0.090521   -0.052518    0.031282    0.015042    0.014717
0.011469     0.01017   -0.086948   -0.059339   0.0088706  0.00075039    0.016666
0.018615    0.010819   -0.080776   -0.038227   -0.034004   -0.020037    0.008221
0.023487   0.0091954   -0.069408    0.008221   -0.079802   -0.038876  -0.0050961
0.026735   0.0065969   -0.049595    0.070909    -0.11391    -0.04862   -0.016789
0.026735   0.0043233   -0.021337      0.1349    -0.13242   -0.046022   -0.022311
0.022188   0.0046481   0.0085458     0.18167    -0.13794   -0.038227   -0.023285
0.016666   0.0049729    0.031282     0.20376    -0.13502   -0.030756   -0.023285
0.0088706   0.0020496    0.040377     0.19953    -0.12463   -0.026858   -0.022961
0.0023744  -0.0024977    0.040377     0.17387    -0.10774   -0.025234   -0.022311
-0.0015233  -0.0063954    0.038753     0.13717   -0.089546   -0.025559   -0.020362
-0.0024977  -0.0076946    0.039078     0.10404   -0.075904   -0.027183   -0.018413
-0.00054884  -0.0060706    0.040377    0.080653   -0.067784   -0.031081   -0.018413
0.0036737  -0.0034721    0.039727    0.067661    -0.06551   -0.034978    -0.01614
0.011144 -0.00022403    0.041027     0.06084   -0.069083   -0.034978   -0.010943
0.020564   0.0049729      0.0433    0.056942   -0.078178   -0.030756  -0.0021729
0.02706   0.0088706    0.044924    0.053694   -0.092145   -0.022961   0.0072465
0.029333    0.011794    0.042326    0.048497    -0.10351   -0.014191    0.015042
0.031607    0.012768    0.033556      0.0433    -0.10481  -0.0060706    0.020888
0.03583    0.013093    0.021538    0.039402   -0.089221   0.0033489    0.026735
0.039078    0.016016    0.012119    0.038428    -0.06681    0.013743    0.031282
0.03453    0.019589   0.0075714    0.038428   -0.047971    0.027709    0.031607
0.025111    0.022512   0.0065969    0.040702   -0.045697    0.043625     0.02706
0.017965    0.024137    0.009845    0.047847   -0.059989    0.057917    0.021538
0.011794    0.021538    0.013743    0.061489   -0.083375    0.066037    0.020239
0.0072465    0.016666    0.019914    0.074806    -0.10611    0.067661    0.023487
0.008221    0.012443    0.021863    0.084551     -0.1204    0.065387    0.029983
0.013093   0.0095202    0.017316    0.090397    -0.12527    0.062139    0.034206
0.01829   0.0095202    0.010495    0.091696    -0.12268    0.056942    0.033556
0.020564    0.011469   0.0033489      0.0865     -0.1191     0.05142    0.027709
0.019589    0.013418   0.0010752    0.074806    -0.12008    0.049472    0.018615
0.014717    0.013743  0.00042559    0.059216    -0.12527    0.051745    0.010819
0.0095202   0.0095202  -0.0018481    0.041676    -0.14152    0.051745   0.0020496
0.0043233      0.0014  -0.0063954     0.02641    -0.17075    0.041027  -0.0073698
-0.0015233  -0.0063954  -0.0089938    0.015692    -0.21232    0.019264    -0.01614
-0.010618   -0.014191   -0.010618    0.009845    -0.25747  -0.0054209   -0.021012
-0.018413   -0.023285   -0.013216   0.0033489    -0.29223   -0.027508    -0.02426
-0.022636   -0.031081    -0.01549  -0.0089938    -0.30132   -0.042449   -0.027508
-0.022636   -0.034654    -0.01614   -0.029132    -0.27111    -0.04992   -0.029457
-0.022636   -0.037577   -0.018413   -0.051219    -0.19251   -0.051544   -0.031081
-0.025234   -0.039526   -0.023935   -0.074605   -0.070707   -0.050569   -0.029132
-0.030431   -0.041799   -0.030756   -0.094418    0.076755   -0.047971   -0.027833
-0.037252    -0.04115   -0.032705    -0.10806     0.22454   -0.047321   -0.029457
-0.041799   -0.037902    -0.03303    -0.11326     0.34082   -0.048296   -0.032055
-0.041475   -0.032055   -0.031081    -0.11098     0.40871   -0.050894   -0.037577
-0.036927   -0.023935   -0.029782    -0.10676     0.44021   -0.059014   -0.046671
-0.028482   -0.016464   -0.031081    -0.10546     0.45321   -0.072981   -0.056741
-0.023935   -0.012892   -0.036927    -0.11033     0.46523   -0.090521    -0.06551
-0.028157   -0.014516   -0.047321    -0.11878     0.47302    -0.10579   -0.071032
-0.040175   -0.021012   -0.055116     -0.1243      0.4662    -0.11456   -0.075255
-0.052518   -0.027833   -0.052843    -0.12105     0.43762    -0.11488   -0.077853
-0.060638   -0.031081   -0.038227    -0.10968     0.38825    -0.10806   -0.075255
-0.060638   -0.031406   -0.017439   -0.095068     0.32621    -0.10059   -0.071032
-0.053817   -0.028482  0.00075039   -0.080776     0.25995    -0.09182   -0.067134
-0.043099   -0.024909   0.0069217    -0.06681     0.18849   -0.082076   -0.063886
-0.030756   -0.020687   0.0026992   -0.055441     0.11086   -0.069733   -0.058689
-0.019388   -0.018738  -0.0063954   -0.048296    0.024137    -0.05804   -0.051219
-0.011267   -0.020037    -0.01484   -0.044723   -0.078178   -0.047321   -0.042774
-0.0037969   -0.022961   -0.018738   -0.043423    -0.20128   -0.043748   -0.036927
0.0039985   -0.025884   -0.019063    -0.04115     -0.3442   -0.045697   -0.035628
0.010495   -0.027508   -0.016789   -0.040175    -0.50238   -0.050244    -0.03303
0.015042   -0.028157   -0.012242   -0.042449    -0.66575   -0.055116   -0.029132
0.017965   -0.028807  -0.0089938   -0.049595    -0.81387   -0.062262    -0.02361
0.01894   -0.031081  -0.0089938   -0.057715    -0.90904   -0.070382   -0.015815
0.01894   -0.034654    -0.01549   -0.059989    -0.91618   -0.075255   -0.007045
0.018615   -0.037902   -0.026209   -0.053492    -0.82166   -0.075904  0.00075039
0.022188   -0.038227   -0.035628   -0.041475    -0.63685   -0.071032   0.0056225
0.02706   -0.033354   -0.042124   -0.028482    -0.40331   -0.063886   0.0069217
0.031607   -0.026533   -0.045697    -0.01614    -0.18114   -0.052193   0.0062721
0.033231   -0.019712   -0.045697  -0.0060706   -0.026858   -0.036278   0.0059473
0.031932   -0.012242   -0.038876   0.0056225    0.038103   -0.015165   0.0085458
0.030957  -0.0037969   -0.027508    0.023812    0.025436   0.0075714    0.013093
0.02706   0.0059473    -0.01549    0.049796   -0.036602    0.025111    0.013093
0.021213    0.013418  -0.0024977    0.076431    -0.12268     0.03453   0.0088706
0.014068    0.015042   0.0072465     0.09462    -0.20713    0.038103  0.00075039
0.0072465    0.012119    0.013093    0.095594    -0.26949    0.038753  -0.0018481
0.0026992   0.0072465    0.014392    0.079029    -0.29612    0.037129   0.0033489
-0.00022403  0.00042559     0.01017    0.055968    -0.27956     0.03453    0.013418
0.00042559  -0.0044465   0.0023744    0.037778    -0.21947    0.033881    0.020239
0.0017248  -0.0073698  -0.0044465    0.029983    -0.12787    0.041351    0.023162
0.0014  -0.0063954  -0.0073698    0.030308   -0.028157    0.054993    0.025761
-0.0034721  -0.0018481  -0.0063954    0.032906    0.057592    0.071558    0.030633
-0.010293   0.0043233  -0.0034721    0.038103     0.11086    0.082602    0.032906
-0.012892    0.011794  -0.0018481    0.043625      0.1284    0.084226    0.029658
-0.0080194     0.01829  -0.0031473    0.048172     0.12353    0.075131    0.023162
0.0033489    0.024461  -0.0047713    0.049472     0.12775    0.061814     0.01829
0.016341    0.030957  -0.0054209    0.050121     0.16575    0.050771    0.017316
0.023812    0.032257  -0.0044465    0.047523     0.24533    0.044275    0.021863
0.026735    0.028359  -0.0054209    0.042651     0.34797    0.039727    0.030308
0.025111    0.019589  -0.0067202    0.036479     0.44639     0.03518    0.038753
0.019264   0.0095202  -0.0063954    0.027709     0.51492    0.031282    0.044924
0.0091954   0.0026992  -0.0011985     0.01829     0.54188    0.031282    0.045899
-0.0031473 -0.00022403   0.0036737    0.010495     0.53181     0.03518    0.045574
-0.0093186  0.00042559   0.0059473   0.0069217     0.50323    0.040377    0.042651
-0.010293   0.0020496   0.0062721   0.0075714     0.47464    0.042001    0.042001
-0.012242   0.0043233   0.0078962   0.0091954     0.44996    0.042001    0.040702
-0.016789   0.0072465    0.010819   0.0078962     0.42657    0.041676    0.036154
-0.019712    0.010819    0.013093   0.0056225     0.40286    0.042975    0.027385
-0.020362    0.016341    0.016991   0.0091954     0.37688    0.041351    0.016341
-0.018088    0.022512    0.020239    0.019264     0.34537    0.036479   0.0069217
-0.01614    0.028034    0.021213    0.030633     0.31127    0.032582  -0.0018481
-0.018738    0.029333     0.01764    0.038753     0.27684     0.02641  -0.0093186
-0.030756    0.028359    0.011144    0.047198     0.24566    0.018615   -0.013866
-0.051219    0.026085   0.0020496    0.057267     0.22747    0.011144   -0.014191
-0.071032    0.023162  -0.0054209    0.063438     0.23429   0.0043233   -0.011592
-0.0824    0.018615   -0.015165    0.062789      0.2606      0.0014  -0.0050961
-0.080451    0.013418   -0.023285    0.055968     0.28398   0.0043233   0.0026992
-0.067459    0.009845   -0.025884    0.048497     0.28431    0.012768    0.011469
-0.048296   0.0091954   -0.019388    0.044275     0.25637    0.018615    0.016016
-0.03173   0.0085458  -0.0083442    0.044924     0.20993     0.01764    0.009845
-0.022961   0.0065969   0.0023744    0.052395      0.1677    0.014717  -0.0028225
-0.018413  0.00075039   0.0085458    0.066362     0.14789    0.012119   -0.016789
-0.013541  -0.0067202    0.012443    0.082927     0.15276    0.014068   -0.022636
-0.007045   -0.012892    0.015042    0.092346     0.17874    0.020564   -0.019712
-0.0018481    -0.01484     0.01829    0.090397     0.20928     0.02641   -0.011917
0.0026992   -0.016464     0.01894    0.080003     0.22779    0.029658  -0.0028225
0.0065969   -0.017114    0.017965    0.064737     0.21935    0.030633    0.008221
0.010495   -0.019712    0.013743    0.049796     0.18069    0.030957    0.019589
0.013418   -0.022636   0.0039985    0.037129     0.11476    0.029983    0.029333
0.012768   -0.025234   -0.010293    0.029009    0.030957    0.029009    0.036804
0.010495   -0.026533   -0.021661    0.022512   -0.051544    0.029983    0.043625
0.0059473   -0.027508   -0.021986    0.016341    -0.12398    0.029658    0.050446
0.00042559   -0.026858   -0.014516     0.01017    -0.17984    0.028034    0.053694
-0.0034721    -0.02361  -0.0050961   0.0078962    -0.21752    0.025436    0.056292
-0.0028225   -0.016789    0.003024    0.012443    -0.23798    0.021213    0.057917
0.0039985  -0.0063954   0.0091954    0.023812     -0.2474    0.019264    0.061165
0.010819   0.0069217    0.012119    0.035505    -0.25455     0.01829    0.061489
0.016991    0.022188    0.012768    0.042975    -0.26689    0.016016    0.055318
0.017965    0.036479    0.009845    0.039402    -0.27858   0.0052977    0.039402
0.013418    0.046873   0.0026992    0.022188     -0.2854   -0.019712    0.016341
0.0059473    0.048822   -0.010618  -0.0057458    -0.27826   -0.059664  -0.0083442
-0.00087364    0.041351   -0.030756   -0.035953    -0.23766    -0.10741   -0.025559
-0.0018481    0.027385   -0.050894   -0.063886    -0.14834    -0.15288   -0.036278
0.0020496    0.011144   -0.068758   -0.085648  0.00075039    -0.18471   -0.039851
0.003024  -0.0041217   -0.081751    -0.10319     0.19888    -0.19576   -0.039201
-0.0018481   -0.012242   -0.085648    -0.11813     0.40449    -0.18699   -0.036278
-0.0083442   -0.010618   -0.079152     -0.1282        0.55     -0.1675   -0.032055
-0.013216  -0.0031473   -0.064536    -0.13567     0.55747    -0.14509   -0.029457
-0.017114   0.0072465   -0.047971    -0.13859     0.38078     -0.1295   -0.031406
-0.020037    0.014717   -0.037252    -0.13599    0.041676    -0.12463   -0.040175
-0.017439    0.016666   -0.035628    -0.12657    -0.36336    -0.12592   -0.050244
-0.0096434    0.012119   -0.042774    -0.11358    -0.71383     -0.1269   -0.056416
-0.0011985   0.0023744   -0.050244   -0.098641    -0.91033    -0.12398   -0.055441
0.0049729  -0.0054209   -0.051868     -0.0837    -0.91326    -0.11488   -0.047971
0.0049729  -0.0089938   -0.047321   -0.067134    -0.74143   -0.099615   -0.038551
-0.0028225  -0.0089938   -0.039201   -0.052193     -0.4582   -0.082725    -0.03173
-0.01484  -0.0089938   -0.029457   -0.037577    -0.14509    -0.06616   -0.026858
-0.028157  -0.0093186   -0.021012    -0.02361     0.12353    -0.04927   -0.023935
-0.034004  -0.0054209    -0.01484   -0.011592     0.30899   -0.036602    -0.02361
-0.031081   0.0010752   -0.011592  -0.0024977     0.40189   -0.029132   -0.028482
-0.025234   0.0072465  -0.0080194   0.0023744     0.41358   -0.023285   -0.035953
-0.018738    0.013418  -0.0031473   0.0033489      0.3733   -0.018738   -0.041475
-0.012567     0.01829   0.0043233  0.00075039     0.31484    -0.01484   -0.045047
-0.0044465     0.02706     0.01764  -0.0018481     0.26514   -0.008669   -0.047646
-0.00022403     0.03453    0.030957  -0.0011985     0.23396  -0.0037969    -0.04927
-0.0011985    0.036804    0.039078    0.003024     0.20603  -0.0015233   -0.048945
-0.0037969    0.032906    0.036804   0.0062721     0.16575  -0.0083442   -0.045372
-0.0076946    0.023487    0.025436   0.0039985    0.090072   -0.024909   -0.037902
-0.011592    0.010495   0.0075714  0.00010078   -0.036278   -0.050569    -0.03303
-0.012242  -0.0044465  -0.0083442  -0.0011985    -0.20388   -0.080776   -0.028807
-0.0099683   -0.017764   -0.017439      0.0014    -0.37895    -0.10871   -0.022311
-0.0028225   -0.027183   -0.018088   0.0052977    -0.52739    -0.12917    -0.01484
0.0059473   -0.031081   -0.012892   0.0088706    -0.61768    -0.13632   -0.010618
0.011469    -0.03238  -0.0054209    0.011469    -0.63685    -0.13015  -0.0099683
0.009845    -0.03238  -0.0021729    0.014717    -0.59365    -0.11066  -0.0089938
0.0046481   -0.033354  -0.0080194    0.019589     -0.5079   -0.079802  -0.0060706
0.0010752   -0.032055   -0.018413    0.025111    -0.40006   -0.039526  -0.0028225
-0.00054884   -0.028482   -0.028807     0.02706    -0.28768   0.0033489  -0.0024977
0.0014   -0.025234   -0.036602    0.024786    -0.19154    0.042001  -0.0028225
0.0078962    -0.02361   -0.038551    0.018615    -0.14184    0.071234 -0.00054884
0.01894   -0.021012   -0.036602    0.012119    -0.16263    0.091372    0.003024
0.029009   -0.016464   -0.028482    0.003024    -0.25325     0.10339   0.0046481
0.031607  -0.0083442   -0.015815   -0.007045    -0.37992     0.10631   0.0023744
0.022837   0.0020496  -0.0034721   -0.017114    -0.48873     0.10047  0.00042559
0.0056225   0.0095202   0.0043233   -0.025559    -0.52869    0.091372  -0.0024977
-0.013216    0.012768   0.0062721   -0.032055    -0.48354      0.0852  -0.0037969
-0.022636    0.012768   0.0049729   -0.030106    -0.37245      0.0852  -0.0041217
-0.020037    0.012768   0.0062721   -0.018738    -0.24383    0.092346  -0.0011985
-0.010293    0.013743    0.012443  0.00042559    -0.14606     0.10144   0.0069217
0.00010078     0.01764    0.020564     0.01829    -0.11748     0.10794    0.016991
0.0088706    0.021863    0.024461    0.028034    -0.16328     0.10794    0.023812
0.011469    0.027709    0.022188    0.030308    -0.26072    0.097868    0.025761
0.0075714    0.032582    0.016666     0.02706    -0.36433    0.076755    0.023812
-0.00022403    0.030957    0.010819    0.022837    -0.42994    0.051745    0.020239
-0.0054209    0.023162    0.003024    0.016341    -0.43969    0.031932    0.017316
-0.0050961    0.012443  -0.0028225   0.0069217    -0.39649    0.022837    0.019264
-0.00054884   0.0033489  -0.0031473  -0.0028225    -0.31106    0.024786    0.029009
0.0046481  -0.0024977   0.0017248   -0.010293    -0.19348    0.034855    0.042651
0.010819  -0.0050961   0.0088706   -0.010618   -0.065186    0.047847     0.05142
0.014392  -0.0057458    0.011794  -0.0041217    0.054019    0.063113     0.05142
0.014717  -0.0044465   0.0085458   0.0091954     0.15373    0.074806      0.0433
0.014717  -0.0011985 -0.00022403    0.024461     0.23396    0.079354    0.031607
0.013743   0.0023744  -0.0093186    0.039078     0.29373    0.077405    0.021538
0.01017   0.0036737   -0.011267    0.049796      0.3327    0.070259    0.016666
0.0065969   0.0010752  -0.0089938    0.054668     0.35317    0.062789    0.014068
0.00075039  -0.0041217  -0.0047713    0.055643     0.36259    0.052395    0.012119
-0.0073698   -0.010943  -0.0028225    0.054668     0.36453    0.040052   0.0095202
-0.010618   -0.017764  -0.0024977     0.05142     0.36259    0.023487   0.0078962
-0.011592   -0.022961  -0.0076946    0.045249     0.35317   0.0020496   0.0052977
-0.014516    -0.02426   -0.016789    0.038103     0.33205   -0.021337  -0.0024977
-0.02361   -0.021337   -0.021986    0.033556     0.30022   -0.042124   -0.011917
-0.037577   -0.015165    -0.02426     0.03453     0.25767   -0.057065   -0.017764
-0.052518  -0.0067202   -0.027508     0.03518     0.19986   -0.063237    -0.01549
-0.061288  0.00075039   -0.028157     0.03518     0.12645   -0.059989  -0.0060706
-0.059014   0.0065969   -0.019388    0.036154    0.051096   -0.045047   0.0033489
-0.047321    0.012443  -0.0011985    0.039078  -0.0083442   -0.021661   0.0062721
-0.033679     0.01829    0.019589    0.044275   -0.034329   0.0020496   0.0020496
-0.023935    0.021538    0.031932    0.048822    -0.02426    0.019589  -0.0047713
-0.01484    0.023487    0.031282    0.048497    0.021863    0.028684  -0.0060706
-0.0054209    0.022837    0.021538    0.039727     0.09462    0.029333  -0.0015233
0.0033489    0.021538   0.0095202    0.024461      0.1768    0.023812   0.0059473
0.0072465    0.017965  -0.0060706    0.008221     0.25118    0.016991    0.009845
0.0039985    0.013093   -0.023935  -0.0060706      0.2986   0.0046481    0.011144
-0.00087364   0.0072465   -0.034654    -0.01614     0.31062   -0.011267    0.010495
-0.0060706   0.0043233    -0.03303   -0.023285     0.28528   -0.027183   0.0088706
-0.012242   0.0043233   -0.022961   -0.027833     0.23136   -0.038876    0.008221
-0.017439   0.0046481   -0.010618   -0.026533     0.16153    -0.04992   0.0095202
-0.024909   0.0017248  -0.0011985   -0.020362     0.09397   -0.059664    0.011469
-0.03303  -0.0057458   0.0046481   -0.018413    0.045899   -0.065835    0.012119
-0.038876   -0.016464   0.0085458   -0.023935    0.026735   -0.068109   0.0062721
-0.036927   -0.026209   0.0085458   -0.034654    0.029658   -0.069083  -0.0093186
-0.030431   -0.031081   0.0039985   -0.042774     0.03453   -0.072006   -0.030106
-0.025234   -0.030756  -0.0015233   -0.046347     0.01829   -0.076879   -0.046022
-0.024585   -0.028807  -0.0037969   -0.042774   -0.029132   -0.077853   -0.047646
-0.025884   -0.029782   -0.007045   -0.030756   -0.092794   -0.071682   -0.034329
-0.026858   -0.033354   -0.013216  -0.0050961    -0.15029   -0.059989   -0.010618
-0.026858   -0.036927   -0.021337     0.02706    -0.17757   -0.042774    0.009845
-0.026533   -0.036602   -0.030106    0.049147    -0.16068   -0.023935    0.021213
-0.026209   -0.034978   -0.034654    0.054344    -0.10741  -0.0047713    0.024137
-0.027183   -0.035953   -0.034329    0.053694   -0.034654   0.0091954    0.019264
-0.029457   -0.039851   -0.030431     0.06019    0.045249    0.011794   0.0095202
-0.030756   -0.044723   -0.029457    0.062789     0.12223  0.00075039  -0.0047713
-0.027833   -0.045047   -0.034654     0.03453     0.18264   -0.021337   -0.021986
-0.019388   -0.040825   -0.038551   -0.021337     0.22584    -0.04992   -0.039851
-0.008669   -0.032055   -0.033354   -0.066485     0.25735    -0.07493   -0.055116
0.0014   -0.018088   -0.012242   -0.063561     0.28138   -0.089221    -0.06616
0.012443 -0.00022403     0.01894    -0.02361     0.29827   -0.092469   -0.064861
0.018615     0.01894    0.049472   0.0069217     0.30639   -0.088896   -0.053168
0.01829    0.033881    0.066037  -0.0057458     0.30152   -0.087272   -0.037577
0.011144    0.039078    0.063113   -0.054792     0.28073   -0.089221   -0.027833
0.0020496     0.03583    0.041351    -0.11488     0.24695   -0.094093   -0.026533
-0.0050961    0.026085   0.0078962    -0.16068      0.2083    -0.09929   -0.028482
-0.010293    0.011144   -0.024909    -0.17237     0.17192    -0.10124   -0.027508
-0.012242  -0.0037969   -0.047971    -0.14769     0.14821   -0.096042    -0.02361
-0.008669   -0.012567   -0.055766   -0.098316     0.14789   -0.085973   -0.018413
0.0010752   -0.014516   -0.044723   -0.043748      0.1651   -0.077853   -0.010943
0.013743  -0.0096434   -0.025559 -0.00054884     0.18102   -0.075255  -0.0050961
0.025761  -0.0024977  -0.0080194    0.027709     0.18004   -0.078178  -0.0044465
0.033881      0.0014  0.00042559    0.039402     0.15016   -0.079477  -0.0093186
0.036154 -0.00022403   0.0017248    0.035505    0.089098   -0.079152    -0.01549
0.032582  -0.0047713   0.0036737    0.024137   0.0088706   -0.081101   -0.017764
0.026085  -0.0054209   0.0078962    0.012119   -0.067459   -0.087597   -0.012567
0.017316  -0.0028225    0.012119   0.0026992    -0.12268   -0.093444  -0.0031473
0.0078962   0.0020496    0.015692  -0.0011985    -0.15321    -0.09117   0.0026992
0.00042559   0.0052977    0.016666  -0.0037969    -0.16295   -0.075904   0.0026992
-0.0047713   0.0039985    0.016341  -0.0021729    -0.16035   -0.054142  -0.0015233
-0.0080194  -0.0028225    0.015692  0.00010078    -0.15126    -0.03303  -0.0076946
-0.0073698  -0.0089938    0.017316  0.00075039    -0.13827   -0.019388  -0.0099683
-0.0057458   -0.008669    0.019264   0.0017248     -0.1243  -0.0096434   -0.010293
-0.0047713  -0.0015233    0.021863  0.00042559    -0.11131  -0.0028225  -0.0083442
-0.0015233   0.0078962    0.021213  -0.0037969   -0.097991   0.0017248  -0.0044465
0.0039985    0.016991    0.013743  -0.0089938   -0.081751   0.0052977 -0.00087364
0.009845    0.025111   0.0020496   -0.013541   -0.064211   0.0075714   0.0010752
0.013743    0.030633   -0.008669   -0.010618   -0.050894     0.01017   0.0043233
0.016991    0.032582    -0.01614  -0.0034721    -0.04927    0.015042     0.01017
0.019914    0.033231   -0.019388   0.0026992   -0.064861    0.020239    0.016666
0.024461    0.033231   -0.023285   0.0043233   -0.095717    0.024137    0.021863
0.029333    0.033556   -0.026209   0.0043233    -0.13827    0.022512    0.025761
0.032906     0.03518   -0.028157   0.0023744    -0.18666    0.016666    0.029658
0.031282    0.036479   -0.027833  -0.0034721    -0.22824    0.011144    0.027709
0.02641    0.031282    -0.02361   -0.014516     -0.2461   0.0085458    0.020564
0.022512    0.022512   -0.019712   -0.027833    -0.22791    0.011144    0.011469
0.021538    0.015367   -0.021661   -0.040175    -0.17594    0.019589   0.0052977
0.027709   0.0088706   -0.025884   -0.050569    -0.10026    0.032582   0.0049729
0.033231   0.0026992   -0.027183   -0.055766   -0.011592    0.046873   0.0088706
0.033881  -0.0031473   -0.026858   -0.055441    0.089098    0.055318    0.010819
0.023812  -0.0093186   -0.024909   -0.048296     0.18427    0.053694   0.0062721
0.0043233    -0.01549   -0.021986   -0.033354     0.25475    0.043625  -0.0054209
-0.015815   -0.023935   -0.020037   -0.015165     0.28528    0.028359   -0.016464
-0.027508   -0.033679   -0.021661  -0.0021729     0.26839    0.016341   -0.018738
-0.027508   -0.042449   -0.024585   0.0046481      0.2109    0.011469   -0.012567
-0.018088   -0.048945   -0.025234   0.0088706      0.1245    0.010495  -0.0044465
-0.008669   -0.053168   -0.029782    0.011144    0.017965   0.0078962  -0.0015233
-0.0044465   -0.053817   -0.038876    0.015042    -0.10254 -0.00087364  -0.0054209
-0.0063954   -0.047971   -0.046671    0.023487    -0.23246   -0.010943   -0.015815
-0.011917   -0.033679    -0.04862    0.036479    -0.36661   -0.019712   -0.025559
-0.017439   -0.014191    -0.04115    0.049147     -0.5066   -0.030106   -0.032705
-0.02361   0.0033489    -0.02426    0.055318    -0.64464   -0.045697   -0.033679
-0.027833    0.015042  -0.0096434    0.053369     -0.7632   -0.069733   -0.029782
-0.030431    0.020888 -0.00022403    0.046548    -0.83725   -0.095068   -0.022636
-0.028482    0.021538   0.0039985    0.038753    -0.84245    -0.11553   -0.013866
-0.021337    0.018615    0.003024    0.031607    -0.77197    -0.13145  -0.0063954
-0.0096434    0.013743  -0.0018481     0.02706     -0.6362    -0.14184 -0.00022403
0.0072465   0.0085458   -0.011267    0.025436    -0.46437    -0.14574   0.0056225
0.023812    0.003024    -0.02361    0.025436    -0.28281    -0.13892    0.012119
0.032906 -0.00087364   -0.035628    0.024461    -0.10579    -0.12333    0.022512
0.03453  -0.0031473   -0.043099    0.023162    0.049796    -0.10644    0.031282
0.029658  -0.0050961   -0.044073    0.020888     0.15179   -0.095717    0.031932
0.020888   -0.008669   -0.039201     0.01894     0.16543   -0.093769    0.019589
0.0069217   -0.013216   -0.032055    0.017316    0.073832    -0.10026  -0.0015233
-0.0047713    -0.01614   -0.026858    0.011469    -0.10968    -0.11358   -0.023285
-0.011592   -0.018088   -0.025884  -0.0015233    -0.33607    -0.12657   -0.040175
-0.013866   -0.019063   -0.030106   -0.019063    -0.54395    -0.13437   -0.042124
-0.013216   -0.018738   -0.034978   -0.033679    -0.67582    -0.13469   -0.031406
-0.0099683   -0.013866   -0.038876   -0.038876    -0.69856     -0.1282   -0.017114
-0.0054209  -0.0067202   -0.040825   -0.035628    -0.61638    -0.11261  -0.0054209
0.0014  -0.0011985   -0.042449   -0.023285    -0.45853   -0.088896   0.0043233
0.008221    0.003024    -0.04115   -0.007045    -0.26559   -0.059664    0.016016
0.010819   0.0039985   -0.034654   0.0078962   -0.077203   -0.027183     0.02706
0.0059473   0.0046481    -0.02426    0.019589    0.080653   0.0046481    0.031607
-0.0031473   0.0052977   -0.011267    0.027385     0.19953    0.030957    0.031607
-0.012567   0.0072465   0.0033489     0.03518     0.28366    0.049796    0.029333
-0.018088    0.010819    0.019264    0.045899     0.34082    0.062139    0.028034
-0.019712    0.011794    0.035505    0.062464     0.38013    0.067986    0.024461
-0.017764    0.011469    0.049472    0.080978     0.40871    0.066686    0.016341
-0.017114    0.011794    0.055643    0.095919     0.43015    0.066362   0.0039985
-0.021986    0.011794     0.05142     0.10209     0.44671    0.069285  -0.0089938
-0.031081    0.011794    0.041676    0.099167      0.4623    0.074157   -0.018413
-0.042774   0.0095202    0.035505    0.087149     0.47562    0.073182   -0.022311
-0.051544   0.0049729    0.035505    0.069285     0.47659    0.067011   -0.023935
-0.059014   0.0010752    0.039402    0.049796     0.45775    0.054019   -0.025559
-0.060313  -0.0011985    0.038428    0.031282      0.4256    0.039402   -0.028482
-0.056741   0.0010752    0.029658    0.019264     0.39669    0.028684   -0.032055
-0.049595   0.0059473    0.013418    0.010495     0.38532     0.02641   -0.034654
-0.039851   0.0091954  -0.0060706   0.0075714     0.39831    0.033231   -0.033679
-0.028482    0.010495   -0.021986    0.012443      0.4256    0.046223   -0.025884
-0.017764    0.011144   -0.030431    0.024461     0.44151    0.062139   -0.015165
-0.0093186   0.0069217   -0.034978    0.038103      0.4152    0.079354  -0.0054209
-0.0034721  -0.0011985   -0.035628    0.046873     0.32718     0.09462  0.00042559
0.00075039  -0.0099683    -0.03303    0.047523     0.17615     0.10696   0.0026992
0.008221   -0.017439   -0.029132    0.038428   -0.035303     0.11086   0.0043233
0.01829   -0.019388   -0.027833    0.022512    -0.31821     0.10079   0.0062721
0.023812    -0.01614   -0.031081   0.0036737    -0.67485    0.080003    0.010819
0.023812   -0.011267   -0.036602   -0.013866     -1.0815    0.056942    0.019589
0.016666  -0.0060706   -0.042774   -0.025559     -1.4787    0.042651    0.028359
0.008221  -0.0024977   -0.044398   -0.029132     -1.7808    0.037778    0.031282
0.0014  0.00075039   -0.038876   -0.023935     -1.9111    0.036479    0.027385
-0.0031473   0.0056225   -0.024585    -0.01549     -1.8227    0.034855     0.01894
-0.0047713    0.010819  -0.0044465  -0.0093186     -1.5268    0.030957   0.0049729
-0.007045    0.013093    0.015042  -0.0076946     -1.0854    0.025761  -0.0080194
-0.015165    0.014717    0.026735  -0.0067202    -0.58488    0.023812   -0.017764
-0.027833     0.01764    0.028684  -0.0047713     -0.1178    0.026085   -0.021337
-0.038227    0.020888    0.019264   0.0020496     0.24078    0.030308   -0.021661
-0.04115    0.022837   0.0065969   0.0095202     0.45516    0.037454   -0.021986
-0.039201    0.023812  -0.0018481    0.015692     0.53246    0.047847   -0.018738
-0.037252    0.025111  -0.0034721    0.022512     0.50485     0.06084   -0.010943
-0.035303    0.024786  -0.0015233    0.027709     0.41748    0.071558  -0.0011985
-0.034978    0.023162  0.00010078    0.031282     0.31744    0.073507   0.0033489
-0.035303    0.019914   0.0017248    0.029009     0.23721    0.067986 -0.00087364
-0.034004    0.014392   0.0056225    0.024137     0.18784    0.056942  -0.0093186
-0.030431    0.008221    0.012768    0.022512      0.1729    0.042975   -0.013866
-0.023285   0.0075714    0.022512    0.026085     0.19206    0.029983  -0.0089938
-0.017114    0.012768    0.029983     0.03518     0.24923    0.020888  0.00075039
-0.014516    0.023487    0.033881    0.042975     0.33758    0.014068   0.0049729
-0.013216    0.033556    0.036479     0.04395     0.44184    0.009845  -0.0021729
-0.012892    0.038753     0.03453    0.037778     0.54253   0.0072465    -0.01549
-0.018413    0.033881    0.028684    0.025761     0.62081   0.0017248   -0.028482
-0.030431     0.01894    0.019589   0.0078962     0.66368  -0.0093186   -0.036278
-0.045047  -0.0037969   0.0078962  -0.0089938     0.66823   -0.027508   -0.044073
-0.059014   -0.027183  -0.0044465   -0.022311     0.64517    -0.04992   -0.051868
-0.068758   -0.043748    -0.01614   -0.029782     0.61334   -0.073631   -0.056741
-0.072331   -0.052193   -0.021012   -0.034329     0.58963   -0.088896   -0.058689
-0.070382   -0.052518   -0.018088   -0.035303     0.57988   -0.090196   -0.054142
-0.06681   -0.047646  -0.0093186   -0.030756     0.57533   -0.077853   -0.043748
-0.062912   -0.040175  0.00042559   -0.021661     0.56462   -0.059339   -0.029782
-0.056741   -0.030756   0.0075714   -0.011917     0.54123    -0.04115   -0.018738
-0.045697   -0.022636    0.012119  -0.0037969      0.5042   -0.027833   -0.016464
-0.027833   -0.018413    0.012768  -0.0031473     0.46198   -0.022636   -0.021661
-0.0024977   -0.018088   0.0046481   -0.011592      0.4204   -0.024909    -0.02361
0.023487   -0.020687   -0.010293   -0.029782     0.37915   -0.034329   -0.016789
0.041351   -0.023285   -0.026533   -0.052843     0.32686   -0.051544  -0.0050961
0.047198   -0.026533   -0.034978   -0.071682      0.2554   -0.072006   0.0072465
0.040377   -0.027508   -0.034978   -0.079152     0.17712   -0.092145    0.015367
0.026085   -0.023935   -0.028157   -0.076879     0.10924    -0.10903     0.01829
0.01017   -0.017439   -0.016789   -0.068434    0.067336    -0.12073    0.013743
0.0010752  -0.0099683   -0.010293   -0.056091     0.05207    -0.12625   0.0072465
0.0010752  -0.0028225   -0.012567    -0.04115    0.047198     -0.1295   0.0020496
0.010819   0.0052977   -0.020362   -0.027833    0.029983    -0.13112    0.003024
0.02706    0.014392   -0.025884   -0.017439  -0.0034721     -0.1334   0.0091954
0.041351    0.023162    -0.02361   -0.010293   -0.036927    -0.13567    0.019264
0.047847    0.027385    -0.01484  -0.0073698   -0.050569    -0.13502    0.027709
0.044599    0.024786   -0.007045  -0.0076946   -0.039851     -0.1295    0.029658
0.037129     0.01829  -0.0041217   -0.012567  -0.0093186    -0.12365    0.024461
0.031932   0.0091954   -0.007045   -0.021337    0.023812    -0.11618    0.012119
0.030308 -0.00054884   -0.013541   -0.034654    0.046223    -0.10838  -0.0034721
0.023487  -0.0096434   -0.021661   -0.047646    0.051745   -0.097341    -0.01614
0.012119   -0.015815   -0.029782    -0.05804      0.0433   -0.082076   -0.022961
0.00075039   -0.018738   -0.037902   -0.061937    0.019264   -0.062587   -0.022311
-0.0083442   -0.020362   -0.046347   -0.062262   -0.027183   -0.043099   -0.017114
-0.013866   -0.022636   -0.056416   -0.061613   -0.086298   -0.030431   -0.014516
-0.018413   -0.028157   -0.068758   -0.063561     -0.1321   -0.030431   -0.015165
-0.021986   -0.033354     -0.0824   -0.068109     -0.1308   -0.037577   -0.020362
-0.021337   -0.036602   -0.093769   -0.071357   -0.059014   -0.044723   -0.025234
-0.016789    -0.03238   -0.094743   -0.070382    0.071558   -0.048296   -0.020687
-0.008669   -0.019388   -0.072981   -0.065835     0.21805   -0.046022  -0.0063954
0.0033489   0.0010752   -0.028157   -0.062262     0.33725   -0.039526   0.0091954
0.015367    0.022837    0.022512   -0.064536     0.40611    -0.03238    0.019914
0.022512    0.037454     0.06019   -0.075255     0.41975   -0.027508    0.024137
0.022837    0.040377    0.071883   -0.085324      0.3876   -0.026209    0.021863
0.019914     0.03518    0.062464   -0.081426     0.32751    -0.03238    0.014068
0.017316    0.025761    0.042326   -0.055441      0.2554   -0.044723   0.0043233
0.015042    0.020564    0.023162   -0.011267     0.18492   -0.059339 -0.00087364
0.013743    0.021538    0.011144    0.039727     0.12483   -0.072331  -0.0018481
0.012443    0.026735   0.0075714    0.087799    0.073507   -0.080451  0.00075039
0.008221    0.033556    0.012119      0.1232    0.020239   -0.082076   0.0046481
0.0052977    0.040052     0.01829     0.14107   -0.045047   -0.078503   0.0078962
0.0072465    0.044275    0.023487     0.14399    -0.13112   -0.072331    0.011144
0.0091954     0.04395    0.024786     0.13457    -0.24156   -0.063561    0.014068
0.013418    0.038753    0.020564     0.11216    -0.36726   -0.055766    0.013418
0.015692    0.031282    0.011794    0.079029    -0.48549    -0.04862    0.010495
0.019264    0.021538   0.0020496    0.046548    -0.57708   -0.041475   0.0059473
0.025761    0.011144 -0.00087364    0.021863    -0.62808   -0.038551   0.0017248
0.032257   0.0020496  -0.0011985   0.0075714     -0.6323   -0.040825 -0.00022403
0.033556  -0.0028225   0.0023744    0.009845    -0.59235   -0.046996  0.00075039
0.030308  -0.0044465   0.0085458    0.028684    -0.52414   -0.045372   0.0033489
0.028684  -0.0047713    0.012768    0.053044    -0.44911   -0.031406   0.0065969
0.02706  -0.0060706    0.013093    0.067986    -0.37765   -0.010618     0.01017
0.022837  -0.0083442   0.0085458    0.063113    -0.31431    0.008221    0.010819
0.015692   -0.013216  -0.0021729    0.029983     -0.2591    0.021538    0.009845
0.0075714   -0.018413   -0.019063   -0.027183    -0.21005    0.033556   0.0085458
-0.00087364   -0.022311    -0.04115   -0.087597     -0.1649      0.0433    0.011144
-0.010943   -0.024585   -0.063237    -0.13177     -0.1191     0.05142     0.01829
-0.017764   -0.023935   -0.076554    -0.14639   -0.076229    0.058891    0.025111
-0.021661   -0.019063   -0.077853    -0.13177   -0.041799    0.062464    0.027385
-0.021986   -0.011267    -0.07493   -0.094093   -0.017764    0.060515    0.029009
-0.020687  -0.0037969   -0.067784   -0.043748  -0.0093186    0.051745    0.033881
-0.016464   0.0010752   -0.054792    0.010495   -0.014516    0.041676    0.039402
-0.0093186      0.0014   -0.039201    0.056292   -0.029132    0.032906    0.041676
-0.0028225  0.00042559   -0.024585    0.080653   -0.052193     0.02641    0.039078
0.00042559  -0.0024977   -0.013541    0.083901   -0.075904    0.022837    0.029983
0.0020496  -0.0083442   -0.010293    0.072858   -0.090196    0.020564    0.016991
0.0020496   -0.016464   -0.012242    0.053044   -0.090845    0.021863   0.0069217
-0.00022403   -0.022636    -0.01484    0.034206   -0.081101    0.028359   0.0036737
-0.0031473    -0.02361   -0.011267     0.01894   -0.068758    0.040377   0.0023744
-0.0063954   -0.017764 -0.00054884   0.0075714   -0.062262    0.048822  -0.0021729
-0.010943  -0.0096434    0.015042  -0.0011985   -0.064536    0.048822  -0.0089938
-0.01549  -0.0021729    0.028359   -0.013866   -0.073955    0.042975   -0.014191
-0.016789   0.0017248    0.036804   -0.027183   -0.092794    0.033556   -0.015165
-0.020037  0.00042559    0.039402   -0.038227    -0.12235    0.023162   -0.011592
-0.027183  -0.0057458    0.036479   -0.042449    -0.16718     0.01764  -0.0037969
-0.030431   -0.012892    0.026085   -0.046671    -0.23116    0.018615   0.0036737
-0.030106   -0.019712   0.0059473   -0.058689    -0.31074    0.026085   0.0078962
-0.027508   -0.022311   -0.020362   -0.084674    -0.39064    0.038753   0.0085458
-0.021337   -0.018413   -0.043423    -0.11553    -0.46243    0.055318   0.0078962
-0.0089938   -0.010293   -0.055116    -0.13599    -0.52219    0.070584   0.0085458
0.0078962  0.00042559   -0.056091    -0.12625    -0.57026    0.077405     0.01017
0.021863   0.0091954   -0.045372    -0.07428    -0.60729    0.074157    0.013418
0.032257    0.013093   -0.025884    0.016341    -0.63555    0.062139    0.013418
0.032906    0.008221  -0.0031473     0.12807    -0.65666    0.042975    0.012119
0.024137  -0.0041217    0.017316     0.23721    -0.66738     0.01764   0.0088706
0.01017   -0.014191    0.028684     0.32134    -0.66088  -0.0076946   0.0036737
-0.0018481   -0.017439    0.033556     0.36356     -0.6284   -0.025559  -0.0031473
-0.0031473   -0.011917    0.037129     0.35771    -0.56831   -0.030106   -0.010293
0.0039985  -0.0024977    0.039402     0.30964    -0.47964    -0.02361   -0.013216
0.01017   0.0043233    0.040377     0.23559    -0.36953   -0.013541   -0.010943
0.011144   0.0046481    0.038103     0.15828    -0.25292  -0.0083442  -0.0083442
0.0072465 -0.00054884    0.033881    0.093645    -0.14899  -0.0093186   -0.010293
0.0023744  -0.0067202    0.027385    0.043625   -0.064861   -0.013541   -0.016789
-0.0015233   -0.012242    0.019589   0.0065969 -0.00054884   -0.021012   -0.021337
-0.007045   -0.013866    0.013093   -0.018738    0.054668   -0.028482   -0.023285
-0.013866   -0.012567    0.011144   -0.041475     0.11021    -0.03173   -0.025884
-0.020362   -0.011917   0.0078962   -0.063237     0.17387   -0.027833   -0.028482
-0.025234   -0.013216 -0.00054884   -0.071032     0.24988   -0.018413   -0.029132
-0.028157   -0.013541   -0.010618    -0.04927     0.33823  -0.0037969   -0.025234
-0.029782   -0.008669   -0.018088  0.00042559     0.43729    0.014068   -0.015165
-0.03173  0.00075039   -0.019388    0.058891     0.53538    0.028034  -0.0041217
-0.034654   0.0095202   -0.012892     0.10339     0.62146    0.031282   0.0033489
-0.037577    0.015692  -0.0028225     0.11995     0.68739    0.025761   0.0017248
-0.040175    0.016991   0.0043233     0.10891     0.72767    0.016341  -0.0057458
-0.042774    0.016991   0.0017248    0.078055     0.74066    0.012768   -0.014191
-0.046022    0.016666   -0.011592    0.035505     0.72929    0.016991   -0.021337
-0.046347    0.014392   -0.030106  -0.0063954     0.69844    0.023162   -0.025234
-0.044398   0.0088706   -0.046671   -0.039201     0.65816    0.023162    -0.02426
-0.041799  0.00010078   -0.056741   -0.059014     0.60944    0.014068   -0.019712
-0.038876  -0.0076946    -0.05739    -0.06681     0.54578  0.00010078   -0.015165
-0.038876   -0.015165   -0.052193   -0.067134     0.45646   -0.015165   -0.012892
-0.042449   -0.021337   -0.044723   -0.069083     0.33335   -0.034004   -0.012892
-0.046996   -0.025884   -0.038876   -0.076879     0.17874   -0.052843   -0.013866
-0.051544   -0.029782    -0.03303   -0.087922    0.010495   -0.065835    -0.01484
-0.056416   -0.034329   -0.028807    -0.10026    -0.14606   -0.070707    -0.01484
-0.059014    -0.04115    -0.02361    -0.12365    -0.26364   -0.069083   -0.012242
-0.059014   -0.047321   -0.018738    -0.17594    -0.32925   -0.063237  -0.0083442
-0.056091    -0.04927    -0.01484    -0.26689    -0.35849   -0.054792  -0.0060706
-0.052193   -0.046022   -0.013866    -0.39389    -0.38415   -0.043423   -0.007045
-0.049595     -0.0405   -0.018738     -0.5472    -0.43027   -0.033679  -0.0099683
-0.047321   -0.034004   -0.028157      -0.707    -0.50497   -0.030431  -0.0099683
-0.041799   -0.025884   -0.042449    -0.84472    -0.60079   -0.035303   -0.008669
-0.035953   -0.017439   -0.055441    -0.94671    -0.69401    -0.04862  -0.0073698
-0.034329   -0.011592   -0.069408     -1.0123     -0.7554   -0.068109  -0.0089938
-0.035303  -0.0080194    -0.08305     -1.0289    -0.76125   -0.088572   -0.013541
-0.037252  -0.0050961   -0.092794    -0.94736    -0.70148    -0.10416   -0.021337
-0.036602   0.0023744   -0.088247    -0.69888    -0.58033    -0.10774   -0.029132
-0.030756    0.012443   -0.060313    -0.25942     -0.4163   -0.095717   -0.034654
-0.019388    0.025111   -0.011267     0.29827     -0.2435   -0.074605   -0.038551
-0.0021729    0.034855    0.041027     0.82511   -0.093119   -0.053168   -0.038551
0.016991    0.042001    0.079679      1.2032     0.01764   -0.038551   -0.036278
0.03453    0.044599    0.099167       1.375    0.088773   -0.029782   -0.032055
0.048172    0.046548    0.099492      1.3568     0.13165   -0.024909   -0.024585
0.055968    0.048497    0.085525       1.209     0.15796   -0.022311   -0.014191
0.056942    0.048822    0.063113      1.0073     0.17615   -0.018413  -0.0047713
0.055968    0.045574    0.037454     0.81115     0.18329  -0.0089938   0.0017248
0.054344    0.037778    0.015692     0.64939     0.17712   0.0036737   0.0020496
0.05207     0.02706   0.0056225     0.52694     0.16056    0.016666  -0.0050961
0.047847    0.015367   0.0069217     0.43404     0.14659    0.024786   -0.011267
0.0433   0.0072465     0.01017     0.35706     0.14919     0.02641   -0.012242
0.040377   0.0049729    0.011144     0.28561     0.17387    0.026085  -0.0083442
0.038753   0.0088706   0.0091954     0.21285     0.22357    0.025436   0.0020496
0.037129    0.016016   0.0059473     0.13587     0.29503    0.023487    0.013743
0.036479    0.022188   0.0033489    0.062464     0.38175    0.023162    0.021863
0.040052    0.025111 -0.00087364 -0.00022403     0.47335    0.022512    0.021213
0.045574    0.021538  -0.0093186   -0.046022     0.54935    0.022188    0.016341
0.049472    0.010819   -0.020687   -0.078503     0.58475    0.022837   0.0091954
0.050121  -0.0041217   -0.032055    -0.10026     0.56039    0.022837   0.0026992
0.049472    -0.01614   -0.037252    -0.11228     0.47984    0.021213 -0.00087364
0.048497    -0.02426   -0.036927    -0.11845     0.37753    0.019914  -0.0021729
0.047523   -0.028807   -0.032705    -0.11943     0.28561    0.017316 -0.00087364
0.042651   -0.034654   -0.030431    -0.11651     0.21642    0.013093   0.0059473
0.036804   -0.038551   -0.032055    -0.11293     0.17355   0.0078962    0.016991
0.028684   -0.038876   -0.036278    -0.11098     0.15373   0.0023744    0.026735
0.017316   -0.034654   -0.040175    -0.11196     0.15146 -0.00087364     0.02706
0.0017248   -0.029132   -0.039526     -0.1178     0.15633  0.00075039    0.017965
-0.0099683   -0.022961   -0.035953    -0.12398     0.16608   0.0059473   0.0052977
-0.01614   -0.018413   -0.032705     -0.1269     0.17939    0.010819  -0.0073698
-0.015815   -0.013866   -0.030106     -0.1295     0.18654    0.014068    -0.01614
-0.0099683   -0.011267   -0.021012    -0.13567      0.1742    0.016666   -0.016789
0.0020496  -0.0060706  -0.0080194    -0.14574     0.13684    0.019264   -0.010293
0.016991  0.00075039   0.0062721    -0.15841    0.079354    0.022188 -0.00054884
0.029009   0.0088706    0.015692     -0.1727   0.0085458    0.024786   0.0062721
0.036154    0.015692    0.012119    -0.18991   -0.068434    0.024786   0.0078962
0.036154    0.019264  -0.0024977     -0.2081    -0.13794    0.022188   0.0059473
0.034206    0.020888   -0.021986    -0.22077    -0.18796    0.014068    0.003024
0.030633    0.022188   -0.039526    -0.22174     -0.2159  0.00010078   0.0036737
0.024786    0.024786   -0.050569    -0.20972    -0.22597   -0.014191   0.0085458
0.01829    0.024461   -0.053817    -0.19446    -0.22791   -0.025234    0.016341
0.0085458     0.01829   -0.051219    -0.19056    -0.23246   -0.033354    0.021213
-0.0044465   0.0078962   -0.049595    -0.19738    -0.24188   -0.038876    0.019914
-0.017114   0.0017248   -0.052843     -0.2068    -0.24545   -0.043423    0.012768
-0.024585      0.0014   -0.060963    -0.20778    -0.23344   -0.048296   0.0033489
-0.026209   0.0062721   -0.067784    -0.19446     -0.2029   -0.052193  -0.0021729
-0.026533    0.012119   -0.064211    -0.16393    -0.15743   -0.057715  -0.0031473
-0.028482    0.015367   -0.050244    -0.12073    -0.10254   -0.065835 -0.00054884
-0.034329    0.012119   -0.033679   -0.075255   -0.045372   -0.071357   0.0052977
-0.042774   0.0046481   -0.022311   -0.037252  -0.0028225   -0.074605    0.014717
-0.048945  -0.0047713    -0.01614    -0.01549    0.012119   -0.078178    0.021863
-0.048296   -0.011267   -0.012567  -0.0099683   -0.018738   -0.085648    0.019264
-0.043748    -0.01484   -0.008669   -0.014191    -0.10449   -0.096692   0.0088706
-0.040825    -0.01614  -0.0037969   -0.020687    -0.23051    -0.10546  -0.0015233
-0.041799    -0.01549    0.003024   -0.027508    -0.36791    -0.11033  -0.0034721
-0.044398    -0.01549    0.010819   -0.035953    -0.47996    -0.11033 -0.00022403
-0.047971   -0.012892    0.016666   -0.046022    -0.53518    -0.10774   0.0039985
-0.04862  -0.0063954    0.017965   -0.054467    -0.51992    -0.10189   0.0052977
-0.043423  -0.0031473     0.01764   -0.055116    -0.43677   -0.096042   0.0020496
-0.034978  -0.0060706    0.022188   -0.046347    -0.30554   -0.090845   -0.007045
-0.029132   -0.012242    0.026735   -0.035303    -0.15711   -0.086948   -0.020037
-0.027508   -0.017439    0.029009   -0.023285   -0.015815    -0.08305   -0.034978
-0.030106   -0.020687    0.023812   -0.010293     0.10599   -0.079477   -0.047646
-0.034654   -0.022311    0.016991  -0.0067202      0.2044   -0.077528   -0.055116
-0.037902   -0.022636    0.011144   -0.016789     0.27911    -0.07428   -0.055766
-0.038551   -0.019063   0.0072465   -0.035303     0.33433   -0.067459   -0.048296
-0.034329   -0.011267   0.0046481   -0.055766     0.37623   -0.058689   -0.035303
-0.030431   0.0010752   0.0023744   -0.069408     0.41001   -0.048945   -0.022311
-0.027508    0.016016  -0.0024977   -0.073631     0.43859   -0.040825   -0.013541
-0.026858    0.027385   -0.011592   -0.072331      0.4597   -0.032705   -0.011917
-0.024585    0.033231   -0.020037   -0.067134      0.4688   -0.021661   -0.014516
-0.02426     0.03583   -0.023285   -0.056416     0.46165  -0.0099683   -0.018738
-0.02426    0.037129   -0.019063     -0.0405     0.43859   0.0023744   -0.021986
-0.023285    0.039078   -0.012242   -0.022636     0.40416   0.0085458   -0.021661
-0.019388    0.039727  -0.0034721  -0.0057458     0.34667   0.0085458    -0.01549
-0.012892    0.039078    0.008221   0.0046481     0.23234   0.0020496  -0.0083442
-0.008669    0.036479    0.021863    0.010819    0.029333  -0.0060706  -0.0028225
-0.0099683    0.032582     0.03453    0.012443    -0.26072   -0.010293  -0.0031473
-0.015815    0.028359    0.042651   0.0095202    -0.58293  -0.0073698  -0.0083442
-0.022636    0.024461    0.043625   0.0039985    -0.85804   0.0033489   -0.013216
-0.025234    0.023162    0.037454  -0.0028225     -1.0139    0.012443    -0.01549
-0.022636    0.020239    0.027385  -0.0083442     -1.0185    0.011794   -0.014516
-0.018413    0.015367    0.018615   -0.010618    -0.88532    0.003024  -0.0093186
-0.017439   0.0056225    0.016016   -0.008669    -0.66153  -0.0050961  -0.0018481
-0.022636  -0.0060706    0.015692 -0.00087364    -0.40981  -0.0099683   0.0062721
-0.03173   -0.013866    0.014068    0.014717    -0.18277   -0.011267    0.013418
-0.04115   -0.016464    0.013418    0.034855   -0.010293  -0.0073698     0.01894
-0.047321   -0.015815    0.013093    0.054019    0.099817   0.0033489    0.020888
-0.043423   -0.012892     0.01017    0.067661     0.15796    0.016666    0.016341
-0.027833  -0.0093186   0.0049729    0.073832     0.18102     0.02641   0.0065969
-0.0073698  -0.0089938  -0.0018481    0.072858     0.18784    0.033231  -0.0057458
0.008221    -0.01549  -0.0050961    0.067661     0.19109    0.039078   -0.013216
0.013418   -0.024585  -0.0047713    0.063113     0.19174    0.044924    -0.01549
0.008221   -0.032055  -0.0024977    0.066037     0.18622    0.051096   -0.013541
-0.0044465   -0.033679   0.0020496    0.074806     0.17615    0.054993  -0.0093186
-0.019063   -0.030431    0.013093     0.08585     0.16705    0.055643  -0.0050961
-0.027183   -0.025884    0.024786    0.091696     0.16965    0.056617  -0.0011985
-0.025559   -0.021661    0.029333    0.091696     0.18394    0.056617  0.00042559
-0.018738   -0.020037    0.024461    0.087799     0.20603     0.05207  -0.0018481
-0.013541   -0.020037    0.014392    0.083901     0.23136    0.042651  -0.0060706
-0.011267   -0.020362   0.0046481    0.078379      0.2541    0.029333   -0.010293
-0.011267   -0.017114 -0.00022403    0.074482     0.26644    0.016016   -0.013216
-0.008669   -0.010293  0.00042559    0.075131     0.26807   0.0036737   -0.012242
-0.0041217  -0.0028225   0.0036737    0.078055      0.2619  -0.0057458  -0.0083442
0.00042559   0.0026992   0.0062721    0.077405     0.24923   -0.012892   -0.007045
0.0052977   0.0049729   0.0069217    0.073507     0.22974   -0.018088   -0.010943
0.011794   0.0046481   0.0049729    0.067336     0.20181   -0.019388   -0.018738
0.016666   0.0033489  -0.0021729    0.061814     0.15893   -0.019712   -0.026209
0.01894   0.0052977   -0.012567    0.058241    0.090072   -0.020362   -0.029132
0.020888   0.0072465   -0.021661    0.057917    -0.01549   -0.026533   -0.023935
0.026085   0.0072465   -0.024585    0.059541    -0.14509   -0.037252   -0.016789
0.03583   0.0049729   -0.020687    0.063438    -0.26234    -0.04862   -0.012892
0.046223    0.003024    -0.01549    0.068635    -0.32373   -0.056741   -0.011267
0.05272   0.0052977   -0.011917    0.075131    -0.30359   -0.058689  -0.0080194
0.050121    0.012119   -0.011592    0.081303    -0.20875   -0.054792  -0.0041217
0.04395     0.01894   -0.011592    0.081627   -0.072656   -0.046022      0.0014
0.037129    0.019589  -0.0089938    0.075456    0.059865   -0.040175   0.0059473
0.032906    0.012443  -0.0031473    0.067011     0.15861   -0.041475    0.011144
0.033881   0.0033489   0.0036737    0.057917     0.21545   -0.050569    0.018615
0.039078  -0.0024977   0.0085458    0.050771     0.23786   -0.057065     0.02706
0.048497  -0.0028225     0.01017    0.045574     0.23786   -0.059014    0.034855
0.054344  -0.0015233   0.0065969    0.042651     0.22357   -0.059989    0.037129
0.054668  -0.0011985  -0.0011985    0.038428     0.20993    -0.06681     0.03583
0.054344  -0.0021729  -0.0076946    0.032582     0.20246   -0.075255    0.027709
0.054344  -0.0037969   -0.012892    0.019914     0.19693   -0.078827    0.016016
0.05142   -0.008669   -0.019712    0.003024     0.18264   -0.074605    0.003024
0.042326    -0.01549   -0.030431   -0.013216     0.15633   -0.067784   -0.010293
0.025436   -0.020037   -0.039526   -0.025559     0.11866    -0.06616    -0.02361
0.0046481   -0.023935   -0.045047   -0.034978    0.072533   -0.069408   -0.034978
-0.01484   -0.028157   -0.048296   -0.039526    0.025111    -0.07493   -0.039526
-0.027833   -0.033679   -0.054142   -0.043099   -0.008669   -0.081751   -0.037577
-0.03238   -0.038876   -0.061937   -0.046996   -0.010618   -0.089546   -0.033679
-0.029132   -0.041799   -0.070058   -0.050894     0.03583   -0.096042   -0.034654
-0.021012   -0.043099   -0.073306   -0.052193     0.12613   -0.095393   -0.039851
-0.014516   -0.043423   -0.072331   -0.053168     0.22649   -0.087922   -0.043099
-0.010293   -0.041799   -0.069408   -0.051544     0.29308   -0.075579   -0.041475
-0.0076946   -0.035953   -0.067784   -0.047321     0.28496   -0.059014   -0.036278
-0.0031473   -0.025884   -0.070382   -0.040175     0.19499   -0.044398   -0.029457
0.0043233   -0.013866   -0.070058   -0.029457    0.041676   -0.030756   -0.024585
0.012443  -0.0054209   -0.066485   -0.015165    -0.14411   -0.021012   -0.020687
0.016016  -0.0015233   -0.062587  0.00075039    -0.34614   -0.017439   -0.017114
0.012443      0.0014   -0.057715    0.015367    -0.55824   -0.022636   -0.014516
0.0036737   0.0036737   -0.051544    0.025436    -0.75703   -0.037577    -0.01484
-0.0099683   0.0026992   -0.045372     0.02706    -0.92073   -0.059989   -0.017114
-0.021337  -0.0031473   -0.038876    0.016666     -1.0351   -0.082725   -0.018738
-0.02426   -0.012892   -0.032055   0.0033489     -1.0906    -0.09994   -0.020037
-0.017764    -0.02426   -0.024909  -0.0057458     -1.0789    -0.10903   -0.018413
-0.0060706   -0.034004   -0.020362  -0.0083442     -1.0003    -0.10546   -0.014191
0.0023744   -0.037252   -0.016464   -0.007045    -0.86551   -0.089546  -0.0083442
0.0026992   -0.033354   -0.012567  -0.0015233    -0.69434   -0.063886 -0.00087364
-0.0034721   -0.022636  -0.0047713    0.011469    -0.50855    -0.03303    0.009845
-0.011592  -0.0057458   0.0088706    0.027385    -0.33055  -0.0044465    0.020888
-0.014516    0.011144    0.022512    0.047198    -0.17984    0.016991    0.028684
-0.013216    0.024137    0.029658    0.066686   -0.066485    0.032906    0.033231
-0.0093186    0.031282    0.029658    0.081952   0.0056225    0.047523    0.034855
-0.0067202    0.032582     0.02641    0.091047    0.036804    0.059865    0.034855
-0.0073698    0.029983    0.025111    0.095919    0.032257    0.070584    0.032257
-0.010943    0.026085    0.024461    0.096893   0.0043233    0.079679     0.02706
-0.015815    0.022837    0.021538    0.098193   -0.028157      0.0865    0.019914
-0.017764    0.023812    0.016666     0.10209   -0.047971    0.092996    0.015367
-0.016464    0.028034    0.015367     0.10469    -0.04115     0.10144    0.015367
-0.010618    0.030633     0.01764     0.10469   0.0020496     0.10924    0.017965
-0.0028225    0.029333    0.021213     0.10274    0.075131     0.11216     0.01894
0.0023744     0.02641    0.025111    0.097543     0.16153     0.11054    0.017316
0.0033489    0.020239    0.025761    0.084876     0.24436     0.10631    0.011794
0.00010078    0.013743    0.024461     0.06831     0.31614     0.10144   0.0023744
-0.0089938   0.0072465    0.023812    0.053694     0.37655    0.096569  -0.0067202
-0.020037   0.0023744    0.025436    0.042326     0.42885    0.088773   -0.013866
-0.03173  0.00042559    0.028034     0.03453     0.46458    0.078379   -0.018738
-0.043423      0.0014    0.028684    0.034855     0.47172     0.06961   -0.019712
-0.051544   0.0062721    0.026085    0.042001     0.44704    0.064413    -0.01484
-0.052843     0.01017    0.018615    0.050446     0.40091    0.057267  -0.0047713
-0.048296    0.013093    0.011469    0.053369     0.34927    0.049796   0.0065969
-0.037902    0.013418   0.0052977    0.048822     0.31224     0.04395    0.017316
-0.027183    0.011469 -0.00087364    0.040052     0.30055      0.0433    0.024786
-0.020687   0.0078962  -0.0044465    0.025436     0.31062    0.041027    0.024461
-0.021337    0.003024  -0.0050961   0.0072465     0.32848    0.032582    0.017965
-0.027183  -0.0028225  -0.0028225   -0.013866     0.33725    0.014717   0.0091954
-0.034329  -0.0099683  -0.0031473   -0.036602     0.32328  -0.0076946  0.00042559
-0.040175    -0.01614   -0.008669   -0.056416     0.27651   -0.024909  -0.0060706
-0.042124   -0.020037   -0.019063   -0.072981     0.18849   -0.034329   -0.012567
-0.036602   -0.022961   -0.030431   -0.088896    0.066362   -0.034329   -0.017439
-0.024909   -0.025234   -0.043748    -0.10351   -0.072331   -0.030106   -0.018413
-0.011267   -0.028157   -0.056091    -0.11683    -0.20875   -0.025234   -0.013541
-0.0028225   -0.027508   -0.067134    -0.12852    -0.32633   -0.021012  -0.0060706
0.0017248   -0.025559   -0.070382    -0.13599    -0.40688   -0.015815   0.0033489
0.0033489   -0.020037   -0.065186    -0.13664    -0.44229  -0.0054209    0.013093
0.0043233   -0.011267   -0.055441    -0.13015    -0.43482    0.009845    0.019264
0.0059473  -0.0018481   -0.045697    -0.11943    -0.39746    0.021863    0.024786
0.0075714   0.0056225   -0.036278    -0.10481    -0.34192    0.027709    0.028684
0.0056225    0.009845   -0.026209   -0.084999    -0.28411    0.029983    0.029333
0.0026992    0.011794   -0.013866   -0.058365    -0.22889    0.032582    0.029658
-0.00087364    0.014392 -0.00054884   -0.032055    -0.17789    0.036804    0.032582
0.00042559    0.019589    0.012443   -0.011592    -0.13827    0.039078    0.033231
0.0036737    0.027709    0.020564 -0.00087364    -0.11878    0.038428    0.023162
0.008221    0.036154    0.021863  0.00010078    -0.12495     0.03583   0.0069217
0.013093    0.040377    0.020888   -0.008669    -0.15353    0.031932  -0.0096434
0.016991    0.041027    0.020888   -0.025234    -0.19511    0.026085   -0.024585
0.018615    0.039727     0.01829   -0.047971    -0.23279    0.019264   -0.032055
0.019264    0.038103     0.01017   -0.066485    -0.24643    0.011144   -0.030756
0.020888    0.036804  0.00010078    -0.07428    -0.22597   0.0020496   -0.021012
0.023812    0.038103   -0.011592   -0.072331    -0.16977  -0.0083442  -0.0096434
0.02706    0.040702   -0.017114   -0.065835   -0.087597   -0.021986  -0.0031473
0.028359    0.042326   -0.013541   -0.061613   0.0046481   -0.040175  -0.0060706
0.023812    0.037778  -0.0024977   -0.059989    0.088124   -0.062912   -0.017114
0.015692    0.029333   0.0085458   -0.056416     0.14984   -0.088247    -0.03238
0.0052977    0.019914    0.011469   -0.048296     0.18167    -0.11196   -0.043099
-0.0054209    0.011794   0.0052977   -0.035953     0.18751    -0.12982   -0.043423
-0.012567   0.0072465  -0.0063954   -0.025884      0.1716    -0.14379   -0.034978
-0.016789   0.0062721   -0.013866   -0.016464     0.14464    -0.15678    -0.02426
-0.019063   0.0056225   -0.012567  -0.0067202     0.12515    -0.16588   -0.018738
-0.018738   0.0033489  -0.0060706   0.0056225     0.12743     -0.1714   -0.020037
-0.017764  -0.0018481   0.0020496    0.018615     0.15601    -0.17075   -0.025234
-0.020037   -0.010943     0.01017    0.032906     0.20928    -0.16003   -0.031081
-0.025234   -0.022636    0.018615    0.048822     0.28268    -0.14249   -0.035953
-0.031081   -0.034004    0.023487    0.066037     0.35934    -0.11715   -0.036278
-0.037577   -0.041799    0.022188    0.083901     0.42495   -0.088247   -0.034978
-0.046022   -0.044073    0.014068     0.10177     0.47399   -0.063886   -0.034329
-0.054792   -0.038227   0.0056225     0.11833     0.50063   -0.048296   -0.031081
-0.059014   -0.028157  -0.0024977     0.13295     0.50193   -0.039201   -0.023285
-0.057065   -0.019388    -0.01614     0.13522     0.48276    -0.03238   -0.014516
-0.050244   -0.017439   -0.035303     0.12385     0.44704   -0.024585  -0.0060706
-0.038876   -0.020362    -0.05804     0.10989     0.39539   -0.012892   0.0056225
-0.026858   -0.026209   -0.079477     0.10631     0.32393   0.0046481    0.020888
-0.017439   -0.034329   -0.093444     0.11476     0.22454    0.024137    0.037129
-0.008669   -0.044723   -0.098641     0.10436    0.089098    0.037454    0.049147
0.0023744   -0.052193   -0.097341    0.044924   -0.071032    0.039727    0.054993
0.016016   -0.050569   -0.087922    -0.04862    -0.22142    0.037778    0.055318
0.029333   -0.037252    -0.06681    -0.12268    -0.32828    0.036154    0.054668
0.039727   -0.017764   -0.032055    -0.14574     -0.3796    0.034206    0.055643
0.042651   0.0020496   0.0075714     -0.1334     -0.3861    0.025111    0.057592
0.038103    0.016016    0.034855    -0.11261    -0.36401   0.0075714    0.054668
0.02706    0.023162    0.038753    -0.10059    -0.32406   -0.012567    0.042975
0.013093    0.024137    0.024137   -0.097666    -0.27209   -0.030756    0.028034
0.0017248     0.01894    0.003024    -0.10384     -0.2068   -0.045372    0.015042
-0.0034721    0.015042  -0.0067202    -0.11813    -0.12592   -0.053168   0.0085458
-0.00087364    0.015692   0.0017248    -0.13469   -0.032055   -0.052843   0.0059473
0.0085458    0.024461    0.022837    -0.15093    0.063438   -0.043099   0.0065969
0.019914    0.036154    0.045574    -0.16458     0.14269   -0.026533    0.011469
0.029009    0.044275    0.059541    -0.17692     0.19628  -0.0050961    0.018615
0.033881    0.045574    0.057267    -0.18017     0.21902    0.018615    0.025111
0.033231    0.039078    0.041676    -0.16653     0.21123    0.037778    0.029983
0.02641    0.028684    0.022837    -0.13794     0.18069    0.049796    0.031282
0.016666    0.017965   0.0085458    -0.10546     0.13555    0.052395    0.030633
0.010819   0.0088706   0.0026992   -0.077853    0.082277    0.046873    0.029658
0.009845   0.0017248   0.0026992    -0.05804    0.021863    0.036804    0.026735
0.01017  -0.0044465   0.0010752   -0.042124   -0.046347    0.024461    0.022188
0.0085458  -0.0096434  -0.0063954   -0.022961    -0.11423    0.012119    0.015042
