0.25475     0.10566     0.14042     0.32004     -1.9484     0.43729     0.29243
0.25605     0.10209     0.13782     0.36389     -1.8494     0.39052      0.2908
0.2606     0.10144     0.13392     0.37915      -1.597     0.36681     0.29015
0.26157     0.10306     0.12548      0.3431     -1.1263     0.36583     0.29178
0.25507     0.10404     0.11281      0.2567    -0.47119     0.37818      0.2934
0.24663     0.10566     0.10209     0.15146     0.24143     0.39247     0.29503
0.24241     0.10924     0.10144    0.074806     0.82414     0.39604     0.29633
0.24663     0.11346     0.11671    0.062139       1.134     0.38597      0.2999
0.258      0.1219     0.14172     0.11541      1.0937     0.37038     0.30737
0.27326      0.1349     0.16965     0.20733     0.69194     0.35739     0.31484
0.28463     0.14951     0.19596     0.29892   -0.070058     0.35187     0.31744
0.28496     0.15666     0.21058     0.35544     -1.1101     0.35187     0.30802
0.27489     0.15179     0.21025     0.36194     -2.2203     0.34602     0.28561
0.25897      0.1336     0.19791     0.32751     -3.1707     0.31549     0.25313
0.23786     0.10761     0.17972     0.27067     -3.7699      0.2528      0.2135
0.21317    0.079679     0.16315       0.207     -3.9236       0.169      0.1729
0.18557    0.056617     0.15406     0.15081     -3.7323    0.080328     0.13165
0.15763    0.045574     0.15926     0.10826     -3.4494  -0.0015233    0.087474
0.1349    0.042651     0.18199    0.087799     -3.2857   -0.071682    0.041027
0.11931     0.04395      0.2174    0.088773      -3.234     -0.1243   0.0010752
0.11086    0.045249      0.2567    0.076106      -3.081    -0.14087   -0.025559
0.10664    0.041676     0.28593   -0.018738     -2.6315    -0.10611   -0.029782
0.10274     0.03453     0.28528    -0.24123     -1.8825   -0.019388   -0.010618
0.094295    0.020888     0.24078    -0.57838    -0.99901    0.086175    0.023487
0.078704  0.00042559     0.14821    -0.96945    -0.26787     0.15406    0.057592
0.056942   -0.028157    0.019264     -1.3504   -0.020362      0.1362    0.081303
0.034206   -0.062912    -0.12625     -1.6762    -0.45593    0.018615    0.088773
0.017316   -0.093769    -0.25422     -1.9046     -1.4784    -0.17367    0.088448
0.014068    -0.11001    -0.34874      -1.951     -2.6974     -0.3796    0.093645
0.028359    -0.10936    -0.40753     -1.7045     -3.5832    -0.52804     0.11411
0.056617   -0.091495    -0.43644     -1.1016     -3.7086    -0.56701     0.14789
0.084551   -0.066485    -0.43774    -0.19673      -2.931    -0.49523     0.18199
0.089098   -0.046996    -0.41013     0.81407     -1.4274    -0.37115     0.19141
0.054993   -0.047646    -0.36206       1.692     0.44249    -0.28281     0.15211
-0.018738   -0.073631    -0.31464      2.2689      2.1591    -0.29255    0.055318
-0.11813     -0.1217    -0.29028      2.4417      3.3466     -0.4137   -0.085324
-0.21785    -0.17822    -0.30262      2.2075      3.9075    -0.60307    -0.24286
-0.28963    -0.22207    -0.34972      1.6829      3.9777    -0.78204    -0.37733
-0.31366    -0.23863    -0.40916      1.0655      3.8884    -0.87493    -0.45755
-0.28378    -0.22467    -0.45268     0.54383      4.0293    -0.83888    -0.46925
-0.21427    -0.19186    -0.46502     0.20148       4.525    -0.68622    -0.41988
-0.1334    -0.15451     -0.4569   -0.011592      4.9589    -0.47119    -0.33575
-0.063237    -0.12527    -0.44196    -0.18277      4.9589    -0.25682     -0.2435
-0.0063954    -0.10351    -0.42994    -0.32731      4.9589   -0.084024    -0.15256
0.046873   -0.080127    -0.41013    -0.41338      4.9284    0.027709   -0.068109
0.096244   -0.056416    -0.37213    -0.43319       3.812    0.073182   0.0010752
0.13295   -0.034329    -0.32243    -0.41988      2.4241    0.061814    0.045574
0.14854   -0.017439    -0.27436    -0.42637     0.61171  -0.0050961     0.05272
0.13295   -0.012892     -0.2435    -0.48646     -1.7834    -0.14541    0.016016
0.079679   -0.024909    -0.23993    -0.60891     -4.4248    -0.36206   -0.061613
-0.010618   -0.052843    -0.26527    -0.77294     -4.9698    -0.61996    -0.16328
-0.11878   -0.087922    -0.31074    -0.93957     -4.9701    -0.85284    -0.26202
-0.22012    -0.11715    -0.36141      -1.076     -4.9698    -0.98764    -0.33348
-0.29482    -0.13242    -0.39779     -1.1721     -4.9701    -0.98536    -0.36336
-0.33153    -0.12625    -0.39941     -1.2329     -3.7911    -0.85772    -0.35491
-0.31918   -0.095393    -0.35069     -1.2449     -1.0263    -0.65049    -0.31756
-0.25845   -0.048296    -0.24838     -1.1796      1.1701    -0.42572    -0.26104
-0.16295   0.0075714    -0.10416     -1.0032      2.3514    -0.23084    -0.19738
-0.053168    0.062789    0.050771    -0.70343      2.6252   -0.085973    -0.13404
0.047847     0.11054     0.18199    -0.30717      2.2861    0.012119   -0.079152
0.12125     0.14529     0.27164     0.12937      1.6972      0.0865    -0.03173
0.16218     0.16803     0.31841     0.52986      1.1009      0.1677    0.012119
0.17777     0.17842     0.32946     0.83258     0.56559     0.28073    0.060515
0.17387     0.17972     0.31939      1.0106     0.15146     0.42787     0.11768
0.15698     0.17485     0.30282      1.0723    0.003024     0.58833     0.18102
0.1336     0.16835     0.29113      1.0463     0.26872     0.73449     0.24533
0.10826     0.16478     0.28658     0.96153      1.0668     0.86376     0.30315
0.090397     0.16608     0.28691     0.84233      2.3647     0.99791     0.34829
0.092021      0.1742     0.29048     0.71143      3.9004      1.1694     0.38175
0.11378     0.18329      0.2973      0.5867      4.9586       1.389     0.40871
0.14561     0.18492     0.30315     0.48341      4.9593      1.6111     0.43209
0.17192      0.1703     0.29957     0.40156      4.9593      1.7576     0.44119
0.17322     0.13652     0.28073     0.32393      4.9593       1.743     0.41456
0.13327    0.085525     0.23786     0.22519      4.9589      1.4955     0.32978
0.052395    0.024137      0.1651    0.085525      4.9589     0.98005     0.18297
-0.057715   -0.041799    0.069285   -0.092469      2.7506     0.22032   -0.010943
-0.18569    -0.10903   -0.041799    -0.29547     -3.0602    -0.70343    -0.23214
-0.32536    -0.17822    -0.15418    -0.51537     -4.9698     -1.6779    -0.45983
-0.47119     -0.2461    -0.25617    -0.73559     -4.9701     -2.5915     -0.6768
-0.61606    -0.30424    -0.33737    -0.93112     -4.9698     -3.3301    -0.86454
-0.74533    -0.34614    -0.39032     -1.0776     -4.9695     -3.8135     -1.0052
-0.83141    -0.36563    -0.41143     -1.1539     -4.9695     -3.9937     -1.0857
-0.85512    -0.36044    -0.40363     -1.1494     -4.9695     -3.8619     -1.0971
-0.81679    -0.33283    -0.36791     -1.0679     -4.1763      -3.451     -1.0435
-0.73461    -0.29125    -0.31139    -0.92982     0.26319     -2.8397    -0.94639
-0.63295    -0.24448     -0.2435    -0.77034      3.1101     -2.1345    -0.82426
-0.52609    -0.19966    -0.17335    -0.61379      4.2791     -1.4427    -0.69596
-0.42605      -0.161    -0.10903    -0.47412      4.2658    -0.84602    -0.57546
-0.33672    -0.12527   -0.053168    -0.35361      3.6925     -0.3809    -0.47087
-0.25715   -0.088572 -0.00087364    -0.25455      3.0955    -0.04992    -0.38285
-0.18861   -0.050894     0.05142    -0.17562      2.7782     0.16868    -0.31334
-0.1321   -0.016464    0.099817    -0.11618      2.8168     0.29827    -0.25942
-0.088572    0.010495     0.13425   -0.081751      3.0978     0.35317    -0.21622
-0.055116     0.02706     0.14756   -0.084999      3.3982     0.35154    -0.18082
-0.030106    0.031607     0.14302    -0.13664      3.5275     0.31646    -0.15353
-0.01484    0.025436     0.12775    -0.23344      3.4122     0.28073    -0.12885
-0.0034721    0.015367     0.10891    -0.38382        3.09     0.27716    -0.09929
0.012119   0.0091954    0.089423    -0.59852      2.6603     0.33303   -0.058689
0.041676    0.013743    0.076106    -0.84765      2.2163     0.45646   -0.007045
0.082927    0.026085    0.070909     -1.0617      1.8021     0.64452    0.058241
0.131      0.0433    0.075456     -1.1848      1.5001     0.88358     0.13749
0.18199    0.065062    0.092996     -1.2121      1.3981      1.1515     0.22909
0.22779    0.093645     0.12678     -1.1608      1.5231      1.4192     0.32621
0.26644     0.13392     0.18232     -1.0091      1.8635      1.6595       0.423
0.30477     0.18362     0.26547      -0.669      2.3303      1.8668     0.52077
0.34472     0.23624     0.36356   -0.053168      2.7574      2.0344     0.61626
0.3772     0.27911     0.44931     0.78873      2.9464      2.1455     0.69811
0.39312      0.2999     0.49511       1.642      2.6996      2.1656     0.75495
0.3863     0.29568     0.49478      2.2822      1.8625       2.061     0.77509
0.35966     0.26547     0.45061      2.5739      0.5094      1.8086     0.74553
0.31451      0.2083     0.37201      2.5131    -0.82978      1.4016     0.65946
0.2515      0.1323     0.26579      2.2088     -1.4502     0.86604     0.52304
0.17127    0.049147     0.14139      1.8158     -1.0809     0.27002     0.35089
0.086175   -0.025559    0.013093      1.4468   -0.021661    -0.28605     0.16835
0.012443   -0.080776    -0.10091      1.1389      1.1606    -0.70993   0.0072465
-0.041475    -0.11196    -0.17822     0.86636      2.0467    -0.94996    -0.10514
-0.073631    -0.11715    -0.21102     0.57761      2.5089     -1.0023    -0.15938
-0.079477    -0.09929    -0.19771     0.25118      2.6869    -0.89669    -0.16035
-0.061288   -0.062587    -0.14476   -0.081751      2.7785     -0.6755    -0.12203
-0.021012   -0.016464   -0.069733    -0.35784      2.8711    -0.38804   -0.060638
0.033231    0.028684    0.003024    -0.52154      2.8519   -0.084999    0.010819
0.092346    0.063113    0.051096    -0.55824      2.5817     0.18069    0.083576
0.14951    0.080653     0.06019    -0.47509      1.9899     0.37915     0.14496
0.19628    0.082277    0.039078    -0.27956     0.91736     0.49381     0.18492
0.22909    0.072858   0.0052977  -0.0031473    -0.80964     0.51687     0.19693
0.24501    0.058891   -0.032055     0.29145     -3.0034     0.44736     0.18134
0.24078    0.047847   -0.077203     0.53571     -4.9701     0.30087     0.14172
0.22162    0.047523    -0.13599     0.69421     -4.9701     0.11736    0.085525
0.19434    0.053044    -0.20388      0.7556     -4.9698   -0.041475    0.022188
0.16315    0.061165    -0.26267     0.75073     -4.9701    -0.12495   -0.036927
0.131    0.063438     -0.2867     0.72572     -2.9137    -0.12982   -0.085648
0.094295    0.054344    -0.26949     0.70753    -0.46892   -0.096367    -0.12105
0.055318    0.034855    -0.22207     0.68317      1.4283   -0.063561    -0.14184
0.022188   0.0078962     -0.1623     0.62406      2.1848   -0.043423    -0.14444
-0.0034721   -0.021012    -0.10644     0.51005      1.6144   -0.047321     -0.1308
-0.028482    -0.04927    -0.06681     0.33952   -0.047646   -0.092794    -0.10579
-0.056091   -0.075904   -0.050894     0.12255     -2.0137    -0.18666   -0.079477
-0.085973   -0.097666   -0.063237    -0.11878     -3.4006    -0.31756    -0.06616
-0.11456    -0.11553    -0.10221    -0.35329     -3.7319    -0.45658   -0.076229
-0.13762     -0.1295    -0.15873     -0.5537     -3.0206    -0.56701    -0.10774
-0.15256    -0.13729    -0.21752    -0.69661     -1.6999    -0.61638    -0.14314
-0.16068    -0.13859    -0.25942    -0.76547    -0.34062    -0.58878    -0.16555
-0.16555    -0.13242    -0.26819    -0.75475     0.62795    -0.49361    -0.16133
-0.16523     -0.1243    -0.24123    -0.67907      1.0905    -0.35979     -0.1256
-0.15158    -0.11423    -0.18829    -0.56376       1.172    -0.21817   -0.068758
-0.12105   -0.099615     -0.1308    -0.43774      1.0765   -0.088572  -0.0050961
-0.078178   -0.075904   -0.081426    -0.32471      1.0103    0.020239    0.053044
-0.032055   -0.047321   -0.042774    -0.24026      1.0457     0.10047    0.099492
0.0085458   -0.020037  -0.0099683    -0.19186      1.1411     0.14724     0.12807
0.03583  0.00075039    0.021213      -0.174      1.2204     0.16413     0.14139
0.050771    0.011469    0.048822    -0.16718      1.1395     0.15926     0.14269
0.056292    0.010819     0.06831    -0.15938     0.83161     0.14951     0.13847
0.063113   0.0062721    0.083901    -0.14152     0.40579     0.14919      0.1362
0.074157   0.0017248     0.10339    -0.11358    0.046223      0.1664     0.14237
0.088124   0.0039985     0.12645   -0.078503     -0.1308     0.20018     0.15601
0.099167    0.011469     0.15081   -0.039201    -0.12105     0.24663     0.17777
0.10209    0.019589     0.17095   0.0020496   -0.007045      0.3025     0.20538
0.098193    0.028684     0.18589    0.045249     0.10177     0.36291     0.23234
0.093645     0.04395     0.19401    0.086824     0.10079     0.42495     0.25475
0.090072    0.067661     0.19823     0.12223   -0.060638     0.48406     0.26709
0.086175    0.094945     0.20733     0.15081    -0.35232     0.54091     0.26742
0.080653     0.11801     0.22194     0.17062    -0.64984     0.59872     0.25897
0.073182     0.12937     0.23916     0.18004    -0.80185     0.65459     0.24436
0.063438     0.12515     0.24695     0.17452    -0.78756     0.68739     0.22617
0.050771     0.10729     0.24143     0.14756     -0.7135     0.67732     0.20343
0.03518     0.08585     0.22194     0.10274    -0.69271     0.61821     0.17647
0.014717    0.065387     0.19109     0.05142    -0.72779     0.51979     0.13977
-0.013541    0.050446     0.15146   0.0010752    -0.72227     0.40514    0.092346
-0.048296    0.037454     0.11054   -0.043099    -0.55175      0.2947    0.042326
-0.073955    0.026085    0.071234   -0.078503    -0.20615     0.20213   0.0072465
-0.072656    0.016666    0.042651    -0.10026     0.12872     0.13522 -0.00087364
-0.042449   0.0085458    0.029983    -0.10059     0.18427    0.087474     0.01764
0.0095202   0.0033489    0.037778   -0.076229    -0.19381    0.041676    0.045899
0.072858  0.00075039    0.061165    -0.03303    -0.93794   -0.010293     0.06961
0.13457   0.0062721    0.090397    0.020564     -1.7704   -0.054792    0.089423
0.19304    0.021863     0.11833    0.070259     -2.3632   -0.051868     0.11833
0.24598    0.049472     0.14172     0.11054     -2.5051    0.038428     0.16575
0.29113    0.086824      0.1638     0.14496     -2.1794     0.21058     0.23136
0.31744      0.1258     0.18459     0.18492     -1.5109     0.41943     0.29957
0.30639     0.15211     0.20116     0.23786    -0.65471     0.60749     0.34992
0.25183     0.15471     0.20863     0.30412     0.20505     0.72085     0.36843
0.15958     0.13717     0.20505     0.37558     0.83875     0.73157     0.34959
0.05272     0.10534     0.18914     0.43242      1.0967     0.63185      0.3038
-0.044073    0.068635      0.1638     0.43762      0.9742     0.42917     0.24111
-0.11391    0.031282     0.12807     0.35999     0.47302     0.13522     0.16868
-0.15711  -0.0089938    0.080328     0.19369    -0.48711    -0.22824      0.0865
-0.18179    -0.04862    0.021538    -0.03303     -1.8539    -0.62093  -0.0080194
-0.19706   -0.084999   -0.038227    -0.26299     -3.2951    -0.98601    -0.11423
-0.21265    -0.11228   -0.088572    -0.44489     -4.2883     -1.2783    -0.22597
-0.23733    -0.13177    -0.12885    -0.55532     -4.3686     -1.4778    -0.33965
-0.27534    -0.15288    -0.16393    -0.60599     -3.3529     -1.5775    -0.44911
-0.32276    -0.17757    -0.19836    -0.61963      -1.457     -1.5788     -0.5407
-0.3718     -0.2029    -0.23214    -0.61898     0.80985     -1.4917    -0.60502
-0.41305    -0.22304    -0.25975    -0.61216      2.7454     -1.3397    -0.64237
-0.43741    -0.23246    -0.27696    -0.59852      3.9715     -1.1497    -0.65406
-0.43644    -0.23084    -0.28248    -0.57546      4.4256    -0.94249    -0.64302
-0.4124    -0.21979    -0.28313    -0.54817      4.3444    -0.73364    -0.61476
-0.36888    -0.20485    -0.29028    -0.52057      4.1619    -0.52771    -0.56799
-0.30944    -0.18471    -0.30359    -0.50368      4.2551    -0.31561    -0.50043
-0.24383    -0.15873    -0.30684    -0.51407      4.7257   -0.092469    -0.41305
-0.18309    -0.12722    -0.29028    -0.55077      4.9589     0.12353    -0.31399
-0.13632    -0.09117    -0.25942    -0.58975      4.9593     0.29373    -0.22012
-0.10903   -0.056416    -0.22856    -0.59462      4.9589     0.38695    -0.14736
-0.10059   -0.032055    -0.21655    -0.54525      4.6507     0.39312    -0.10449
-0.097341   -0.022636    -0.23376     -0.4556      3.1949     0.32978   -0.087597
-0.092145   -0.027183    -0.27339    -0.36596      1.2396     0.22649   -0.085648
-0.0824   -0.042124    -0.31659    -0.31171    -0.99771     0.11378   -0.084024
-0.06616    -0.05804    -0.34062     -0.2919     -3.0355   0.0085458   -0.078827
-0.041799   -0.069733    -0.33932    -0.28638     -4.4582   -0.080776   -0.071032
-0.011917   -0.077853    -0.31399    -0.27014     -4.9701    -0.14866    -0.05739
0.019589   -0.078827    -0.27371    -0.22694     -4.6229      -0.174   -0.036927
0.057267   -0.069733    -0.22434    -0.14801     -3.6517    -0.13502  -0.0021729
0.10826   -0.051544    -0.17432   -0.039526     -2.4567   -0.024909    0.044924
0.17062   -0.026533    -0.12852    0.082927     -1.3433     0.13977    0.095919
0.23818   0.0026992   -0.086298     0.20928     -0.5053     0.32328     0.14399
0.30834    0.036154   -0.046022     0.32556   -0.071357     0.48796     0.18589
0.37071    0.072858  -0.0015233     0.41975    -0.15386     0.59352     0.21675
0.41131     0.11021    0.039727     0.47594    -0.77846     0.60262     0.22877
0.41033     0.14139    0.074806     0.49088     -1.7399      0.5029     0.21512
0.35739     0.15698     0.10436     0.47822     -2.6104     0.31939     0.18004
0.25767     0.15438     0.13262      0.4636     -2.9764     0.11248      0.1349
0.13457     0.13847     0.16218     0.46425     -2.6627   -0.041475    0.098842
0.021538     0.11638     0.18784     0.47919     -1.7545   -0.081426    0.083901
-0.056091    0.098193     0.20376     0.50128    -0.48126    0.015042    0.095594
-0.091495    0.086824     0.20505     0.51265     0.81732        0.22     0.12937
-0.086948    0.083576     0.19271     0.49998      1.7278     0.45158     0.17615
-0.046671    0.089748      0.1703     0.45743      1.9847     0.62893     0.22389
0.021213     0.10501     0.14042     0.39539      1.5666     0.70916     0.26482
0.10144     0.12515     0.10696     0.33238     0.77509     0.70591     0.29957
0.17062     0.14334    0.079029     0.29405    0.017965     0.65816     0.32686
0.2109     0.15438    0.058891     0.29665    -0.53226     0.58898      0.3418
0.22032     0.15341    0.050121     0.33465    -0.97042     0.48666      0.3379
0.2083     0.13944    0.050771     0.38532     -1.3056     0.33075     0.31094
0.18719     0.11606    0.059541     0.41715     -1.2205     0.12483     0.26319
0.1703    0.090072    0.071234     0.41423    -0.27469   -0.087597     0.20083
0.16153     0.06896    0.081952     0.38305      1.5056    -0.25455     0.13002
0.14984    0.053694    0.084551      0.3366      3.4284    -0.34387    0.052395
0.12223    0.041027    0.075781     0.28333      4.6484    -0.36173   -0.027508
0.073507    0.026085    0.055318     0.22422      4.5867    -0.34939    -0.10968
0.008221   0.0059473    0.026085      0.1651      3.1566    -0.36888    -0.19511
-0.071032   -0.015165  -0.0041217     0.11541     0.83063    -0.46405    -0.28183
-0.15386   -0.035303   -0.030431    0.076106     -1.5664    -0.63587    -0.36109
-0.23831   -0.055441   -0.048296    0.041676     -3.2012    -0.84862    -0.42182
-0.31854   -0.076879   -0.060963  -0.0044465     -3.7427     -1.0575     -0.4595
-0.38869    -0.10124   -0.076229   -0.078503     -3.2096     -1.2212    -0.47639
-0.43871    -0.12527   -0.098316    -0.17854     -1.9926     -1.3121    -0.47607
-0.46405    -0.14704    -0.12657     -0.2854     -0.7921     -1.3274    -0.46827
-0.4647     -0.1623    -0.15223    -0.37668    -0.29353      -1.292     -0.4608
-0.44326     -0.1649     -0.1675    -0.44001    -0.65958     -1.2446     -0.4582
-0.41143    -0.15321     -0.1727    -0.47607     -1.3797     -1.2108    -0.45495
-0.38285    -0.13372    -0.17205    -0.49523     -1.7503     -1.1767    -0.44261
-0.36271    -0.11521    -0.16718    -0.52024     -1.3306     -1.1101     -0.4163
-0.34679    -0.10319    -0.15873    -0.60372    -0.14152    -0.98634     -0.3757
-0.31886   -0.098316    -0.14606    -0.79081      1.3049    -0.81582    -0.32568
-0.27241   -0.097017     -0.1321     -1.0708       2.327     -0.6375    -0.27664
-0.20778   -0.094093    -0.11618     -1.3686      2.5333    -0.49848    -0.23538
-0.13534   -0.086623   -0.097666     -1.6018      1.9688    -0.42735    -0.20355
-0.066485   -0.073631    -0.07493     -1.7298      1.0164     -0.4202    -0.17887
-0.011267   -0.054792   -0.052193     -1.7548    0.075456    -0.44359    -0.16393
0.026085   -0.034329   -0.034329     -1.6727    -0.65081     -0.4556    -0.15678
0.04395   -0.018088   -0.025234     -1.4268     -1.1799    -0.42962    -0.15256
0.045249  -0.0041217   -0.022961    -0.92917     -1.5804    -0.35524    -0.14216
0.036804    0.016016   -0.019388    -0.15581     -1.8136    -0.23181    -0.11618
0.02706    0.042651  -0.0044465     0.77217     -1.7565   -0.064861   -0.071032
0.025761    0.072533    0.024461       1.641     -1.3401     0.12385   -0.012242
0.040377     0.10014    0.063438      2.2822    -0.63327     0.30607    0.049796
0.073832     0.12125     0.10729      2.6112     0.18557      0.4597     0.10371
0.12028      0.1336     0.14951      2.6431     0.89495     0.57339     0.14237
0.16478     0.13782     0.18297      2.4514      1.2857     0.64095     0.16868
0.19953     0.13327     0.20311      2.1279      1.1999     0.66076     0.18069
0.22584     0.12743     0.20668      1.7472     0.62958     0.62925     0.17939
0.24566      0.1245     0.19369      1.3584     -0.2526     0.55422      0.1664
0.25897     0.12515      0.1729     0.99791     -1.1351      0.4584     0.14821
0.26449     0.12678     0.15244     0.69519     -1.7422     0.37363      0.1323
0.2593      0.1258     0.13392     0.46652     -1.9387     0.32686     0.12483
0.23624     0.11768      0.1206     0.30899     -1.7451      0.3314     0.13262
0.18946     0.10339     0.11313     0.20538     -1.3108      0.3798     0.15731
0.12385      0.0852     0.11248     0.13717    -0.82329     0.45288     0.19336
0.056292    0.067011     0.11638    0.090397     -0.4254     0.53181     0.23234
0.0062721    0.054344     0.12158    0.056942     -0.1727     0.60294     0.26125
-0.013216    0.045899     0.12548    0.036479   -0.037902     0.66206     0.27586
-0.0073698    0.039402     0.12255    0.029009    0.039727     0.71045     0.27814
0.011144    0.033231     0.11573    0.032257     0.10371     0.74976     0.27879
0.032906    0.029983     0.11021    0.041676     0.16543     0.78256     0.28463
0.054019    0.031282     0.11021    0.053694      0.2109     0.81277     0.29697
0.074806    0.037129     0.11573    0.063763     0.22227     0.83778     0.31062
0.098193    0.042651     0.12385    0.070259      0.2044     0.85012     0.32004
0.12418    0.048497     0.13067    0.074806     0.18199       0.842     0.32166
0.14984    0.053044     0.13522    0.079029     0.17842     0.81115     0.31809
0.16803    0.051745     0.13295    0.082927     0.23169      0.7569     0.30315
0.16965      0.0433     0.12515    0.081952     0.38857      0.6809     0.27456
0.15146    0.024461     0.11216    0.065387     0.66303      0.5958     0.23201
0.12093   0.0023744    0.092996    0.027385      1.0349     0.52629     0.18979
0.091696    -0.01484    0.070584   -0.021661      1.4867     0.49771     0.16088
0.076431   -0.021986     0.05272   -0.070058      1.9619     0.52109     0.15244
0.079029   -0.019712    0.044924    -0.10611      2.3624     0.58605     0.15861
0.093321   -0.013216    0.044924    -0.12625      2.6794     0.67343     0.17322
0.11443  -0.0034721    0.044275    -0.14054      3.0702     0.76372     0.19076
0.13782    0.008221    0.035505    -0.15776      3.6902     0.82414     0.20278
0.16023    0.016991     0.01829    -0.18569      4.4071     0.82446     0.20311
0.17647    0.022188  -0.0028225    -0.22434      4.7348     0.74359     0.18654
0.18004    0.025436   -0.022636    -0.27274      4.1453     0.57014     0.15244
0.16608    0.027385   -0.037252    -0.32601      2.4634     0.31224     0.10696
0.1362    0.026085   -0.040825    -0.36336    0.029009    0.019589    0.061489
0.098193    0.020888   -0.028807    -0.35719     -2.3768    -0.23766    0.027709
0.060515    0.011794  -0.0041217    -0.29775     -4.0597    -0.41078   0.0065969
0.025761  -0.0024977    0.024137    -0.21362     -4.7197    -0.49945   -0.012567
-0.010943   -0.020362    0.045249    -0.16198     -4.3539    -0.54395   -0.042449
-0.051868   -0.040175     0.05207    -0.18374     -3.3678    -0.59462   -0.086948
-0.094743   -0.057065    0.039078    -0.27728       -2.37    -0.67777    -0.14022
-0.12722   -0.066485    0.008221    -0.40591     -1.8497    -0.78983    -0.19706
-0.14022   -0.071357   -0.035303    -0.52122     -1.9725    -0.90514    -0.24968
-0.13827   -0.078503   -0.084024    -0.58845     -2.5029    -0.99154     -0.2893
-0.13177   -0.093119    -0.12755    -0.59235     -2.9768     -1.0169    -0.31399
-0.13275    -0.11261    -0.15678     -0.5394     -2.9589    -0.96003    -0.32601
-0.13957     -0.1334     -0.1701    -0.45138     -2.2534    -0.81874    -0.32601
-0.14184    -0.14606     -0.1727    -0.35394    -0.96068    -0.61443    -0.31204
-0.13047    -0.14541    -0.16945    -0.26072     0.64289    -0.37733    -0.27956
-0.10091    -0.12885    -0.15841    -0.15613      2.2085    -0.13827    -0.22239
-0.053168    -0.10286    -0.13664   -0.021337      3.5204    0.082277    -0.13957
0.0033489   -0.073306    -0.10579     0.13327      4.3987     0.26742   -0.040175
0.055318    -0.04992   -0.080776     0.25637      4.6413     0.39994    0.054344
0.083576   -0.043423   -0.089221     0.28561      4.0956       0.461     0.12093
0.074157   -0.059014    -0.13892     0.18654      2.8724     0.43307     0.14399
0.020888   -0.093769    -0.21362   -0.025559       1.363     0.30672     0.12678
-0.06616     -0.1334     -0.2893    -0.30554   -0.052518    0.093645    0.083251
-0.16165     -0.1636    -0.34452    -0.59527     -1.1367    -0.17205     0.03453
-0.23896    -0.17789     -0.3705    -0.83498      -1.876    -0.44716  -0.0037969
-0.27241    -0.17594     -0.3718    -0.97822     -2.4908    -0.68297   -0.028157
-0.25877    -0.16328    -0.35264     -1.0006     -3.1492    -0.84083   -0.044398
-0.20388    -0.14671    -0.32308    -0.91293      -3.718    -0.90416   -0.061937
-0.13015    -0.12852    -0.28605     -0.7515     -3.8278    -0.88273   -0.085648
-0.061288    -0.10903     -0.2474    -0.57091     -3.1694    -0.80347    -0.11586
-0.017439   -0.092469    -0.21395    -0.41533     -1.7558    -0.69012    -0.14444
-0.0093186   -0.078178    -0.18894    -0.30977     0.11573    -0.55597     -0.1649
-0.025884   -0.063561     -0.1727    -0.25227      1.9597    -0.40948     -0.1688
-0.048296   -0.043423    -0.15451    -0.22077      3.4252    -0.26624    -0.15093
-0.067134   -0.020362    -0.12917    -0.18601      4.3756    -0.13827    -0.11553
-0.081426   0.0010752   -0.095393     -0.1321      4.7004   -0.037252   -0.077853
-0.092145    0.014717   -0.054467   -0.062262      4.3223    0.036154   -0.044723
-0.09929    0.019264   -0.013216   0.0065969      3.3021    0.083576   -0.020362
-0.098965    0.022188    0.023162    0.063438      1.8229     0.09462  -0.0073698
-0.089871    0.029983    0.045249    0.097543     0.13652    0.071883  -0.0024977
-0.07493    0.044924    0.054019     0.10859     -1.3651    0.025436   0.0026992
-0.056091    0.064413    0.052395     0.10112     -2.3086   -0.020687    0.008221
-0.038551    0.078055    0.040377    0.071883     -2.5181   -0.047646   0.0072465
-0.026209    0.078055    0.021538    0.022512     -1.9802   -0.055441  -0.0054209
-0.028482    0.064413 -0.00054884   -0.041799    -0.83206   -0.063561   -0.028482
-0.045372    0.040052   -0.021337     -0.1191     0.65231   -0.093769   -0.055766
-0.072006    0.012443   -0.038876    -0.19543      2.0552    -0.14866     -0.0824
-0.092469   -0.011267    -0.04927    -0.24838      3.0146    -0.21427    -0.10676
-0.094093   -0.025234    -0.04927    -0.25942      3.2907    -0.27306    -0.12463
-0.072656   -0.027183   -0.034329    -0.21849      2.8896    -0.30554    -0.12398
-0.035303   -0.013866  -0.0073698    -0.13275      2.0474    -0.29255    -0.10384
0.013093    0.012768    0.032906   -0.021337      1.0651    -0.22142   -0.068758
0.064088     0.04395    0.086175    0.089098     0.15926    -0.09929   -0.026858
0.11151    0.070909     0.14399     0.17257     -0.5852    0.048172    0.014392
0.14724    0.088773     0.19336     0.21123      -1.163     0.19174    0.044924
0.15796    0.095269     0.22909     0.21123     -1.5668     0.31711    0.067336
0.13814    0.091372     0.25313     0.18946     -1.7477       0.423    0.084226
0.10047    0.079679     0.26612     0.14756     -1.6675      0.5068    0.099167
0.058891    0.065062     0.26807    0.071883     -1.3745     0.55747     0.10891
0.023487    0.050446     0.25118   -0.052843     -1.0078     0.56721     0.11346
-0.0011985    0.037129     0.20928     -0.2435    -0.72779     0.53896     0.11476
-0.012892    0.025111     0.14496    -0.49523    -0.60924     0.49413     0.11898
-0.013866    0.013093    0.063113     -0.7632    -0.62028     0.45256     0.12937
-0.0060706   0.0020496   -0.027183    -0.99706    -0.67323     0.42073     0.14367
0.0085458   -0.008669    -0.11423     -1.1673    -0.66218     0.39182     0.15276
0.024786    -0.01614    -0.18309     -1.2543    -0.51277     0.36096     0.15406
0.044275   -0.015165    -0.22109      -1.215    -0.22012     0.32263     0.14691
0.072208  0.00075039     -0.2042    -0.98017     0.15276     0.28236     0.13457
0.10761    0.028359      -0.123    -0.49556     0.52012     0.24858     0.11736
0.13782    0.060515   0.0023744     0.23104     0.84005     0.22552     0.09397
0.14919    0.088448     0.13457      1.0687      1.1103     0.20928    0.064413
0.13847     0.10729     0.23104      1.8265      1.3318     0.19758    0.033881
0.11346     0.11736     0.27099      2.3608      1.4962     0.19076    0.009845
0.086175      0.1219     0.25313      2.6002      1.5657     0.18524   -0.007045
0.067336     0.11931     0.20083      2.5703      1.4695     0.17485   -0.018413
0.053044     0.10566     0.14334      2.3705      1.1502     0.14691   -0.028157
0.034206    0.078704    0.099167      2.1214     0.62341    0.095594   -0.039851
0.0072465    0.041351    0.074482      1.9038   -0.014516    0.022837   -0.050894
-0.02426   0.0020496    0.066362      1.7378    -0.61638   -0.056091   -0.056416
-0.047971    -0.02426    0.074806      1.5998     -1.0139    -0.12073   -0.051219
-0.050569   -0.032055     0.10047      1.4413     -1.0013    -0.15029    -0.03173
-0.028482    -0.01484     0.13944      1.2233    -0.43417    -0.12592  -0.0011985
0.011794    0.020239     0.18362     0.94854     0.64907   -0.033679    0.042001
0.058241    0.062139     0.22259     0.66368      2.0097     0.11866    0.095594
0.099817     0.10144     0.25215      0.4282      3.3862     0.31192     0.15341
0.1297     0.12905     0.26644     0.27261      4.6007     0.51167     0.20765
0.14691     0.14237      0.2619     0.19239      4.9593     0.68609     0.24988
0.15601     0.14367     0.24111     0.16153      4.9593     0.81829     0.27261
0.16738     0.13847      0.2109     0.15341      4.9589     0.90469     0.28041
0.18751     0.13197     0.18329     0.14659       4.219     0.94074     0.28138
0.21447      0.1284     0.16185     0.12093      1.2717     0.91378     0.27814
0.24176     0.12418     0.13847    0.054019     -2.5441     0.78938     0.26222
0.2554     0.11151     0.10404   -0.062912     -4.9701     0.53701     0.22617
0.24338    0.088773     0.05142    -0.22239     -4.9698     0.15796     0.16445
0.20278    0.058566   -0.015165    -0.39811     -4.9698    -0.30424    0.083901
0.14172    0.023812     -0.0837    -0.56376     -4.9695    -0.76839  -0.0047713
0.070259   -0.012892    -0.14249    -0.69434     -4.9701      -1.151   -0.090845
-0.0073698    -0.04927    -0.18342    -0.78074     -4.9698     -1.4096     -0.1714
-0.087272   -0.082725    -0.20843    -0.82394     -4.9701     -1.5515    -0.24448
-0.16198    -0.11261    -0.22272    -0.84115     -4.9698     -1.6174    -0.31366
-0.22694    -0.13469    -0.23214    -0.84927     -4.9695     -1.6476      -0.377
-0.27956    -0.14964    -0.23636    -0.85219     -4.9698     -1.6593    -0.42962
-0.32731    -0.15938    -0.23279     -0.8392     -4.3107     -1.6269    -0.46243
-0.37473    -0.16718    -0.22402     -0.8038     -3.3276     -1.5187    -0.47184
-0.4228    -0.17172     -0.2133    -0.74696     -2.0416     -1.3248    -0.46275
-0.46632    -0.17237    -0.20323    -0.68037    -0.62743     -1.0701    -0.44391
-0.49036    -0.17302    -0.19219    -0.61151       0.639     -0.8038    -0.42215
-0.48256     -0.1714    -0.18049    -0.55759      1.5023    -0.57838    -0.40071
-0.43839     -0.1636    -0.16912    -0.53291      1.8742    -0.42117    -0.37505
-0.36758    -0.15126    -0.15581    -0.55077      1.7839    -0.32958    -0.33932
-0.28605    -0.13632    -0.14249    -0.60079      1.3604    -0.26722    -0.29125
-0.20583    -0.11845    -0.12885    -0.66348     0.81309    -0.19543    -0.22856
-0.13242   -0.097341    -0.11651    -0.71902     0.36681   -0.095717    -0.16035
-0.064211   -0.072981    -0.10871    -0.76644     0.18427    0.032906   -0.092794
-0.0037969    -0.04992    -0.11261    -0.83303     0.29373     0.17777   -0.031081
0.046873    -0.03173    -0.12852    -0.94054      0.5997     0.31159    0.016991
0.082602   -0.024585    -0.15418     -1.0705      1.0012     0.40806    0.043625
0.10209   -0.029782    -0.18244     -1.1624      1.4416     0.45061    0.050121
0.10339   -0.040825    -0.20388     -1.1494      1.8996     0.44021    0.044924
0.090722    -0.04862    -0.20713    -0.98666      2.3527     0.39994    0.032906
0.066362    -0.04927    -0.18634    -0.66608      2.7619     0.35934    0.019589
0.025761   -0.039526    -0.14801     -0.2461      3.0562     0.33758    0.009845
-0.03303   -0.024909    -0.10319     0.18004      3.2001     0.33368    0.003024
-0.10514  -0.0096434   -0.059664     0.52077      3.2878      0.3379  -0.0018481
-0.17497 -0.00022403   -0.017114     0.73092      3.4879      0.3353  -0.0047713
-0.22304  0.00075039    0.024461     0.81407      3.8241     0.31354  -0.0083442
-0.23538  -0.0024977     0.06019     0.80952      4.1378     0.26904   -0.013541
-0.20453  -0.0041217    0.084226     0.75918      4.2388     0.21447   -0.018088
-0.13859      0.0014    0.095594     0.69486      4.0729     0.17452   -0.017439
-0.056416    0.012443    0.099167      0.6351      3.7688      0.1742  -0.0044465
0.024461    0.029009    0.096244     0.58346      3.4233      0.2174    0.020239
0.091047    0.045249    0.091047     0.53733      2.9286     0.28431    0.053694
0.13912    0.059541    0.082927     0.49088      2.0925     0.34245    0.087474
0.16543    0.068635    0.070909     0.44021     0.76632     0.36583     0.11801
0.17127    0.071558    0.058566     0.39864    -0.92593     0.34797     0.13977
0.16575    0.069934    0.050771     0.38532     -2.4931     0.30672     0.15049
0.15276    0.067986    0.053369     0.41196     -3.5211     0.27002     0.15341
0.1349    0.067661    0.067661     0.47172     -3.8118     0.26514     0.16023
0.11021     0.06831    0.092671      0.5422     -3.4396     0.30834     0.17874
0.079029    0.069285     0.11898      0.5906     -2.7296     0.39474     0.20148
0.050446    0.067986     0.13944     0.59352     -2.0059     0.50485     0.22357
0.029333    0.067661     0.14951     0.54383     -1.3823     0.61334     0.24078
0.020239    0.065387     0.15016     0.44704    -0.89929     0.69097     0.25053
0.020888    0.059216     0.14139     0.31744    -0.63132     0.71143      0.2463
0.026735    0.050771      0.1271     0.16933    -0.53713     0.65491     0.22032
0.032582    0.038428     0.11021   0.0075714     -0.4621      0.5159     0.16738
0.032906    0.024786    0.090722    -0.18179    -0.19251     0.31257    0.095269
0.027385    0.012443    0.070584    -0.43969     0.48439    0.081303     0.01829
0.013743      0.0014    0.050771    -0.77879      1.5092    -0.13404   -0.052518
-0.0044465   -0.012892    0.032906     -1.1523      2.4894    -0.31204    -0.11098
-0.028157   -0.034329    0.012443     -1.4836      2.9302    -0.45593    -0.15841
-0.057065   -0.064861    -0.01614     -1.7256      2.5453    -0.57838    -0.19608
-0.093769   -0.097017   -0.056091     -1.8887      1.4585    -0.67842    -0.22661
-0.1282    -0.12073    -0.10903     -2.0027    0.092996    -0.73851    -0.24286
-0.14704    -0.12268     -0.1753     -2.0273     -1.0438    -0.73689    -0.23474
-0.13729   -0.098316    -0.24286     -1.8315     -1.6298    -0.66933    -0.19771
-0.097017   -0.053817    -0.29288     -1.2923     -1.5905     -0.5472    -0.13534
-0.033354  -0.0024977    -0.31269    -0.40786     -1.0961    -0.39811   -0.060963
0.037129     0.04395    -0.29288     0.64809    -0.53875     -0.2526    0.011794
0.09462    0.074482     -0.2435      1.5949    -0.26267    -0.13599    0.072858
0.131    0.084876     -0.1753      2.2429    -0.33055   -0.052193     0.11833
0.14789    0.078379    -0.10091      2.5154    -0.51439   0.0023744     0.14367
0.15049    0.061814   -0.027508      2.4537    -0.45755    0.028359     0.14659
0.14659    0.043625    0.036479       2.163     0.15309    0.014717     0.12678
0.13782    0.029658    0.087474      1.7697      1.4023   -0.043099    0.088448
0.12353    0.022188     0.12548      1.3662      2.9994    -0.14606     0.03453
0.10274    0.019589     0.15373      1.0086      4.4386    -0.27858   -0.027183
0.076106    0.018615     0.17127     0.71728      4.9586    -0.40916   -0.087272
0.05142    0.016991     0.17062     0.48861      4.9589    -0.50497    -0.13437
0.033231    0.013093     0.14919     0.30152      3.8955     -0.5407    -0.16295
0.021863   0.0059473     0.10566     0.13132      1.9525    -0.51017     -0.1714
0.017965  -0.0060706    0.041676   -0.037252    -0.28346    -0.41955    -0.16393
0.014392   -0.024585   -0.031406    -0.19933     -2.2521    -0.28313    -0.14249
0.003024   -0.046022    -0.10286     -0.3377     -3.5923    -0.11651    -0.10838
-0.016789   -0.061288    -0.15711     -0.4267     -4.1704     0.06084   -0.065186
-0.040175   -0.062912    -0.18244    -0.45106     -4.0558     0.22812   -0.014191
-0.056741   -0.051544    -0.18374    -0.42215     -3.4604     0.36226    0.042001
-0.053168   -0.033354    -0.17205    -0.37213     -2.5392     0.44281     0.09462
-0.03173   -0.019063    -0.16165    -0.33315     -1.3498     0.45775     0.13262
-0.00087364   -0.017114    -0.15808    -0.31983    0.017965     0.41033     0.14659
0.025111   -0.027508    -0.15321    -0.32373      1.3958     0.32848     0.13912
0.037778    -0.04115    -0.13534    -0.32601      2.5966     0.25572     0.11801
0.037778   -0.048296   -0.098965    -0.32178      3.4791     0.22389    0.097218
0.030308   -0.043099   -0.046022     -0.3286      3.9618     0.24598    0.078379
0.021863   -0.026858    0.011469     -0.3796      4.0241     0.30152    0.066037
0.015367  -0.0054209    0.057267     -0.4988       3.698     0.35219    0.058241
0.0078962    0.010819    0.082602    -0.67258      3.0517     0.36648    0.054019
-0.0060706    0.016666     0.08585    -0.85901        2.06     0.32491    0.049796
-0.026209    0.014068     0.06831     -1.0107     0.59515     0.22292    0.043625
-0.041475   0.0043233    0.039402     -1.0828     -1.3072    0.075456    0.038753
-0.043748  -0.0018481    0.012768     -1.0341     -3.1781   -0.075255    0.041676
-0.02426   0.0020496 -0.00087364     -0.8392     -4.4355    -0.17562    0.058566
0.016991    0.018615    0.003024     -0.5118     -4.6261    -0.18342      0.0852
0.070909    0.045574    0.022512    -0.10514     -3.7089   -0.089871     0.11054
0.1258    0.074806    0.059216     0.32783     -2.0394    0.080978     0.12645
0.16705     0.10047     0.10696     0.73969    -0.16295     0.27846     0.13912
0.18719     0.11898     0.15471      1.0833      1.3779     0.45353     0.15081
0.18459     0.12678     0.19174      1.3185      2.3855     0.56721     0.15211
0.16478     0.12548     0.20668      1.4163      2.9594     0.59775       0.131
0.13197     0.11508     0.19628      1.3695      3.0825     0.52954    0.086175
0.090722    0.096244     0.16673       1.196      2.5911     0.36746    0.025111
0.048497    0.071234      0.1258     0.93717      1.4345     0.14821   -0.038227
0.010819    0.041676    0.081303     0.64647    -0.18147   -0.074605   -0.089221
-0.018738    0.011794    0.042326     0.37428     -1.8084    -0.25715    -0.12268
-0.041799   -0.017439   0.0095202     0.14984      -3.045     -0.3822    -0.13892
-0.063886   -0.040825   -0.019712   -0.022311     -3.6796    -0.45658    -0.14769
-0.088572   -0.058689   -0.050244    -0.15256     -3.6852    -0.49523    -0.15938
-0.11358   -0.069083   -0.081101     -0.2539     -3.1833     -0.5092    -0.17659
-0.13307   -0.070058    -0.10481    -0.33088     -2.3603    -0.50562    -0.19154
-0.13924   -0.061613    -0.11163    -0.37798     -1.4187    -0.48646    -0.19283
-0.13112   -0.047646    -0.10026    -0.38512    -0.55175    -0.44521    -0.17594
-0.10838   -0.030431   -0.073955    -0.34452    0.040377    -0.37895    -0.14379
-0.072656  -0.0096434   -0.039851    -0.26169      0.2174    -0.29288    -0.10221
-0.032705    0.011144  -0.0063954    -0.15743   -0.025234    -0.19543   -0.050569
0.0052977    0.031932    0.020239   -0.058365    -0.54558   -0.089546   0.0065969
0.038753     0.05142    0.037454    0.019914     -1.0909     0.03518    0.066037
0.067336    0.070584     0.05142    0.075781     -1.4239     0.17939     0.12093
0.091047      0.0852     0.06961     0.10891     -1.4391     0.31939      0.1664
0.10729    0.092996    0.087474     0.11313     -1.1777     0.41456     0.19336
0.11086    0.093645     0.10144    0.086175    -0.75215     0.44086     0.19466
0.099167     0.08585     0.10891    0.040702    -0.22759     0.40546      0.1768
0.082602    0.076106     0.11443   0.0017248     0.42755     0.34635     0.15503
0.075781     0.06831      0.1245  -0.0083442      1.2357     0.30672     0.14334
0.090722    0.067336     0.14302     0.02641      2.1731     0.31614     0.15211
0.12645    0.072533      0.1677     0.10177      3.1787     0.37493      0.1768
0.16608    0.079354     0.19109     0.18589      4.1232     0.45873     0.20473
0.18979    0.079029     0.19856     0.23656      4.8469     0.52499     0.22292
0.19076    0.067986     0.18492     0.22162      4.9589     0.54123     0.22259
0.17257    0.049796     0.15244     0.13684      4.9589     0.49998     0.19823
0.13717    0.029009     0.10826 -0.00054884      4.7108     0.39507     0.14529
0.086175   0.0036737    0.057917    -0.16425      3.4512      0.2096    0.065712
0.020888   -0.027508   0.0020496     -0.3299      1.4439   -0.071682   -0.037902
-0.059014   -0.063237   -0.055766    -0.47964     -1.0571    -0.43189    -0.15938
-0.15126   -0.096042    -0.10676    -0.59527     -3.3656    -0.81354    -0.28346
-0.25033    -0.12268    -0.13892    -0.66413     -4.9678     -1.1497    -0.39292
-0.3429    -0.14022    -0.14931    -0.68687     -4.9701     -1.3966    -0.47607
-0.41305    -0.14931    -0.13794    -0.66673     -4.9698     -1.5245    -0.52576
-0.44294    -0.15223    -0.11228    -0.60956     -3.9486     -1.5129    -0.53875
-0.42832    -0.15321   -0.084349    -0.53128     -2.1534     -1.3582    -0.51732
-0.37798    -0.15548   -0.064211    -0.45138    -0.27956     -1.0906    -0.46795
-0.30489    -0.15288   -0.057715     -0.3822      1.1285    -0.77262    -0.39909
-0.22434    -0.14022   -0.062587    -0.32633      1.6794    -0.47672    -0.32406
-0.15029    -0.11715   -0.073306    -0.27404      1.3597    -0.25975    -0.25033
-0.099615   -0.087922   -0.081426    -0.21167     0.47854    -0.13502    -0.18407
-0.088896   -0.059664   -0.084674    -0.13892    -0.61476   -0.081426    -0.12852
-0.12235   -0.039851   -0.086623   -0.067784     -1.7025   -0.059989   -0.082076
-0.17984    -0.03173   -0.090196   -0.016789     -2.6455   -0.026858   -0.038876
-0.22921   -0.033354   -0.095717   0.0072465     -3.3064    0.046873   0.0088706
-0.24253   -0.034654   -0.096367    0.011794     -3.6075     0.15763    0.062139
-0.2068   -0.032705   -0.084674    0.013093     -3.5757     0.27326     0.11443
-0.13242   -0.025884   -0.058689    0.020564     -3.3178     0.36194     0.15698
-0.044073   -0.013541   -0.022961    0.039078     -2.9975     0.41131     0.18687
0.033231  0.00075039    0.012443    0.067661     -2.7283     0.43307     0.20343
0.082277    0.013418    0.040052     0.11086     -2.4502     0.44346     0.20928
0.094945    0.021538    0.053044     0.16445     -1.9913     0.44639     0.20181
0.073832    0.019589    0.047847      0.2187     -1.1585     0.43632     0.18329
0.036154   0.0095202    0.020239     0.25475     0.12288     0.40676     0.15828
0.0062721  -0.0054209   -0.034329     0.26255      1.6004      0.3733     0.13717
0.0095202   -0.013866    -0.10968     0.25735      2.8685     0.36194      0.1336
0.055968  -0.0076946    -0.19381     0.26514      3.6308     0.38597     0.15503
0.1284    0.013743    -0.26754     0.30152      3.7315     0.44411     0.19726
0.19953    0.041676    -0.31594     0.36518      3.1241      0.5159      0.2463
0.25215    0.066686    -0.32211     0.42008      1.9366     0.56429     0.28463
0.28398    0.091372    -0.27664     0.41878     0.52434     0.55162     0.30834
0.30087     0.11411    -0.19219     0.32978    -0.57059     0.45938     0.31257
0.30672      0.1284    -0.10026     0.15698     -1.0107     0.29925      0.2908
0.29373     0.12613   -0.045697    -0.06616     -1.0224    0.095919     0.24046
0.2528    0.099817   -0.058365     -0.2867     -1.0023     -0.1191     0.16608
0.17874    0.045574    -0.14152    -0.43969     -1.0338    -0.30977    0.084226
0.084226   -0.024909    -0.26299    -0.46762     -0.8759    -0.43612   0.0095202
-0.010618   -0.093769    -0.37343    -0.34842    -0.32081     -0.4556   -0.037902
-0.088896    -0.13989    -0.43189    -0.11098     0.60359    -0.35361   -0.051219
-0.14574    -0.15613    -0.42637     0.16705      1.6407    -0.15841   -0.035953
-0.18114    -0.14834    -0.36303     0.39247      2.5505    0.061489   -0.008669
-0.19966    -0.12625    -0.25325     0.49641       3.191     0.23656    0.023812
-0.20323   -0.096367    -0.11521     0.45256      3.4145     0.32653    0.055968
-0.19154   -0.061613    0.028684     0.28756      2.9594     0.31809    0.078379
-0.16198   -0.029132     0.15568    0.064088      1.5134     0.21058    0.082602
-0.11423  -0.0057458     0.23883    -0.14249    -0.95029    0.019914    0.063113
-0.057715   0.0039985     0.26157    -0.27306      -3.665    -0.20745    0.021863
-0.0031473  0.00042559     0.23136    -0.30977     -4.9695    -0.40721   -0.029782
0.043625  -0.0063954     0.16965    -0.27436     -4.9698    -0.52089   -0.081426
0.079679  -0.0054209     0.10924    -0.21914     -4.9701    -0.53096    -0.12333
0.10306   0.0075714    0.070259    -0.18374     -3.4721    -0.46307    -0.15581
0.10859    0.028034    0.062139    -0.16523     -1.0172     -0.3731    -0.18439
0.089748    0.044599    0.076755    -0.14152      1.1769    -0.30944    -0.21362
0.046548    0.050446    0.098517   -0.097666       2.455    -0.30554    -0.24318
-0.010943    0.038428     0.10501   -0.044723      2.7389    -0.36693    -0.26884
-0.064536    0.010819    0.086175  -0.0054209      2.3468    -0.46567    -0.28411
-0.096042   -0.021986    0.044599   0.0033489      1.7641    -0.55077    -0.28443
-0.10156   -0.050894      0.0014    -0.01614      1.3698    -0.57871    -0.27111
-0.089221   -0.070382   -0.022636    -0.04992      1.3081    -0.53616    -0.24448
-0.074605    -0.07428    -0.01614   -0.081751      1.4474    -0.43741    -0.20843
-0.063237   -0.060638    0.017316   -0.095068      1.4962    -0.31269    -0.17075
-0.054792   -0.036278    0.063763   -0.087272      1.2678    -0.19608    -0.13567
-0.04992  -0.0099683     0.11021   -0.061613     0.82706    -0.11391    -0.10124
-0.050569    0.011469     0.14626   -0.025234     0.39767   -0.069408   -0.061937
-0.057065    0.026735      0.1716    0.019589      0.2174   -0.044723   -0.013866
-0.060638    0.037129     0.18687     0.06896     0.40059  -0.0073698    0.042975
-0.043748    0.049147     0.19499     0.12515     0.95763    0.076106     0.10696
0.011469    0.072858     0.20181     0.19109      1.8866     0.23201     0.17874
0.10794     0.11248     0.20733     0.27684      3.1312     0.46328     0.25313
0.22487     0.15796     0.21188     0.39019      4.5354     0.74001     0.31581
0.32458     0.19563     0.21317     0.54383      4.9589      1.0064     0.35609
0.37948      0.2174     0.21155     0.73352      4.9589       1.196     0.36746
0.37915     0.22389     0.21707      0.9297      4.9589      1.2717     0.35447
0.32913     0.21512     0.22779      1.0804      4.9589      1.2399     0.32231
0.24436     0.18946     0.23169      1.1334      4.1534      1.1262     0.27067
0.13847     0.14204      0.2122      1.0544      2.9682     0.94724     0.19434
0.023162    0.075781     0.16218     0.84363      1.5384     0.69194    0.087799
-0.0837   0.0010752      0.0865     0.53506    -0.49588      0.3457   -0.041799
-0.1688   -0.065186  -0.0041217     0.18914     -3.1301   -0.078827    -0.17562
-0.22304    -0.11261    -0.09182    -0.12885     -4.9704    -0.53161    -0.29093
-0.24448    -0.14184    -0.16165     -0.3744     -4.9695    -0.94476    -0.37343
-0.24188    -0.15548    -0.20843    -0.53583     -4.9698     -1.2533      -0.415
-0.22921    -0.16035    -0.23538    -0.62288     -4.9701     -1.4128    -0.41988
-0.21914    -0.16068    -0.24286    -0.65146     -4.9698     -1.4154    -0.39714
-0.21362    -0.15776    -0.23344     -0.6362     -4.9701     -1.2787    -0.35979
-0.20193    -0.14704    -0.20615    -0.58195     -4.5888      -1.026    -0.30814
-0.17627     -0.1282    -0.16393    -0.48906     -2.0611    -0.69921    -0.23896
-0.13827    -0.09929    -0.11358    -0.36109    -0.15191    -0.35686    -0.15191
-0.10319    -0.06681   -0.061613    -0.20648      1.0174   -0.055766   -0.052518
-0.081426   -0.039851   -0.016464   -0.053492      1.6407     0.17874     0.05272
-0.067784   -0.021661    0.014717    0.064413      1.9551      0.3457     0.15244
-0.04862  -0.0096434    0.034855     0.13522      1.9642     0.45256     0.23526
-0.017764  -0.0031473    0.049472     0.16835      1.5397     0.49251      0.2895
0.023812  -0.0037969    0.059541     0.16673     0.71468     0.44541     0.30217
0.065062   -0.012892    0.061165     0.11508    -0.20875     0.30087     0.26774
0.09397   -0.031406    0.049147  -0.0034721    -0.82264    0.080653     0.18946
0.10599   -0.047646    0.030308    -0.15516    -0.92365     -0.1662    0.083901
0.10371   -0.056416    0.015367    -0.25033    -0.55467    -0.37213   -0.025559
0.092346   -0.054792    0.016016    -0.22759     0.11931    -0.48256    -0.11845
0.074806   -0.047646    0.031282    -0.10871     0.88293    -0.48029    -0.17854
0.051745   -0.037577    0.049472    0.036154      1.5377    -0.38122    -0.20355
0.022512   -0.028807    0.054993     0.14172      1.9408    -0.22661    -0.19998
-0.011267   -0.021337    0.043625      0.1768      2.0529   -0.061613    -0.18082
-0.045372   -0.015815     0.01894     0.14724      1.9265    0.081627    -0.15288
-0.07493   -0.012567   -0.011592    0.073832      1.7096     0.18459     -0.1243
-0.10026  -0.0093186   -0.043423   -0.018413      1.5511     0.23689   -0.097017
-0.11943   -0.007045    -0.07428    -0.11715      1.4114     0.23201   -0.073631
-0.1256  -0.0044465    -0.10026      -0.212      1.1022      0.1742    -0.05739
-0.11586  -0.0034721     -0.1204    -0.30002     0.55325    0.092021    -0.04992
-0.095393  -0.0083442    -0.13242    -0.39032   -0.069083    0.028034   -0.044723
-0.071032   -0.019063    -0.13729    -0.48808    -0.49913    0.013743   -0.039851
-0.051219   -0.030431    -0.13924     -0.5878      -0.555    0.053369   -0.034654
-0.035303   -0.037902    -0.14022    -0.67615    -0.20745     0.13067   -0.029132
-0.022961   -0.039526    -0.13794    -0.74793     0.43404     0.21967   -0.021986
-0.014191   -0.039201    -0.13177    -0.82978      1.1558      0.2934   -0.017764
-0.014191   -0.039851    -0.12625    -0.95256       1.756     0.33335   -0.018738
-0.018413   -0.040825    -0.12268     -1.0935      2.0837     0.33368   -0.024585
-0.016464   -0.035628    -0.12268     -1.1838      2.0776      0.3012   -0.031081
-0.0060706   -0.021661    -0.12463     -1.1777      1.7856     0.25637   -0.032705
0.012768    0.003024    -0.12398     -1.0906      1.3253     0.22324   -0.024585
0.036479    0.038103    -0.10741    -0.93469     0.84622     0.21382  -0.0044465
0.063113    0.078055   -0.059664    -0.64497     0.51719     0.22584    0.024137
0.095594     0.11898    0.023812    -0.13762     0.44184     0.25637    0.058566
0.13197     0.15309     0.12288     0.56234     0.57241     0.30315    0.094945
0.16315     0.17582     0.20473      1.2769     0.73904     0.35999      0.1336
0.18134     0.18492     0.24566      1.8239       0.804     0.41813     0.17322
0.18264      0.1781     0.24338      2.0974     0.73611     0.46685     0.20473
0.16998     0.15958     0.20993      2.1029     0.54513     0.49218     0.22032
0.15016     0.13327     0.16608       1.933     0.26872     0.48861        0.22
0.12905     0.10501     0.12872      1.7021   -0.077853     0.46717     0.20765
0.11411    0.080003     0.10956      1.4958    -0.53063     0.44249     0.19239
0.10989    0.065062     0.10956      1.3458      -1.036      0.4217     0.18167
0.11346    0.063763     0.12125       1.225     -1.4427     0.39539      0.1729
0.11638     0.06896     0.13035       1.082     -1.6301     0.33952     0.15731
0.11086    0.071558     0.12483     0.88163     -1.6269     0.23331     0.12775
0.090722    0.062464     0.10274     0.62471     -1.6087    0.072533    0.083576
0.057917    0.041027    0.072208     0.34212     -1.7181     -0.1321    0.033231
0.024137    0.012119    0.042975    0.082277     -1.8425    -0.34907    -0.01484
-0.0050961   -0.016789    0.021538    -0.11423     -1.7756    -0.53421   -0.056091
-0.026858   -0.039201    0.009845    -0.22791     -1.4161    -0.65049   -0.086298
-0.042124    -0.04927   0.0046481    -0.26592    -0.83823    -0.67875    -0.09929
-0.052193   -0.042774      0.0014    -0.25292    -0.23636    -0.62418   -0.092469
-0.05804   -0.028807  -0.0041217    -0.22337     0.22584    -0.51245   -0.073955
-0.059339   -0.017114   -0.011592    -0.20778     0.49738    -0.36791   -0.052518
-0.057065   -0.011592   -0.022636    -0.22337     0.64907    -0.21167   -0.039201
-0.054467   -0.012242   -0.043099    -0.26819     0.79036   -0.063886   -0.035953
-0.051868    -0.01614   -0.071357    -0.32698     0.96251     0.06019   -0.040175
-0.04927   -0.020362   -0.099615     -0.3835       1.084     0.14042   -0.046022
-0.048945   -0.025234    -0.12268    -0.42475      1.0219     0.17095    -0.04862
-0.047971   -0.030756    -0.13307    -0.44261      0.7137     0.15698   -0.046671
-0.041799   -0.035303     -0.1243    -0.42702     0.22162     0.11638   -0.037902
-0.033354   -0.038551   -0.097017    -0.38057    -0.29417    0.064413   -0.024585
-0.02361   -0.036278   -0.059989    -0.31334    -0.67095    0.011144   -0.012242
-0.016789   -0.027833   -0.022311    -0.24253    -0.83271   -0.036602  -0.0041217
-0.019063   -0.015815   0.0078962    -0.18082    -0.78463   -0.073631  0.00010078
-0.035628  -0.0028225    0.032582    -0.13242    -0.58325   -0.098965    0.003024
-0.061288     0.01017    0.053369   -0.098641    -0.26007    -0.11813   0.0059473
-0.088896    0.017965    0.072858   -0.075904     0.19823    -0.13112   0.0091954
-0.10774    0.020239      0.0852   -0.063237     0.79653    -0.13632    0.013743
-0.11553    0.013743    0.088773   -0.062262      1.4916    -0.13015     0.01894
-0.11001  -0.0021729      0.0852   -0.072331      2.2114    -0.11033    0.029333
-0.088896   -0.021337    0.071558   -0.094418      2.8824    -0.08305    0.042326
-0.05804   -0.034654    0.048822    -0.13242      3.3856   -0.065186    0.051096
-0.02426   -0.036927    0.022837    -0.18764      3.5369   -0.067784    0.052395
0.0033489   -0.028157  0.00010078    -0.25455      3.1338   -0.092469    0.047847
0.023812   -0.010943   -0.012567    -0.32601      2.0363    -0.13015    0.046548
0.037454   0.0078962   -0.014516    -0.40331     0.28463    -0.16718    0.049796
0.053044     0.02706  -0.0080194    -0.51245     -1.8273    -0.20031    0.049796
0.074482    0.040052   0.0046481    -0.69824     -3.8901    -0.23181    0.045574
0.099167    0.048497     0.01894    -0.97984     -4.9695    -0.25942    0.039727
0.12418    0.056617    0.032257     -1.3131     -4.9698    -0.27566    0.043625
0.15146    0.064088      0.0433      -1.623     -4.9701    -0.26267    0.061489
0.18232    0.072858    0.057592     -1.8464     -4.9698     -0.2029    0.089423
0.21123    0.084551    0.074806     -1.9452     -4.9701   -0.092469      0.1219
0.23071    0.095919    0.090397     -1.8984     -3.6852    0.048172     0.14691
0.23591     0.10209    0.096893     -1.6681    -0.76774     0.17874     0.15276
0.22065    0.097218    0.082602     -1.1965      1.8473     0.25183     0.13002
0.18264    0.078704    0.041676    -0.46925      3.6149     0.23851    0.080003
0.12807     0.05142   -0.024909     0.40643      4.7014     0.15373     0.01764
0.068635    0.021538    -0.10903      1.2194      4.9586    0.040702   -0.036927
0.015692  -0.0089938    -0.19933      1.8206      4.9593   -0.055116   -0.070707
-0.027508   -0.041799    -0.27793      2.1497      4.9589    -0.10871   -0.075904
-0.060313   -0.079152     -0.3286      2.2364      4.0989    -0.12592   -0.055441
-0.089546    -0.11845    -0.34549      2.1464      1.7524    -0.13697   -0.024585
-0.12755    -0.15678    -0.33737      1.9405     -1.1059    -0.18407  -0.0057458
-0.18082    -0.18926    -0.32341      1.6618     -3.4162    -0.28638   -0.013866
-0.24513    -0.21265    -0.31821      1.3448     -4.4894    -0.42507   -0.047646
-0.30489    -0.22077    -0.32146      1.0258     -4.1048    -0.54395   -0.094093
-0.34225     -0.2146    -0.32276     0.73449     -2.6039    -0.59072    -0.13469
-0.34809    -0.19706    -0.31009     0.49218    -0.63652    -0.53875    -0.15678
-0.32795     -0.1714    -0.27696     0.30445      1.1561    -0.40169    -0.15483
-0.29515    -0.14509    -0.22402     0.16543      2.2767    -0.22272    -0.13599
-0.26299    -0.12463    -0.16198    0.054668      2.5865   -0.054467    -0.11521
-0.23766    -0.10936    -0.10416   -0.062912      2.1883    0.059865    -0.10319
-0.2159   -0.098316   -0.064861    -0.20388      1.3851     0.10469    -0.10124
-0.19608   -0.089221   -0.048945    -0.35914     0.53798    0.091047    -0.10514
-0.18114     -0.0824   -0.048945    -0.50822   -0.065835    0.041351    -0.11358
-0.16782   -0.074605   -0.053817    -0.62418    -0.27988   -0.021661    -0.12527
-0.14899   -0.062587   -0.051219    -0.68427    -0.09182   -0.068758    -0.13697
-0.11943   -0.043423     -0.0405    -0.67907     0.42625   -0.063886    -0.14022
-0.080451   -0.022961   -0.022961    -0.61931      1.0947    0.016341     -0.1269
-0.03303  -0.0031473  -0.0067202    -0.52251      1.6927     0.16185   -0.095068
0.025761    0.016341   0.0033489    -0.40526       2.049     0.34472   -0.050569
0.09397     0.03518   0.0072465    -0.28183      2.1182     0.53538 -0.00054884
0.16705    0.053694   0.0062721    -0.16555       1.999     0.71175    0.050771
0.22812    0.070259    0.003024   -0.070707      1.9022     0.85272    0.097543
0.25605     0.07708  -0.0076946   -0.022311      2.0058     0.93035     0.13002
0.24143    0.071234   -0.030106   -0.054142      2.3014      0.9232     0.13944
0.19141    0.055968   -0.063886    -0.18309      2.6194     0.82056     0.12678
0.12223    0.038428   -0.098965    -0.37765      2.6807     0.62795    0.098193
0.050771    0.028034    -0.12268    -0.56117      2.1594     0.36031    0.059216
-0.0076946    0.026085     -0.1256    -0.65861     0.83453    0.045899    0.016991
-0.046671    0.027385    -0.10644    -0.63327     -1.1971    -0.27858   -0.027833
-0.065835     0.02641   -0.071682    -0.49491     -3.3191    -0.57416   -0.073955
-0.073631    0.021538   -0.029782    -0.28605     -4.9422    -0.81159     -0.1191
-0.072981    0.015692    0.013418   -0.072006     -4.9698    -0.98179    -0.15938
-0.065186    0.011794    0.053694    0.091372     -4.9701     -1.0802    -0.19154
-0.055766    0.009845    0.088124     0.17712     -4.9698     -1.0987    -0.20972
-0.04927    0.008221     0.12028     0.18751     -4.0425     -1.0422    -0.21362
-0.047321   0.0039985     0.14561     0.14237     -2.9176    -0.93534    -0.21037
-0.048945  -0.0018481     0.15796    0.068635     -2.0176    -0.81387     -0.2055
-0.051219  -0.0089938     0.15698   -0.007045     -1.5155    -0.70798    -0.20225
-0.052518   -0.014191     0.14464   -0.068109       -1.42     -0.6388    -0.19901
-0.057715   -0.012242      0.1284    -0.10838     -1.5606    -0.60631    -0.19608
-0.072331  -0.0044465     0.11313     -0.1256     -1.6561     -0.5943    -0.19641
-0.094093   0.0065969    0.099817     -0.1256     -1.4898     -0.5826     -0.2016
-0.11618    0.014068    0.092021    -0.11878     -1.0188    -0.56312    -0.20745
-0.1308    0.016341    0.089423    -0.11261    -0.36693    -0.53291    -0.20648
-0.13502    0.015367     0.09397    -0.10579     0.23689    -0.48646    -0.19673
-0.13469    0.010495     0.10469   -0.096367      0.5893    -0.41403    -0.17627
-0.13469   0.0036737     0.11963   -0.078503     0.64939    -0.30554    -0.14704
-0.13957 -0.00054884     0.13977   -0.058365     0.52661    -0.16328    -0.10741
-0.13924  0.00042559     0.16413   -0.046022     0.40286  -0.0018481   -0.064536
-0.12527   0.0091954     0.18881   -0.043748     0.40221     0.15438   -0.021986
-0.091495    0.023162       0.207   -0.046022     0.56494     0.28333    0.016666
-0.043423     0.03583      0.2148   -0.044723     0.83421     0.37915    0.053369
0.013093    0.042651      0.2135   -0.035953      1.0619     0.45353    0.092021
0.070259      0.0433     0.20278   -0.021986      1.0801     0.51167     0.13165
0.12418     0.04395     0.18394  -0.0054209     0.85012      0.5474     0.17387
0.17517    0.045899     0.15568    0.019264     0.49803     0.55357     0.21707
0.21935    0.054344     0.12125    0.065387     0.18946     0.52661     0.25345
0.2489    0.070909      0.0852     0.14172    0.023487     0.47172     0.27781
0.26417    0.091696    0.050771     0.24663   -0.061288     0.40351     0.28853
0.26514     0.10761    0.017965     0.35869    -0.22564     0.33823     0.28723
0.25345     0.11216  -0.0089938     0.45223    -0.54947     0.28885     0.27846
0.23624     0.10859   -0.030431     0.50388    -0.97075     0.26579     0.26677
0.21837     0.10112   -0.046671     0.49706      -1.329     0.26579     0.25215
0.20473     0.09462   -0.054792     0.43892     -1.4317     0.28236     0.22877
0.19563      0.0865   -0.048945     0.35317     -1.0887     0.31029     0.19921
0.18492    0.072858   -0.030756     0.26579     -0.2146      0.3457       0.169
0.16673    0.053369  -0.0041217     0.19434      1.0856      0.3811     0.14172
0.14042    0.031932    0.022837     0.14269       2.542      0.4152      0.1206
0.10729    0.016016    0.045249     0.11151      3.8754     0.45126     0.10534
0.073832   0.0072465     0.06084     0.10242      4.9437     0.48276    0.086175
0.042975   0.0049729    0.075456     0.11281      4.9593     0.49673     0.06084
0.016991   0.0095202    0.092346     0.13814      4.9589     0.47822    0.032906
-0.0041217    0.016666     0.11346     0.16835      4.9586     0.42657    0.014392
-0.01484    0.026735     0.13035     0.19531      4.3616     0.35934    0.019264
-0.0067202    0.037454     0.13132     0.19791      2.8146     0.30574    0.050771
0.025761    0.047523     0.10664     0.15796      1.1967     0.27586     0.10112
0.076431    0.054019    0.047847    0.071558     -0.2906      0.2567     0.15179
0.12125    0.053044   -0.039851   -0.047971     -1.7181     0.20863     0.18297
0.13132    0.041676    -0.14184    -0.16847     -3.3753    0.090722     0.17452
0.094945     0.01764    -0.23571    -0.25325     -4.9698    -0.10189     0.12548
0.017965    -0.01549      -0.301    -0.27761     -4.9701    -0.33088    0.049796
-0.080127   -0.051544    -0.32698    -0.23798     -4.9698    -0.53778   -0.033354
-0.17659   -0.079152    -0.31204    -0.15386     -4.9701    -0.65991   -0.097017
-0.24513   -0.089871    -0.26657   -0.051544     -4.9701    -0.64886    -0.12105
-0.27209   -0.083375     -0.2042    0.047523     -4.8161    -0.50595    -0.10514
-0.25552   -0.062587    -0.13762     0.12678     -2.5857    -0.27988   -0.063561
-0.21005   -0.034978   -0.080776     0.17615    -0.82296   -0.047971   -0.018088
-0.15451  -0.0083442   -0.036602     0.19823    0.044924      0.1206    0.012768
-0.10384    0.015692  -0.0050961     0.20278   -0.061613      0.2044    0.022188
-0.064536    0.033881    0.017965     0.20278     -0.8379     0.23364    0.017316
-0.039526      0.0433    0.039727     0.20408     -1.7149     0.25313    0.010819
-0.027183    0.042651    0.061814     0.20181     -2.1258      0.2908   0.0052977
-0.026533    0.031607    0.074806     0.18037     -1.6762     0.34245  -0.0031473
-0.035953    0.010495    0.075781     0.12775    -0.30294     0.39344   -0.018088
-0.048945   -0.011917    0.066037    0.050771      1.6836     0.43729   -0.035953
-0.060638   -0.029457    0.044924   -0.035303      3.8315     0.47497   -0.053817
-0.064536   -0.044398    0.012768    -0.11098      4.9586     0.49706   -0.072006
-0.06616   -0.059664   -0.022311    -0.15841      4.9593     0.47724   -0.094743
-0.07428   -0.075579   -0.052193     -0.1714      4.9589     0.37428    -0.12592
-0.097341   -0.089221   -0.070382    -0.16035      4.9593     0.15536    -0.16847
-0.13177   -0.097341   -0.081426    -0.15256      4.9589    -0.16653    -0.22077
-0.16815   -0.099615   -0.092145     -0.1688       2.722    -0.52674    -0.27046
-0.19381   -0.098965    -0.10124     -0.2159    -0.72552    -0.83076    -0.29872
-0.19738   -0.096042    -0.10579    -0.28118     -3.4247    -0.99738     -0.2971
-0.17302   -0.089221    -0.09994    -0.33997      -4.873    -0.98991    -0.26039
-0.12657   -0.073306   -0.079477    -0.36271     -4.9698    -0.82556    -0.18829
-0.063886   -0.044723   -0.046347    -0.32503     -4.2656    -0.56864   -0.095393
0.0075714  -0.0063954  -0.0054209     -0.2146       -3.03    -0.31009   0.0049729
0.080653    0.033231    0.033881   -0.038551     -1.8773    -0.12073    0.093321
0.14432     0.06831    0.064088       0.169     -1.0422   -0.029457     0.15763
0.19011    0.094295    0.078055     0.35966     -0.4988   -0.029132     0.19531
0.20993     0.10631    0.073507     0.48699    -0.11683    -0.10059     0.20505
0.20213     0.10112    0.050121     0.52629     0.26449    -0.21849     0.18492
0.17127    0.080328     0.01829     0.47822     0.75073    -0.34484     0.14399
0.131    0.054344  -0.0080194     0.37655      1.3727    -0.42865     0.10177
0.099167    0.032257   -0.019388     0.27034      2.0802    -0.42507    0.073182
0.088773    0.022188   -0.012242     0.20051      2.7489    -0.31951    0.067661
0.099817    0.022188    0.012119     0.18589      3.2508    -0.13502    0.079679
0.1232    0.026735    0.042326     0.21025      3.4911    0.086824    0.095594
0.14464    0.029333    0.065062     0.23624      3.4515     0.30022     0.10566
0.15503    0.025436    0.070584     0.22877      3.1712     0.47107     0.10371
0.15276    0.015042    0.059541     0.17322      2.7593     0.56916     0.08585
0.14107  -0.0024977    0.036479    0.078055      2.3325     0.57598    0.053044
0.12288   -0.026533   0.0043233   -0.034004      1.8902     0.49478   0.0085458
0.098517   -0.053168   -0.035953    -0.14249      1.2656     0.34505   -0.043748
0.064413   -0.077853     -0.0824    -0.24123     0.36876     0.15601    -0.10059
0.020564   -0.096692    -0.12365     -0.3312    -0.56312   -0.034978    -0.15548
-0.030106    -0.10676    -0.15126    -0.40169     -1.0571    -0.19186    -0.19673
-0.087597    -0.11001     -0.1597    -0.43774    -0.80152    -0.27923    -0.21752
-0.15256    -0.11131    -0.14834    -0.42572     0.14854    -0.28021    -0.21427
-0.21752    -0.10936    -0.11683    -0.35914      1.4107    -0.19641    -0.18894
-0.26267    -0.10254   -0.070707    -0.24805      2.5544   -0.054467    -0.14899
-0.26884   -0.089221   -0.018413    -0.11878      3.3268     0.10274    -0.10384
-0.22986   -0.070707    0.033231 -0.00087364      3.6792     0.23364   -0.067784
-0.1597   -0.051219    0.077405    0.080978      3.6165     0.30022   -0.050894
-0.088572   -0.033679     0.11281     0.11541      3.1137     0.29178   -0.053817
-0.039201   -0.019063     0.14302     0.10664      2.2286     0.22357   -0.070382
-0.018413  -0.0063954     0.16315    0.075781      1.1743     0.13295   -0.088572
-0.021337   0.0017248     0.16998    0.045899     0.19628    0.053369    -0.10059
-0.034654    0.003024     0.15958    0.029983    -0.55922   0.0039985    -0.10838
-0.043423  -0.0018481     0.13814    0.024137     -1.0256   -0.021661    -0.11553
-0.040825   -0.011267     0.11443    0.013418     -1.2559   -0.036602      -0.123
-0.02426   -0.018738    0.087799   -0.033679     -1.4011   -0.040175     -0.1269
0.0020496   -0.023935    0.045574    -0.15288     -1.5759   -0.018088    -0.11975
0.03453   -0.029457   -0.021012    -0.35394     -1.8065    0.039727   -0.097666
0.064737   -0.035628    -0.10384    -0.61151     -2.0757     0.13457   -0.061613
0.091696   -0.033679    -0.17237    -0.86324     -2.2342     0.26352   -0.014191
0.11801   -0.012892    -0.19966     -1.0234      -2.004     0.40351    0.042975
0.14464    0.028034    -0.17822     -1.0165      -1.228     0.51102     0.10469
0.15698    0.073832    -0.13112    -0.81647   -0.030756     0.52531     0.15503
0.13977     0.10404   -0.096692    -0.47347      1.2954     0.40903     0.17582
0.091696     0.10404    -0.10384   -0.087272       2.342     0.19011     0.16868
0.028359    0.080003    -0.14639     0.24923       2.748   -0.052843     0.14009
-0.023285    0.045249    -0.19348     0.48569      2.4108    -0.24805     0.10534
-0.047321    0.016991    -0.21297      0.6325      1.4757     -0.3783    0.072208
-0.04992  -0.0028225    -0.19251     0.71565      0.1768    -0.47055    0.039078
-0.043748   -0.018413    -0.14314     0.74423     -1.2884    -0.55435   0.0072465
-0.041475   -0.029782   -0.084349     0.73806     -2.7861     -0.6375   -0.015815
-0.038227    -0.03303   -0.036278     0.72247     -4.2432    -0.71188   -0.024909
-0.026209   -0.029782   -0.012242     0.70006     -4.9698    -0.76612   -0.017764
-0.0031473   -0.020687   -0.020687     0.62925     -4.9701    -0.78561   0.0010752
0.029983   -0.013216   -0.057065     0.46587     -4.9701    -0.75475     0.02706
0.063763  -0.0063954   -0.097991     0.23396     -4.9698    -0.66316    0.054668
0.092346  0.00075039    -0.11261    0.055318     -3.5172    -0.52154     0.07708
0.11313    0.012443   -0.082076    0.034206     -2.1453    -0.35849     0.09397
0.12223    0.027385    -0.01614       0.169     -1.4859    -0.21232     0.10209
0.11671    0.041676    0.062139     0.36616     -1.6818    -0.10936     0.10177
0.095919    0.053044     0.12937     0.52564     -2.3879   -0.054792    0.096244
0.063763    0.061814      0.1716     0.59775     -3.0979   -0.030106    0.087474
0.032582    0.072533     0.19304      0.5867     -3.4373  -0.0093186    0.081627
0.008221      0.0852     0.19888     0.52694     -3.2769    0.024786    0.082277
-0.010293     0.09462     0.20376      0.4597     -2.7143    0.073832      0.0865
-0.026858    0.098842     0.21317     0.41131     -1.9565     0.12807    0.086824
-0.039201    0.093645     0.22617     0.37558     -1.1929     0.17127    0.081952
-0.044723    0.080003     0.23201     0.33075    -0.50303     0.19336    0.074806
-0.038551    0.063113     0.22129     0.26092     0.12288     0.19271    0.062464
-0.020687    0.047198     0.19011      0.1755      0.7137     0.17842    0.047847
0.0020496    0.032257     0.14691     0.09462      1.2701     0.16803    0.032582
0.022188    0.018615     0.10209    0.038428      1.8067     0.17355    0.025436
0.038103   0.0088706    0.063113     0.01764      2.3426     0.20603    0.028034
0.050771   0.0052977     0.03583    0.030308      2.8272     0.27554    0.042975
0.058566   0.0085458    0.022512    0.057592      3.1478     0.38078     0.06961
0.064088    0.016341    0.016666    0.074482      3.2017     0.50907     0.10794
0.063763    0.026085    0.010819     0.06831      2.9662      0.6351     0.15276
0.055318    0.032906  -0.0031473    0.046223      2.5755     0.72767     0.19369
0.042975    0.036479   -0.019388    0.019264      2.2276     0.76535     0.22454
0.030308    0.035505   -0.031081  -0.0089938      1.9736     0.75398     0.24111
0.020888    0.029983    -0.03238   -0.041475      1.6862     0.70558     0.24176
0.016341    0.021538   -0.018088   -0.077853      1.2597     0.62113     0.22162
0.024137    0.014717    0.014717    -0.11715     0.67375     0.49673     0.18167
0.041351    0.012768    0.068635    -0.20031    0.023812     0.34732     0.12775
0.063763     0.01829     0.13652    -0.42117    -0.43417     0.21447    0.077405
0.079029    0.027709     0.19369    -0.85414    -0.51959     0.13425    0.044599
0.082602    0.030308       0.207     -1.4739    -0.39551     0.10859    0.023812
0.06896    0.014392     0.14984     -2.1673    -0.51504    0.097218      0.0014
0.032582   -0.022961    0.017965     -2.8306     -1.1478     0.03583   -0.036602
-0.025234   -0.077528    -0.16198     -3.4227     -2.0631    -0.11488   -0.096692
-0.099615    -0.13697    -0.34192      -3.894     -2.7562    -0.33965    -0.17432
-0.17205    -0.17692    -0.47022     -4.0834     -2.8199    -0.57643    -0.25292
-0.22272    -0.17887    -0.51732     -3.7436     -2.1261     -0.7502    -0.30977
-0.23246    -0.14281    -0.48224     -2.7208    -0.86324    -0.81484     -0.3299
-0.19024   -0.077203    -0.38804     -1.0997     0.52759    -0.75475    -0.30619
-0.10026 -0.00087364    -0.26169     0.81277      1.4822     -0.5891    -0.24091
0.011794    0.067011    -0.12722      2.5021      1.6677    -0.35459    -0.14444
0.11476     0.11443   0.0033489      3.7081      1.0742   -0.098316   -0.037577
0.18589     0.13392     0.12223      4.3366   -0.012242     0.13165    0.055643
0.22097     0.12775     0.21382      4.4412     -1.1338       0.296     0.11606
0.2174     0.10242     0.26449      4.1534     -1.8432     0.37168     0.13847
0.18004    0.065712     0.26547      3.6321     -1.8263     0.36259      0.1284
0.11833    0.028034     0.22519      3.0107    -0.95613     0.29405    0.095919
0.044599  -0.0054209     0.16283      2.3764     0.70526     0.20246     0.05272
-0.034329    -0.03238    0.098193      1.7671      2.8902     0.10631   0.0062721
-0.10806   -0.055441    0.041351      1.2032      4.9589   0.0065969   -0.043423
-0.17205   -0.076229  -0.0093186     0.70039      4.9589    -0.10254   -0.095717
-0.22467   -0.094418   -0.056091     0.27911      4.9593    -0.21427    -0.14541
-0.26624    -0.10903   -0.097017   -0.042774      4.9589    -0.32276    -0.18277
-0.29288    -0.12105     -0.1282    -0.27111      4.9589     -0.4267    -0.20128
-0.30262    -0.13145    -0.14769     -0.4254      2.1656    -0.52414     -0.2029
-0.29353    -0.14152    -0.15678    -0.53778     -1.4641    -0.60144    -0.19381
-0.27664    -0.15256    -0.16393    -0.63685     -4.2757    -0.65309    -0.18991
-0.25975    -0.16165    -0.18147    -0.73591     -4.9701    -0.68882    -0.20096
-0.2552    -0.16977     -0.2107    -0.83173     -4.9698    -0.72325    -0.22597
-0.26624    -0.17789     -0.2474    -0.90611     -4.9698    -0.77781    -0.25975
-0.28605    -0.18147    -0.27988    -0.94444     -4.9701    -0.85804    -0.30067
-0.30392    -0.18114    -0.29482    -0.94022     -4.9701    -0.94411    -0.34355
-0.30814    -0.17659    -0.28476     -0.8902     -4.5316    -0.99284     -0.3731
-0.29125    -0.16653    -0.25162    -0.79893     -3.3811     -0.9623      -0.377
-0.25455    -0.15126    -0.20388    -0.68232     -2.2908    -0.84505    -0.35004
-0.19998    -0.12722    -0.15353    -0.56084     -1.2345    -0.67063    -0.29353
-0.13567   -0.092794    -0.10351    -0.45268    -0.15743    -0.48451    -0.22207
-0.069083   -0.052518    -0.05804    -0.37603     0.92743    -0.32308    -0.15451
-0.008669   -0.014516   -0.019063    -0.33478      1.8983    -0.19706    -0.10156
0.041676    0.015692   0.0095202    -0.32828      2.6213    -0.10221   -0.064536
0.075781    0.029983     0.02706    -0.35914      3.0754   -0.024585   -0.044398
0.092346     0.02706    0.031282     -0.4228      3.3531    0.045574   -0.036927
0.086824    0.011794     0.02706    -0.49945      3.5272     0.12255   -0.036927
0.067011  -0.0021729    0.020239    -0.55597      3.4843      0.2174   -0.036278
0.042651  -0.0057458     0.01764    -0.56636      2.9357     0.32621   -0.025559
0.022512   0.0039985    0.027385    -0.52089      1.7771     0.42203  -0.0050961
0.0091954    0.020564    0.051745    -0.43254     0.27294     0.47562    0.020239
0.0010752    0.040052    0.088773    -0.32568     -1.0909     0.46003    0.045899
-0.0037969    0.053694     0.13132    -0.22597     -1.9643     0.36908    0.062139
-0.0044465     0.06019     0.16705     -0.1623     -2.2934     0.21772    0.062464
0.0075714    0.057592     0.18816    -0.16003     -2.2271    0.037129    0.047198
0.037778    0.049796     0.18946    -0.22402     -1.9864    -0.13534    0.028034
0.078379    0.042651     0.17712    -0.32276     -1.7012    -0.26137    0.015042
0.11833    0.040377     0.15893    -0.40721      -1.354    -0.31139    0.011794
0.15146    0.042975     0.14334    -0.43287    -0.87136    -0.27306    0.016341
0.18037    0.050121     0.13197    -0.38285     -0.2042    -0.14736    0.029009
0.20376    0.058566     0.12223    -0.26949     0.56819    0.050446     0.05272
0.22584    0.067011     0.10956    -0.12268       1.237     0.28821    0.090722
0.24371    0.079354    0.088448    0.020564      1.5933      0.5146     0.14042
0.25475    0.095269    0.056617     0.13035      1.5069     0.67732     0.19596
0.2554     0.11183     0.01829     0.19596      1.0603     0.75463     0.25085
0.24338     0.12807   -0.018738     0.22909     0.49511     0.76242     0.30022
0.22032     0.14594   -0.048945     0.24825    0.011144     0.73871     0.34472
0.18784     0.16348   -0.064861     0.26287     -0.2906     0.71663     0.38435
0.15081     0.17777   -0.064536     0.27424    -0.36368      0.7176     0.41066
0.10989     0.17939   -0.056091     0.27261    -0.20225     0.74196     0.41391
0.064413      0.1625   -0.045697     0.24825     0.14302     0.77477     0.39214
0.01764     0.12872   -0.040175     0.19986     0.61269     0.79718     0.34602
-0.027183    0.090722   -0.037252     0.13652      1.1811      0.7988     0.28398
-0.063237    0.058566   -0.034654     0.06961       1.821     0.77574     0.21577
-0.086623    0.038103   -0.036278   0.0085458      2.4758     0.72247     0.14659
-0.098316    0.026085   -0.042774   -0.043748       3.101     0.63185    0.075781
-0.10059    0.015692   -0.051219   -0.086948      3.6837     0.49901   0.0069217
-0.096042   0.0043233    -0.05804    -0.12268      4.1914     0.34277   -0.055441
-0.088572  -0.0047713   -0.059664    -0.15093      4.4805     0.18394    -0.10514
-0.081751  -0.0099683    -0.05804    -0.17075      4.3938    0.041351    -0.14216
-0.077203   -0.010618   -0.051868    -0.18374      3.8436   -0.079477    -0.16588
-0.072656  -0.0096434   -0.047321    -0.19251      2.8769    -0.18407    -0.17562
-0.072331   -0.013216   -0.050244    -0.19771       1.655    -0.28768    -0.17497
-0.078503    -0.02426   -0.060638    -0.19836     0.39214    -0.39681    -0.16912
-0.088896   -0.039526   -0.067459    -0.19089    -0.62483    -0.49556    -0.15905
-0.096692   -0.051219   -0.060963    -0.16555      -1.178    -0.55272    -0.14639
-0.09994   -0.052193   -0.038227    -0.11618     -1.2761    -0.54655    -0.13372
-0.098316   -0.039526  -0.0031473   -0.040825     -1.1013    -0.47477    -0.11943
-0.090845   -0.017764    0.038428     0.05272    -0.90221    -0.35589    -0.10351
-0.074605   0.0056225    0.080653     0.15211    -0.85414    -0.22661   -0.085973
-0.052193    0.023812     0.11931     0.24078    -0.98731     -0.1178   -0.064861
-0.024585    0.037129     0.15503     0.30217     -1.2189   -0.046671   -0.037902
0.0052977    0.046548     0.18979     0.33011     -1.4547   -0.017764  -0.0018481
0.032257    0.053694     0.22032     0.32978     -1.6246   -0.027508    0.041027
0.056292    0.059216     0.23981     0.31484     -1.6908   -0.061937    0.089098
0.07773    0.062789      0.2463     0.29697     -1.6434    -0.10091     0.13067
0.097543    0.065712     0.24143     0.28171      -1.496    -0.13177     0.15633
0.10924    0.065712     0.22584     0.27002     -1.2887    -0.14801     0.16218
0.11086    0.058891     0.19888     0.26157     -1.0792    -0.15386     0.15146
0.099817    0.044275     0.16478     0.24793    -0.91845    -0.15418     0.13392
0.083251    0.025436     0.12418     0.21675    -0.83693    -0.15158     0.11378
0.067336   0.0069217     0.06831     0.15276    -0.83303    -0.14541    0.088773
0.056292  -0.0067202  -0.0067202    0.053044    -0.86843    -0.12235    0.058566
0.052395    -0.01549   -0.095393   -0.056741    -0.91456   -0.070707    0.028684
0.053044   -0.019712    -0.18212    -0.13957    -0.89117    0.014068      0.0014
0.060515   -0.021986    -0.24675    -0.15353    -0.64789      0.1297   -0.018738
0.071558   -0.023935    -0.27793     -0.0824   -0.056416       0.258   -0.028157
0.080978   -0.026209    -0.27534    0.053369     0.82381     0.36843   -0.031406
0.07708   -0.030431    -0.24708     0.19499      1.7404      0.4256   -0.034654
0.05142   -0.035303     -0.2055     0.28333      2.3637     0.40384   -0.043748
0.0072465   -0.039526    -0.16328     0.28918      2.3537     0.30639    -0.05804
-0.041799   -0.035953    -0.12203     0.22259      1.5485     0.16023   -0.067134
-0.075255   -0.021661   -0.079802      0.1258     0.15633   0.0085458   -0.060963
-0.078178  0.00010078   -0.027833    0.045249     -1.2637    -0.10254   -0.035628
-0.0405    0.022837    0.029658    0.011144     -2.0865     -0.1269   0.0059473
0.033231    0.043625    0.085525    0.027385     -1.9611   -0.032705    0.060515
0.1245    0.059865     0.13587    0.084876    -0.91716     0.17647     0.12775
0.21382    0.075781      0.1716     0.16738     0.63055      0.4688     0.20473
0.28301    0.091696     0.19109      0.2593      2.1071     0.80335     0.28723
0.32491     0.11248     0.19141     0.34894      3.1072      1.1295     0.36194
0.3353      0.1323     0.16965     0.42203      3.3248      1.3698     0.40773
0.30802     0.13977      0.1232     0.46035      2.4901      1.4247     0.40416
0.23818     0.12418    0.056942     0.45126     0.39864      1.2275     0.34537
0.12613    0.084226   -0.019063     0.38954     -2.7841     0.77347     0.23494
-0.011267     0.02641   -0.088247     0.29178     -4.9698     0.12125    0.085525
-0.14996   -0.036927    -0.14087     0.18589     -4.9698    -0.59754   -0.084999
-0.26494    -0.09182    -0.17075     0.10306     -4.9695     -1.2192    -0.24968
-0.34452    -0.13015    -0.18114     0.05142     -4.9698      -1.636    -0.38934
-0.39032    -0.15711    -0.18082    0.012119     -4.9698     -1.8321    -0.49783
-0.41565    -0.17919    -0.18634   -0.053168     -2.2352     -1.8679    -0.58325
-0.43904    -0.20453    -0.20323    -0.16912      1.1756     -1.8312    -0.64951
-0.46665    -0.23181    -0.23376    -0.32178        3.23     -1.7753    -0.69726
-0.49653    -0.25877    -0.26722    -0.47314      3.7978     -1.7019     -0.7187
-0.51472    -0.27923    -0.28768    -0.58683      3.2248     -1.5843    -0.70311
-0.50887    -0.28346    -0.29125    -0.64269      2.1211     -1.4057    -0.65211
-0.48061    -0.27111    -0.27858    -0.64204      1.0778     -1.1738    -0.57416
-0.43417    -0.24773     -0.2513    -0.59267     0.54253     -0.9243    -0.48386
-0.37505    -0.21914    -0.21037    -0.50627     0.70461    -0.69694    -0.39909
-0.31399    -0.18666    -0.15808    -0.39681      1.3971    -0.51992     -0.3286
-0.2578    -0.14801    -0.09994    -0.27534      2.2893    -0.38155    -0.26787
-0.20518    -0.10611   -0.041475    -0.15613      3.1355    -0.25747    -0.21005
-0.14899   -0.068758    0.008221   -0.049595      3.8234    -0.13177    -0.14801
-0.090196   -0.043099    0.047198    0.030633      4.3119  -0.0054209   -0.084349
-0.034654   -0.026209    0.078379    0.076431      4.5887     0.10599   -0.026209
0.013093    -0.01549     0.10469    0.078704      4.5572     0.18881    0.019264
0.049472  -0.0044465      0.1284    0.031282      3.9842     0.23006    0.050446
0.073832    0.009845     0.15146   -0.063237      2.6564     0.22454    0.070584
0.087149    0.024461     0.16933    -0.18731     0.66953     0.17874    0.083901
0.092346    0.038428     0.18394    -0.30587     -1.5096     0.10274    0.089098
0.093645    0.049147     0.19758      -0.377     -3.2499    0.009845    0.083901
0.093321    0.054993     0.21188    -0.37635     -4.2516   -0.083375    0.071558
0.096244    0.056942     0.22454    -0.30262      -4.492     -0.1623    0.060515
0.10469    0.058891     0.23169    -0.17302     -4.1513    -0.21037    0.061165
0.11995    0.064413     0.23136  -0.0063954      -3.474    -0.21492    0.080328
0.14269    0.072208     0.21902     0.17387     -2.6542     -0.1662     0.11671
0.16868    0.076755     0.18784     0.33725     -1.8334   -0.061288     0.16803
0.19466    0.074157      0.1336     0.46003     -1.1179      0.0865     0.22682
0.21707     0.06831    0.064737     0.53538     -0.5839     0.25313      0.2895
0.23981    0.061814  0.00010078     0.56851    -0.26787     0.41131     0.34472
0.26255    0.057592   -0.042774     0.57144    -0.17952     0.53571      0.3824
0.28463    0.054668   -0.062587     0.56202      -0.288     0.61594     0.40026
0.30022    0.054019    -0.06616     0.54091    -0.52479     0.65459     0.40156
0.30737    0.049796   -0.069733     0.48926    -0.79016     0.66823     0.39279
0.30704    0.042975   -0.089546     0.37655    -0.99413     0.67148     0.38207
0.30217    0.038428    -0.12722     0.19823      -1.088     0.67213     0.37525
0.29957    0.049796     -0.1675  -0.0015233     -1.0516     0.66953     0.37233
0.30217    0.079354    -0.19154    -0.14671    -0.89442     0.65654     0.36681
0.2973     0.11736    -0.19576     -0.1649    -0.64627     0.62438     0.34894
0.26742     0.14529    -0.17659    -0.01484    -0.34484     0.56624     0.31841
0.20603     0.15568    -0.13632     0.27944   -0.033354     0.48504     0.27879
0.1271     0.14886   -0.077528     0.63185     0.22552     0.39344     0.23526
0.053694     0.13197  -0.0044465     0.93392     0.38402     0.31094     0.19726
0.0091954     0.11346    0.074157      1.1096     0.42008     0.25637     0.17095
0.009845     0.10112     0.13717      1.1395     0.36356     0.25085     0.16348
0.051096    0.097218     0.16965      1.0505     0.30477     0.30672     0.17842
0.11898     0.10339     0.17647       0.893     0.36876     0.42332     0.21382
0.19596     0.11833      0.1729     0.72702     0.64972     0.58378     0.26319
0.26514     0.13912      0.1716     0.59742      1.1467     0.76697     0.31451
0.31419     0.15828     0.17452     0.51687      1.8229     0.94497     0.35706
0.3366     0.16933     0.18004      0.4701      2.6327      1.0739     0.37785
0.33303      0.1677     0.18557     0.43469      3.4291      1.1116     0.37168
0.31322     0.15503     0.19011      0.3889      3.9943      1.0333     0.34082
0.27944     0.13262     0.18524     0.31906      4.1245     0.84298     0.28723
0.23136     0.10014     0.16023     0.21025      3.6766     0.57501      0.2096
0.16445    0.059216     0.10859     0.05207      2.5989     0.27099     0.10631
0.075781    0.009845    0.031607    -0.15029     0.99596   -0.035953    -0.01614
-0.028482   -0.042449   -0.061613    -0.37245    -0.82134    -0.31464    -0.14639
-0.13599   -0.098641    -0.15678     -0.5852     -2.2804    -0.53875    -0.26981
-0.23928    -0.15808    -0.24253     -0.7606     -2.8705    -0.69726    -0.37505
-0.32601    -0.21167    -0.30457    -0.88403     -2.3457    -0.79665    -0.45658
-0.38674     -0.2513    -0.32893    -0.95256    -0.91423     -0.8418    -0.50303
-0.41728    -0.26494    -0.31139     -0.9649     0.89495    -0.83823    -0.50952
-0.41078    -0.24513     -0.2565     -0.9191      2.4589    -0.79665    -0.48419
-0.3731    -0.19771    -0.17302    -0.81614       3.409    -0.72779    -0.43839
-0.31171    -0.13372   -0.077853    -0.66965      3.5438    -0.64009    -0.38122
-0.23733   -0.069733   0.0075714    -0.50562      2.6892    -0.54752    -0.31626
-0.16555   -0.017764     0.06961    -0.35264     0.61626    -0.47899    -0.24448
-0.10579    0.015692     0.10469    -0.22824     -2.4304    -0.45366     -0.1727
-0.057715     0.03518     0.12223    -0.13145     -4.9701    -0.44911    -0.10416
-0.017764    0.049472     0.13295   -0.055116     -4.9701    -0.41923   -0.041799
0.016341    0.062139     0.14269    0.003024     -4.9701    -0.32795   0.0085458
0.042975    0.074806     0.15438    0.039078     -4.9698    -0.18309    0.045249
0.059865    0.084876     0.16088    0.045899     -4.9698   -0.035953    0.065387
0.062789    0.086175     0.15276    0.013743     -4.9701    0.054668    0.063763
0.050446    0.074482     0.12255   -0.061288     -4.9701    0.062139    0.036154
0.021213    0.048497    0.069934     -0.1688     -3.6868   -0.007045   -0.020687
-0.027508    0.011469   0.0075714    -0.28898     -2.3109    -0.12625   -0.095717
-0.092145   -0.028807   -0.054142    -0.39974     -1.2254     -0.2539    -0.17302
-0.1662    -0.06551    -0.10709    -0.48776    -0.74338    -0.35134    -0.23993
-0.23506   -0.097017    -0.13827    -0.54525     -0.8418    -0.39811    -0.29028
-0.28638    -0.12008    -0.14119    -0.56506     -1.1205    -0.39194    -0.32016
-0.31042    -0.12787    -0.11813    -0.54493      -1.036    -0.35004    -0.32438
-0.31139    -0.12333     -0.0837    -0.49328    -0.31042    -0.30002    -0.30977
-0.30424    -0.11196   -0.052518    -0.43709     0.87416    -0.26429     -0.2906
-0.29677    -0.10221   -0.035953    -0.40916      2.0467    -0.25357    -0.28021
-0.29028    -0.10156    -0.04927    -0.43027      2.7834    -0.26819    -0.27891
-0.2867    -0.11066   -0.092469    -0.49815      2.9623    -0.29353    -0.28118
-0.28281    -0.12527    -0.15776    -0.58942      2.7743    -0.31009    -0.27988
-0.27371    -0.13762    -0.22597    -0.66965      2.5057    -0.30652    -0.26494
-0.25617    -0.14184    -0.27988     -0.7096      2.3517    -0.28021    -0.23538
-0.23116    -0.13469    -0.30587    -0.68719       2.365    -0.23896    -0.19673
-0.20225     -0.1178    -0.29645    -0.59722      2.4735    -0.19283    -0.15841
-0.1727   -0.094743    -0.25975    -0.44943      2.5804    -0.14249    -0.12527
-0.14444   -0.072981     -0.2029    -0.26234      2.6538   -0.077853   -0.097341
-0.11586   -0.052843    -0.13567   -0.062912      2.7373    0.009845   -0.074605
-0.085324   -0.033679   -0.068434     0.12255       2.899     0.11833    -0.05804
-0.054142   -0.017114  -0.0037969     0.27359        3.18     0.23916   -0.040825
-0.024585  -0.0047713    0.051096     0.37298      3.5503     0.35544   -0.020687
0.0017248   0.0033489    0.093645     0.41488      3.9173     0.45516   0.0039985
0.024786   0.0075714     0.12093     0.40514      4.1304     0.52337    0.029983
0.040377   0.0085458     0.13132     0.37103      4.0813     0.55227    0.054668
0.048822   0.0065969      0.1297     0.35057      3.7874     0.53896    0.074806
0.048497   0.0043233     0.11768     0.35901      3.3784     0.48471    0.087149
0.036154 -0.00022403    0.092021     0.37201      2.9825     0.39474    0.085525
0.014392  -0.0083442    0.053369     0.35219      2.5836     0.28268     0.06896
-0.011592   -0.017764    0.013093     0.28236      1.9912     0.16218    0.037454
-0.032055    -0.02426  -0.0076946     0.17647      1.0112     0.04395  0.00075039
-0.039526   -0.018413   0.0056225    0.074806    -0.34062   -0.073631   -0.027833
-0.027833  0.00010078    0.049796    0.015367     -1.7168    -0.18179   -0.038227
0.0039985    0.028684     0.10306    0.015042     -2.7055    -0.26104    -0.02426
0.054019    0.058566     0.14172    0.062789     -3.0719    -0.28183    0.020239
0.10891    0.081952     0.15276     0.13132     -2.8183    -0.22954    0.089423
0.15536    0.097868      0.1362     0.19174      -2.105    -0.11261     0.16608
0.19174     0.10371     0.10631     0.22649     -1.1393     0.03453     0.22877
0.21447     0.10306    0.079029     0.23818    -0.11456      0.1677     0.26547
0.22259    0.098842     0.06961     0.24566      0.7988      0.2541     0.27099
0.22    0.094945    0.081303     0.27067       1.478     0.27684      0.2515
0.20895    0.092996     0.10177     0.28885      1.8596     0.24566     0.22162
0.19563    0.092021     0.11443     0.20246      1.9366     0.18979     0.19271
0.18329    0.090722     0.10794   -0.073955       1.768     0.14659      0.1729
0.17777    0.088448    0.091372    -0.50627       1.489     0.13912     0.16413
0.17712    0.082277    0.073832     -0.9766       1.301     0.17647     0.16056
0.17907    0.071883    0.050446     -1.4258      1.3958     0.25345     0.16088
0.18167    0.058891    0.014392     -1.8825      1.8103     0.36161     0.17257
0.19044    0.051096   -0.028807     -2.3645      2.3969     0.48764     0.20733
0.21902    0.061489    -0.04992     -2.7189      2.9662     0.61626     0.26742
0.27846     0.10014   -0.022311     -2.6445      3.2917     0.73774     0.35057
0.36746     0.16413    0.050771      -1.912      3.0673     0.84622     0.44574
0.46133     0.23526     0.13457    -0.57189      2.0019       0.931     0.53701
0.53343     0.28366     0.18264      1.0177   -0.039526     0.95633     0.60002
0.56137     0.28788     0.17127       2.377     -2.7656     0.86961     0.61106
0.53863     0.24825     0.11573      3.2963     -4.9701     0.64614     0.56234
0.47107     0.18037    0.048172      3.7263     -4.9698     0.30445     0.46263
0.3759     0.10729  -0.0050961      3.7507     -4.9695   -0.097341     0.33043
0.27261    0.044599   -0.042449      3.5051     -4.9691    -0.47314     0.18979
0.17095  -0.0024977    -0.07428      3.0942     -4.9698    -0.74923    0.057592
0.06084   -0.039201    -0.11618      2.5739     -2.8572    -0.90189   -0.056416
-0.064861   -0.077528    -0.17984      1.9801     -1.1169    -0.95321    -0.15516
-0.20323    -0.11845    -0.25942      1.3435    -0.14834    -0.95386    -0.23896
-0.3416    -0.16035    -0.34387     0.71403     0.23104    -0.94119    -0.30522
-0.45268    -0.19868    -0.41695     0.15276     0.49186    -0.93567    -0.35004
-0.51407    -0.22726    -0.46405    -0.26884     0.95016    -0.93957    -0.37343
-0.52154    -0.23831    -0.47022    -0.50822      1.5793    -0.94444     -0.3783
-0.48549    -0.22661    -0.43027    -0.57513      2.1672    -0.92852    -0.36271
-0.41955    -0.19316    -0.35426    -0.52804      2.4673     -0.8759    -0.32373
-0.33607    -0.14899    -0.26527    -0.44001       2.212    -0.78821    -0.26559
-0.25162    -0.10351    -0.18699    -0.37278      1.2227    -0.68264    -0.19901
-0.18114   -0.063886    -0.13502    -0.34095    -0.39292    -0.57773    -0.13697
-0.13242   -0.034654    -0.10189    -0.31659     -2.1699    -0.48224   -0.088572
-0.10026   -0.018088   -0.072331    -0.26072     -3.5955    -0.39681   -0.061613
-0.080451   -0.011267   -0.034654    -0.15223     -4.3247    -0.30847   -0.059339
-0.072981   -0.007045    0.014392  -0.0028225     -4.2253    -0.19803   -0.073955
-0.075255  -0.0047713    0.069285     0.14496     -3.4396   -0.065186   -0.094418
-0.086298  -0.0044465     0.11183     0.23851      -2.395    0.059865    -0.11748
-0.10059  -0.0063954     0.13035     0.23818     -1.5996     0.14139    -0.13567
-0.11033  -0.0083442     0.12937     0.15081     -1.2439      0.1664    -0.14411
-0.10546   -0.011267      0.1206    0.021863     -1.0737     0.16023    -0.13632
-0.08305   -0.013866     0.11118   -0.094743    -0.76612     0.15049    -0.11488
-0.053168   -0.018088    0.099492    -0.17042    -0.26657     0.14854   -0.088572
-0.029132   -0.020362     0.08585     -0.2094     0.26319     0.15796   -0.063886
-0.020362   -0.014516    0.075131    -0.22044     0.70136     0.19174   -0.039201
-0.027508  0.00042559    0.075781    -0.20193      1.0992     0.27034   -0.011592
-0.041799    0.022512    0.091047    -0.15288      1.5988     0.39702    0.023812
-0.055766    0.046548     0.11703   -0.089546      2.2026     0.53863    0.063763
-0.068758    0.065387     0.14042   -0.043099      2.8003     0.64972     0.10209
-0.075579    0.075781     0.15179    -0.03238      3.3843      0.7124     0.13652
-0.068758    0.081627     0.15373   -0.059664      4.0095     0.73871     0.16413
-0.039526    0.083901     0.15438     -0.1269      4.6643     0.75008     0.18524
0.013418    0.082602     0.16575    -0.23181      4.9589      0.7582     0.19856
0.08585    0.078055     0.18524    -0.35654      4.9589     0.75365     0.20311
0.16056    0.072533     0.19921    -0.47802      4.9593     0.70461     0.19141
0.21935    0.064413     0.18914    -0.57741      4.1369     0.56137     0.14789
0.23883     0.05207     0.14886    -0.65471      2.0997     0.29568    0.062789
0.20538    0.030957    0.082927     -0.7187    -0.20453   -0.070382   -0.055766
0.11671  -0.0021729   0.0043233    -0.77327      -2.334     -0.4673    -0.18212
-0.017114   -0.045047   -0.064861    -0.81322      -4.035     -0.8012    -0.28573
-0.17465   -0.091495    -0.11358    -0.82946     -4.9698    -0.99641    -0.35004
-0.32308    -0.13307    -0.13859    -0.82199     -4.9695     -1.0429     -0.3822
-0.43254    -0.16685    -0.14769    -0.79958     -4.9698    -0.99121    -0.40136
-0.48354    -0.18991    -0.15029    -0.77586     -4.9698    -0.91293    -0.42475
-0.47087    -0.20323    -0.15613    -0.75508     -4.9701    -0.84277    -0.45171
-0.41565     -0.2081     -0.1662    -0.73104     -4.9695    -0.77879    -0.47347
-0.339    -0.20388     -0.1753    -0.69499     -4.1711    -0.70798    -0.47834
-0.25975    -0.18764    -0.17367    -0.63717     -2.7384    -0.61281    -0.45983
-0.18342    -0.15905    -0.15516    -0.55564     -1.2829    -0.48841     -0.4163
-0.10806     -0.1256    -0.12365    -0.45788    0.013743    -0.33802    -0.35426
-0.035953   -0.098641   -0.092145    -0.35459     0.99401    -0.18017    -0.28346
0.02641   -0.077528   -0.069408    -0.26332       1.567     -0.0405    -0.21817
0.073507   -0.056091   -0.060313    -0.19608      1.7161    0.053369    -0.16425
0.10014    -0.03238   -0.058689    -0.16425      1.4939    0.086175    -0.12463
0.10436   -0.011917   -0.056416    -0.17172      1.0791    0.067661   -0.095393
0.088448  -0.0024977   -0.050894    -0.21232     0.67278    0.019589   -0.070382
0.049796  -0.0037969   -0.047971    -0.27858     0.35187   -0.031081   -0.046022
-0.0083442   -0.011267    -0.04992    -0.35426    0.095919   -0.067459   -0.024585
-0.069408   -0.015815   -0.052843    -0.42312    -0.11196   -0.081101  -0.0034721
-0.11488   -0.014516   -0.050244     -0.4595    -0.23181   -0.068109    0.019264
-0.13047  -0.0076946   -0.039851     -0.4543    -0.18991   -0.029457      0.0433
-0.11586  0.00010078   -0.020687    -0.41988    0.049472    0.025436    0.067986
-0.077203   0.0062721   0.0052977    -0.35914     0.45028    0.092021    0.090072
-0.025234     0.01829    0.043625    -0.24545     0.94237     0.16575     0.11021
0.032257    0.040702    0.095269   -0.056091       1.491     0.24273     0.12807
0.0852    0.070259     0.15731     0.18881      2.0587     0.31386     0.14399
0.12775     0.10209     0.21707     0.43339      2.5521     0.36129     0.15601
0.15536     0.12807     0.26417     0.61756      2.8425     0.36876     0.15828
0.17062     0.14269     0.28983     0.71565      2.8019     0.34147     0.15276
0.16998     0.14464     0.29697     0.73449       2.366     0.29892     0.13814
0.15309     0.13555     0.28756     0.70363      1.5527      0.2606      0.1219
0.12905     0.12028     0.26027     0.63802     0.49771     0.24306     0.11086
0.10859     0.10404     0.20603     0.53441    -0.52089     0.25183     0.10956
0.10079    0.092346     0.12385     0.40514     -1.2131     0.28073     0.12158
0.11086    0.089748    0.022837     0.29308     -1.4437     0.31646     0.14594
0.1349     0.09462   -0.073631     0.25767     -1.2403     0.35349      0.1768
0.16445     0.10242    -0.14314     0.32296    -0.77456      0.3811     0.20246
0.18557     0.10566    -0.17335     0.46003    -0.26364     0.39344     0.21642
0.18914    0.098842    -0.17107     0.60717     0.11866     0.39019      0.2135
0.17777    0.080978    -0.15126     0.69876     0.30315     0.37233     0.20083
0.15926    0.058566    -0.12755     0.70071     0.32296     0.34667     0.18687
0.14204    0.038753    -0.10546     0.61594      0.2567     0.32361     0.17777
0.12872    0.028359   -0.084674     0.48406     0.16868      0.3025     0.16835
0.11995    0.024786   -0.063237     0.35252     0.10404     0.27944     0.15698
0.11443    0.025761   -0.038876      0.2528     0.11671     0.25118     0.14367
0.10599     0.02706   -0.017439     0.19141     0.23136      0.2135     0.13035
0.092996    0.028034  -0.0034721     0.16315     0.45613     0.16348     0.11476
0.078055    0.027709   0.0046481     0.15796     0.78906     0.10924    0.095269
0.06831    0.020239    0.013418     0.15828      1.1593     0.06084    0.073182
0.061489    0.008221    0.028034     0.14432      1.4549    0.025111    0.051096
0.054344  -0.0063954    0.044275     0.10534        1.59   0.0052977    0.030957
0.042001   -0.017114    0.057592    0.041027      1.5699  -0.0015233     0.01894
0.030308   -0.023285    0.063763   -0.032055      1.4546   0.0039985    0.015042
0.023487   -0.025884    0.062789   -0.098641      1.2954    0.015692    0.020564
0.026085   -0.024909    0.053694    -0.14606      1.1018    0.025111    0.036154
0.039402    -0.02426    0.036479     -0.1662     0.85175    0.029333    0.058241
0.064737   -0.020037    0.013743    -0.15191     0.53246    0.036154    0.085525
0.095269  -0.0067202   -0.011267    -0.10449     0.19011    0.056942     0.11313
0.12255    0.013418   -0.034654   -0.032705   -0.093119     0.10242     0.14269
0.14594    0.038753   -0.052518    0.057592    -0.28768     0.17257     0.17387
0.1664    0.062139   -0.062912     0.16218    -0.42702      0.2567      0.2083
0.17874    0.080653   -0.061288     0.26969    -0.56312     0.33887     0.24371
0.17842    0.090722   -0.047971     0.36648    -0.73591     0.40319     0.26807
0.1664    0.089098   -0.028807     0.43437    -0.96165      0.4308     0.27619
0.14269    0.071883   -0.012892     0.44996     -1.1916     0.40708     0.26287
0.11054    0.041351  -0.0076946     0.39929     -1.3534      0.3327     0.22877
0.074157   0.0046481   -0.013541     0.29373     -1.3553     0.22227     0.18362
0.0433   -0.025559   -0.021986     0.16445     -1.1328    0.098193     0.13847
0.020888   -0.043099   -0.026209      0.0433    -0.74176   -0.019712    0.096569
0.0033489   -0.047646   -0.025234   -0.050244    -0.26916    -0.11326    0.062139
-0.011917   -0.041475   -0.020037    -0.10644     0.29503    -0.16653    0.037778
-0.021661   -0.028807   -0.013541    -0.12722      1.0684    -0.17172    0.023162
-0.019712   -0.015815   -0.013541    -0.12268      2.2315    -0.13567    0.017316
-0.00087364  -0.0044465   -0.024909    -0.10156      3.7494   -0.064861    0.019589
0.036154   0.0052977   -0.038876   -0.067784      4.9593    0.041676    0.033556
0.082602    0.014717   -0.043423   -0.022311      4.9593     0.18199    0.060515
0.12613    0.026735   -0.031406    0.032906      4.9589     0.35674    0.097543
0.1638    0.042326   0.0023744    0.096244      4.8527     0.56072     0.14334
0.19401    0.066686    0.049796     0.17192      3.4346     0.76502     0.18881
0.2135    0.098193     0.10339     0.25572      2.2442     0.94074     0.22357
0.2187     0.12807     0.15503     0.33173      1.5299      1.0564     0.24241
0.20473     0.14496     0.19174     0.37525     0.97712      1.0788     0.24176
0.1677     0.14204     0.19726     0.36031    0.029983     0.95698     0.21642
0.10794     0.11541     0.16478     0.27359     -1.5405     0.64354     0.15926
0.032906    0.063763    0.097868     0.12093     -3.4312     0.12548    0.064737
-0.055441  -0.0054209    0.013093   -0.071032     -4.9701    -0.54623   -0.065835
-0.14801   -0.081101   -0.072006    -0.26072     -4.9695     -1.2696    -0.21655
-0.2435    -0.15158    -0.14801    -0.42052     -4.9701     -1.9364    -0.36109
-0.3377    -0.20388    -0.20843    -0.54785     -4.9695     -2.4515    -0.48029
-0.42085    -0.23116    -0.25682    -0.65763     -4.9695     -2.7442    -0.55435
-0.47542    -0.23344    -0.29515    -0.76709     -4.9695     -2.7728    -0.57741
-0.48971    -0.21492    -0.32568    -0.86811     -4.9695     -2.5513    -0.55922
-0.4686    -0.18926    -0.34712     -0.9321     -4.9695     -2.1589    -0.52349
-0.43774    -0.17465    -0.35719     -0.9295     -4.9691     -1.7097    -0.49198
-0.42215    -0.17984    -0.35524    -0.85642     -4.9691     -1.2985    -0.47672
-0.4267    -0.20128    -0.33997    -0.73072     -2.3116    -0.97822    -0.47152
-0.43579    -0.22239    -0.31399    -0.58098    0.045249    -0.74793     -0.4634
-0.42994    -0.22726    -0.27696    -0.43871      1.9509    -0.57091    -0.43969
-0.39909    -0.20908    -0.22921    -0.32503      3.3261    -0.40461    -0.39876
-0.34095    -0.17107    -0.17335     -0.2448      4.2093    -0.22077    -0.34549
-0.26689     -0.1256    -0.11196    -0.18926      4.5581   -0.024909    -0.28833
-0.19543   -0.084999   -0.051544    -0.14964      4.3704     0.15373    -0.23603
-0.14281   -0.055116   0.0052977    -0.12463       3.853     0.29015    -0.19608
-0.11618   -0.034978    0.053694    -0.10806      3.2846     0.37493    -0.16912
-0.10838   -0.021337    0.092671   -0.087922      2.8152     0.42138    -0.15191
-0.10644   -0.012567     0.12255   -0.054467      2.4436     0.45418    -0.13502
-0.10189   -0.010293     0.14724  -0.0099683      2.1126     0.48536    -0.10903
-0.090196   -0.011267     0.15861    0.029009      1.7934     0.50355   -0.076229
-0.073631   -0.011592     0.15601    0.043625       1.526     0.48569   -0.046996
-0.056416  -0.0063954     0.13717     0.02641      1.3854     0.41943   -0.025559
-0.042449   0.0026992     0.10501   -0.013216      1.4406     0.31484   -0.011917
-0.030106    0.011794    0.070584   -0.045697      1.7671     0.20928  -0.0015233
-0.013541    0.023487    0.044924   -0.030756      2.2715     0.13425   0.0078962
0.0095202    0.037778    0.036479    0.062789      2.6158     0.10047     0.01764
0.033231     0.05272    0.048497     0.24046      2.4501    0.089098    0.030957
0.05142    0.065387    0.079679     0.48017      1.7018    0.076431    0.043625
0.065712    0.075456      0.1219     0.73969     0.57469    0.044924    0.055968
0.075131    0.081952     0.16413     0.95958    -0.68524   -0.011917    0.066037
0.083901    0.083901     0.19434      1.0837     -1.8438   -0.087922    0.071558
0.089423    0.080328     0.20311      1.0775     -2.6789    -0.16977    0.074157
0.089423    0.070909     0.18654     0.95244     -3.0014    -0.24805    0.071883
0.085525    0.057592     0.15438     0.75528     -2.7302    -0.31431    0.067011
0.080328    0.042326     0.11898     0.53408     -1.9257    -0.36303    0.066037
0.078055    0.027709      0.0852     0.31614    -0.76482    -0.38285    0.071234
0.075781    0.016016     0.05272     0.12255     0.51784    -0.36563    0.084551
0.066686   0.0078962    0.021538   -0.026533      1.6504    -0.31464     0.10534
0.055643   0.0020496  -0.0076946     -0.1204      2.4121    -0.24156      0.1271
0.045574  -0.0024977    -0.03238     -0.1649      2.6746     -0.1623     0.13912
0.039402  -0.0028225   -0.050894    -0.17757      2.4962   -0.088896     0.13392
0.040052      0.0014   -0.060313    -0.17789      2.1003   -0.028807     0.11573
0.0433    0.008221   -0.064861    -0.18049      1.7463    0.026085    0.089748
0.048172    0.016991   -0.072981    -0.18894      1.6011    0.087474    0.057917
0.053369    0.029658   -0.084999    -0.19316       1.691      0.1651    0.030308
0.054993    0.045899   -0.093119    -0.17854      1.9412     0.26319    0.008221
0.051096    0.061814   -0.087597    -0.13892      2.2452     0.37493  -0.0057458
0.041676    0.070259   -0.067459   -0.080776      2.5053     0.48634    -0.01484
0.028034    0.071883   -0.035628    -0.01614      2.6362     0.57501   -0.017439
0.012768    0.067336 -0.00054884    0.038103      2.5937     0.62503    -0.01549
0.003024    0.059541    0.031607    0.072208      2.3878      0.6286   -0.012242
-0.0011985    0.048172     0.05207    0.084876      2.0565     0.59352   -0.011592
0.00010078    0.038103    0.057267     0.08585      1.6491     0.53896   -0.014191
0.0059473    0.028359    0.047198    0.084226      1.2376     0.48634   -0.015165
0.011469     0.01764    0.026085    0.089098     0.90826     0.44444   -0.012567
0.014717   0.0062721   0.0033489     0.10079     0.71955      0.4165   -0.007045
0.016991  -0.0044465    -0.01549     0.11021     0.67473     0.40319   0.0036737
0.025761  -0.0080194   -0.026533    0.096569     0.73027     0.40643    0.019914
0.043625  0.00010078    -0.02426    0.047847     0.82219      0.4191    0.040052
0.070909    0.018615 -0.00054884   -0.021986     0.90729     0.43502    0.061814
0.10112    0.044275    0.042975   -0.083375     0.97095     0.44379    0.081952
0.12515    0.071234     0.09462    -0.10968      1.0064     0.43762    0.097868
0.14204    0.090072     0.14204     -0.0824      1.0012     0.42105     0.10924
0.15536     0.10047     0.18004   0.0020496     0.96998     0.40514     0.11736
0.16868     0.10469      0.2122     0.13295     0.98914     0.40351     0.12418
0.18134     0.10664     0.24078     0.27651      1.1236     0.41715     0.12775
0.19758     0.10664     0.26352       0.385      1.3104     0.44054     0.12678
0.21545    0.099167     0.27132     0.41066       1.374     0.46652      0.1245
0.23071    0.080653     0.25378     0.31971      1.1808     0.49478     0.12158
0.23754    0.053044      0.2096     0.10534     0.74553     0.52077     0.11671
0.22682    0.017965     0.14886    -0.22921     0.18232     0.54026     0.11086
0.19661   -0.017439    0.088448    -0.65309    -0.40526     0.54448     0.10664
0.14334   -0.050894    0.042326     -1.1081     -1.0172     0.52531     0.10566
0.074482   -0.084674   0.0036737     -1.5197     -1.5772     0.47529     0.10859
0.0062721     -0.1191   -0.040825     -1.8393     -1.9114     0.39669     0.11833
-0.037577    -0.14866    -0.10059     -2.0689     -1.8877     0.29697     0.14269
-0.038876    -0.16165    -0.16263      -2.233     -1.4697     0.20083     0.18167
0.0039985    -0.14639    -0.20713     -2.2869    -0.77554     0.13587     0.22519
0.082927    -0.10286    -0.22402     -2.0978    -0.13437     0.12418     0.27034
0.17712   -0.035953     -0.2107     -1.5177   -0.031406     0.17192     0.31581
0.26807    0.042975    -0.17042    -0.49198    -0.87168     0.26319     0.36356
0.34505     0.12418    -0.11358     0.82966     -2.6926     0.36518     0.40579
0.40384     0.19499   -0.053492      2.1136     -4.9698     0.44834     0.43339
0.44249     0.24111  -0.0034721      3.1066     -4.9698     0.49868     0.44021
0.45418     0.25183    0.028359      3.6535     -4.9695     0.50388     0.42203
0.42787     0.22617    0.042651       3.739     -4.9698     0.45353     0.37298
0.34927     0.17322    0.039402       3.447     -4.9695     0.33238      0.2921
0.20668     0.10599    0.017316      2.9036     -4.9698     0.11671      0.1729
0.0049729    0.029983   -0.025559       2.226     -3.8336    -0.21265    0.014392
-0.22597   -0.046996   -0.081426       1.515      -1.915    -0.62678    -0.16458
-0.44976    -0.11748    -0.13827     0.84947     0.22032     -1.0669     -0.3312
-0.63815    -0.17367    -0.17919     0.30542       2.213     -1.4567     -0.4582
-0.77164     -0.2055    -0.19738    -0.07428      3.4687     -1.7204    -0.52998
-0.83108    -0.20453    -0.19316    -0.28768      3.6542     -1.8003    -0.54233
-0.80737    -0.17075    -0.17205     -0.3744      2.9191      -1.672     -0.5014
-0.70668    -0.11423    -0.14834    -0.39129      1.7515     -1.3625    -0.41955
-0.55012   -0.055116    -0.13372    -0.39032     0.61918    -0.94801    -0.31724
-0.36271   -0.008669    -0.13502    -0.39097    -0.19283    -0.52641     -0.2146
-0.17042    0.020239    -0.15126    -0.38285    -0.65439    -0.19251    -0.12365
-0.0034721    0.031282    -0.16945    -0.35329    -0.99608      0.0014   -0.055766
0.10956    0.025111    -0.17692    -0.30749      -1.495    0.056292   -0.015165
0.14399     0.01017    -0.16815    -0.26592     -2.1949   0.0036737  -0.0034721
0.094945   -0.012567    -0.15776    -0.26072     -2.8049    -0.13015   -0.022311
-0.025884   -0.044073     -0.1597    -0.31626     -2.8783    -0.31886   -0.075579
-0.18699   -0.084999    -0.18536    -0.42962     -2.1047    -0.53128    -0.16133
-0.3442    -0.12982    -0.22597    -0.56799     -0.5027    -0.72812    -0.26267
-0.46567     -0.1727    -0.26657    -0.69239      1.5576    -0.87363    -0.35621
-0.53551     -0.2081    -0.29353    -0.77684       3.484    -0.94217     -0.4241
-0.55045    -0.23246    -0.30717    -0.81647      4.9005    -0.93145    -0.46275
-0.52154    -0.24675    -0.31399    -0.83823      4.9589    -0.86356    -0.47672
-0.46145    -0.25065    -0.31789    -0.89897      4.9589    -0.76937    -0.46957
-0.38155    -0.23766    -0.31106     -1.0432      4.9593    -0.66998    -0.44489
-0.29158    -0.20615    -0.27501     -1.2501      4.9589    -0.57611    -0.40104
-0.19901    -0.16068    -0.20388     -1.4576      4.5695    -0.48679     -0.3403
-0.11845    -0.11066    -0.11521     -1.6194      4.3015    -0.40006    -0.27014
-0.062912   -0.068109   -0.037902     -1.7389      4.0566    -0.31464    -0.20615
-0.040825   -0.041799    0.016016     -1.8175      3.6191    -0.23279    -0.16393
-0.054792   -0.027508    0.058241     -1.7669      2.8194    -0.15873    -0.14411
-0.090196   -0.020362     0.10891      -1.444      1.7073    -0.10416    -0.13794
-0.13534   -0.015815     0.16478    -0.82653     0.49413   -0.087922    -0.13762
-0.17465   -0.016789      0.2044   -0.077203    -0.54005    -0.12073    -0.13599
-0.19446    -0.02426     0.20765     0.56429      -1.178    -0.18082    -0.12917
-0.19089   -0.035953     0.17257     0.94334     -1.3914    -0.22207     -0.1178
-0.16653   -0.045047     0.10729       1.034     -1.2806    -0.20031    -0.10579
-0.12333   -0.044073    0.031282     0.89657    -0.98147   -0.098316   -0.090196
-0.06616    -0.03173   -0.034978      0.6351    -0.60372    0.070584   -0.068434
-0.0047713  -0.0083442   -0.068109      0.3733    -0.23376     0.26417   -0.035628
0.053044    0.022188   -0.054142     0.23331    0.048822     0.43469   0.0052977
0.10534    0.055643   0.0033489     0.27456     0.18881     0.55065    0.054668
0.15373    0.089098    0.086175     0.43859     0.18849     0.60392     0.10761
0.19953     0.11866       0.169     0.60847     0.10177     0.60457     0.15536
0.23948     0.14399     0.23169     0.69259  -0.0034721     0.57696     0.19174
0.27196     0.16478     0.27002     0.66563   -0.040175     0.54155     0.21512
0.2986     0.18264     0.28723      0.5578    0.092021     0.52044     0.23039
0.32004     0.20018     0.29113     0.42495     0.45483     0.52889     0.24306
0.3418     0.21512     0.28853     0.31127     0.99336     0.56851     0.25897
0.36486     0.22519     0.27716     0.22844      1.5884     0.63153     0.27749
0.38727     0.22844     0.25897     0.15568      2.1019     0.70916     0.29892
0.40319     0.22162     0.23689    0.054668      2.3566     0.78678     0.32036
0.40676     0.19953     0.21252    -0.10676      2.1695     0.83323       0.334
0.39539     0.16705     0.18297    -0.32828      1.3055     0.81959     0.33108
0.36941     0.13197     0.14789    -0.56831    -0.35556     0.73741     0.31484
0.33855     0.10339     0.11313    -0.76092     -2.4473     0.61269     0.29145
0.31354    0.084876    0.078704    -0.84797      -4.314     0.48082     0.27489
0.29827     0.07773    0.048822    -0.79373     -4.9698     0.37071     0.27002
0.29275    0.080003    0.030957    -0.58033     -4.9698     0.30087     0.28041
0.30087    0.088773     0.03453     -0.2146     -4.9698     0.27781     0.29957
0.31711     0.10859    0.065387     0.25183     -4.2965     0.28983     0.32231
0.33498     0.13587     0.12093     0.73157     -3.5049     0.30704     0.33725
0.34602     0.16185     0.18719      1.1415     -2.9173      0.3012     0.33205
0.3379      0.1755     0.24793      1.4072     -2.5571     0.25507     0.29957
0.29892       0.169     0.28398       1.488     -2.4217     0.16478     0.23494
0.23299     0.14269     0.28691      1.3932     -2.4304    0.038428     0.14367
0.15146     0.10242     0.26157      1.1681     -2.5077    -0.10286    0.040052
0.070259    0.058241     0.21642     0.87773     -2.6068    -0.22889   -0.054142
0.003024    0.018615     0.16218     0.57826     -2.6614    -0.31399    -0.12203
-0.0405   -0.014516     0.10501     0.30932     -2.6013    -0.35199    -0.15126
-0.058689   -0.041475    0.051096    0.086824     -2.3928    -0.34874    -0.14054
-0.055766   -0.060638   0.0033489   -0.086623     -2.0147    -0.30944   -0.097666
-0.039851   -0.071682   -0.038227    -0.20843     -1.4401    -0.23961    -0.04115
-0.014191   -0.076229   -0.072656    -0.28216    -0.63847    -0.14541    0.012443
0.015692   -0.075255   -0.097017    -0.31594     0.35609   -0.031406    0.053044
