-0.051544   -0.043099  -0.0063954     0.26709     0.29145     0.25605    0.053694
-0.037252   -0.051868   -0.027508     0.19401     0.28528     0.24858    0.061814
-0.021012   -0.053817   -0.042124     0.13457     0.28593     0.21447    0.061489
-0.0093186   -0.045047   -0.045372    0.093321     0.28853     0.15828     0.05272
-0.0063954   -0.030431   -0.037577    0.067661     0.28853    0.089748    0.037778
-0.011267   -0.013541   -0.022961    0.050121     0.28788    0.022837    0.020239
-0.019712  -0.0015233  -0.0037969    0.030633     0.29308   -0.025559   0.0065969
-0.026858   0.0010752    0.016666   0.0075714     0.32231   -0.048945  0.00042559
-0.023935  -0.0054209    0.030957   -0.020687     0.38695   -0.048296   0.0017248
-0.013866   -0.017764    0.031932   -0.050569     0.47854    -0.03173   0.0091954
-0.0037969    -0.03173    0.019264    -0.07493     0.57111  -0.0089938    0.020564
0.00042559   -0.040175   0.0049729   -0.088572     0.62893   0.0059473    0.032906
-0.00054884   -0.040175  -0.0037969    -0.09117     0.62113  -0.0011985    0.040377
-0.0054209   -0.033354   -0.007045   -0.088896     0.55487   -0.034654    0.038753
-0.0076946   -0.025884  -0.0073698   -0.087922     0.48309   -0.091495    0.028684
-0.0018481   -0.020687   -0.010943    -0.09117     0.47464    -0.15841   0.0085458
0.0056225   -0.021337    -0.01549   -0.092469     0.57631    -0.22434   -0.018738
0.0072465    -0.02361   -0.018088   -0.085648     0.78159    -0.27728   -0.046671
0.0017248   -0.022961   -0.018738   -0.072981      1.0145    -0.30619   -0.069733
-0.0080194   -0.019388   -0.018413   -0.064211      1.1272    -0.30652   -0.081751
-0.01614    -0.01549   -0.020362   -0.067784      0.9323    -0.28216   -0.082076
-0.023935   -0.011917   -0.022636   -0.084674     0.33563    -0.24383    -0.07493
-0.034654   -0.008669   -0.022961    -0.10968    -0.52869    -0.20485   -0.070058
-0.050894  -0.0099683   -0.023935    -0.13892     -1.3488    -0.16815   -0.069083
-0.070058   -0.015165   -0.028157     -0.1649     -1.8708    -0.12787   -0.067459
-0.086298   -0.025884    -0.03303    -0.18407      -1.988   -0.075904   -0.058689
-0.094093   -0.036927   -0.034978    -0.19381     -1.7561  -0.0099683   -0.040175
-0.089871   -0.041799   -0.030756    -0.19089     -1.3293    0.067986  -0.0089938
-0.074605   -0.040175   -0.021012    -0.17952    -0.87526     0.14529    0.028684
-0.052193   -0.032055   -0.011267    -0.16815    -0.50757     0.20765    0.064088
-0.027833   -0.021337   -0.007045    -0.15905    -0.26624     0.24533    0.090072
-0.0057458  -0.0096434   -0.008669    -0.14899    -0.12657      0.2567     0.10599
0.01017  -0.0011985   -0.013866    -0.13599   -0.043099     0.25345     0.11508
0.01764   0.0026992   -0.020687     -0.1217    0.020564     0.25053     0.11833
0.013093   0.0052977   -0.024585    -0.11033    0.082602     0.25767     0.11573
0.00075039   0.0062721   -0.022636    -0.10546     0.15341     0.27164     0.10371
-0.014191   0.0059473   -0.012567    -0.10903     0.21188     0.27586    0.084551
-0.027508   0.0056225   0.0036737      -0.123     0.19986     0.25475     0.06084
-0.034004   0.0069217    0.019589    -0.14574    0.069285     0.20278    0.037778
-0.031081    0.009845    0.028684    -0.16977     -0.1714      0.1297     0.01764
-0.023285    0.013093    0.028684    -0.18374     -0.4569    0.049147   0.0026992
-0.01484    0.014068    0.020888    -0.18569    -0.69726   -0.023285  -0.0054209
-0.0093186   0.0095202    0.011144    -0.17335    -0.81452    -0.07428  -0.0073698
-0.0060706   0.0023744   0.0046481    -0.14899    -0.79081    -0.10286  -0.0054209
-0.0063954  -0.0034721   0.0036737    -0.11521    -0.67647    -0.11521 -0.00054884
-0.007045  -0.0044465   0.0046481     -0.0824    -0.54687      -0.123   0.0033489
-0.0054209  -0.0018481   0.0036737   -0.058365    -0.44001    -0.12982   0.0049729
-0.0067202   0.0010752  0.00010078   -0.046022    -0.33607    -0.13567  -0.0018481
-0.012567   0.0033489  -0.0028225   -0.040825    -0.19511    -0.13469   -0.012892
-0.023935   0.0072465  -0.0028225   -0.038551   0.0017248      -0.123   -0.023285
-0.034978    0.013418 -0.00054884   -0.034978     0.23201    -0.10091    -0.03303
-0.044073    0.022512 -0.00022403   -0.028157     0.45126   -0.076229   -0.044398
-0.053168    0.031607  -0.0050961   -0.020687     0.62048   -0.057065   -0.054467
-0.060963    0.038753   -0.014516   -0.013216     0.72345   -0.048296   -0.063237
-0.065835    0.042001    -0.02361  -0.0047713     0.76892   -0.049595    -0.06681
-0.062587    0.043625    -0.02361   0.0056225     0.77704   -0.054792   -0.062587
-0.051219    0.041027   -0.015815    0.013743     0.75918    -0.05804   -0.052193
-0.035953    0.036479  -0.0067202    0.018615     0.70818   -0.054142   -0.039526
-0.020037    0.028034   0.0010752    0.019914      0.5984   -0.046671   -0.030756
-0.007045     0.01894   0.0046481    0.020564     0.40384   -0.043099   -0.033354
0.0014    0.012768   0.0059473    0.023487    0.097218   -0.046671   -0.046022
0.0023744   0.0062721   0.0020496    0.025761    -0.32081   -0.050569   -0.061937
-0.00054884      0.0014  -0.0057458    0.023487    -0.78658   -0.042449    -0.07493
0.0010752  -0.0015233   -0.015165    0.016991     -1.1962   -0.011917   -0.078827
0.015692  -0.0011985   -0.018413    0.010819     -1.4482    0.038753   -0.070707
0.040052  -0.0015233   -0.010943   0.0052977     -1.4914    0.096244   -0.051219
0.063763  -0.0037969   0.0026992   0.0056225     -1.3342     0.14529   -0.026209
0.075131  -0.0067202    0.017316    0.012119     -1.0351      0.1742  -0.0018481
0.064413  -0.0063954    0.025436    0.025436    -0.67355     0.17062    0.016016
0.033231   -0.008669    0.027385    0.042651    -0.32958      0.1362    0.022188
-0.008669   -0.014516    0.027385    0.065062   -0.057065    0.078055    0.016016
-0.042124   -0.021337    0.032582    0.088448     0.12807   0.0065969   0.0023744
-0.054467   -0.026209    0.040702     0.11443     0.24046    -0.06551   -0.013866
-0.047321   -0.028482    0.049796     0.13912     0.30055    -0.11943   -0.027833
-0.027183   -0.026858    0.056942     0.15763     0.32913    -0.14671   -0.034978
-0.0060706   -0.018413    0.061489     0.16705     0.34277    -0.15029   -0.034978
0.0095202  -0.0054209    0.062464     0.17127     0.34764    -0.13664    -0.03173
0.015042   0.0085458    0.061814     0.17257     0.34667    -0.11553   -0.026209
0.0085458    0.019914    0.061489      0.1716     0.33693   -0.095068   -0.019388
-0.007045    0.024137    0.058241     0.16575     0.31874   -0.083375   -0.010293
-0.024909    0.022837    0.049796     0.14984     0.29503   -0.084999 -0.00022403
-0.038551    0.020888    0.036804     0.12418     0.27164   -0.097991   0.0095202
-0.041475     0.01894    0.018615    0.095919     0.24501    -0.11488    0.013743
-0.032055    0.016016  -0.0041217    0.068635      0.2135    -0.12885    0.012119
-0.010618    0.012443   -0.031406    0.044599     0.18199    -0.13567   0.0088706
0.015042    0.008221   -0.061613    0.020239     0.15991    -0.13794   0.0059473
0.034206   0.0052977   -0.094093  -0.0096434     0.15276    -0.13177  0.00042559
0.042001   0.0039985    -0.12852   -0.046347     0.15049    -0.11098  -0.0083442
0.043625 -0.00022403    -0.16165   -0.091495     0.13749   -0.082076   -0.018738
0.041676   -0.007045    -0.19056    -0.14152     0.10989   -0.057065   -0.030431
0.032582    -0.01549     -0.2133    -0.19413    0.084226   -0.044073   -0.043748
0.018615   -0.022311    -0.22726    -0.24221    0.087474   -0.038551   -0.053168
0.0046481   -0.029132    -0.23506    -0.27631     0.13749   -0.028482   -0.053817
-0.0031473   -0.036602    -0.23279    -0.28573     0.23461   -0.011917   -0.045697
-0.0024977     -0.0405    -0.21817    -0.26689     0.36681   0.0078962   -0.031406
0.0056225   -0.039526    -0.18926    -0.22597     0.51784    0.023162  -0.0099683
0.015692   -0.035628    -0.15483    -0.18049     0.66758    0.024461   0.0078962
0.023812   -0.030431    -0.12203    -0.14996     0.79231    0.013093    0.012443
0.031607   -0.025884   -0.094743    -0.14184      0.8813  -0.0021729   0.0026992
0.036804   -0.018738   -0.069733    -0.14509     0.92125   -0.012567   -0.013541
0.038753   -0.011592   -0.043748    -0.14509      0.8865   -0.012892   -0.025234
0.037129  -0.0031473   -0.017764    -0.12982     0.75658   0.0026992   -0.027508
0.035505   0.0052977   0.0033489    -0.10319     0.53896     0.03518   -0.020687
0.037129    0.009845    0.016016   -0.071357     0.25865    0.084551  -0.0083442
0.043625    0.011794     0.01829     -0.0405   -0.051868     0.14496   0.0065969
0.05272   0.0088706    0.016341   -0.011267    -0.34907     0.20603    0.017316
0.055968   0.0010752    0.020239    0.017316    -0.58683     0.25183    0.026085
0.046223  -0.0080194    0.030957    0.046223    -0.73754     0.27164    0.032582
0.028684   -0.013866    0.046223     0.07708    -0.78821     0.26579    0.040052
0.013743   -0.013216    0.063113     0.10924    -0.73916     0.24436    0.050121
0.0052977  -0.0024977     0.07773     0.14074    -0.62775     0.22487    0.059216
0.0056225    0.013418      0.0865     0.16608     -0.5118     0.21935    0.069934
0.013093    0.027709    0.088448     0.18232    -0.43482     0.22324    0.079029
0.026735    0.036479    0.088448     0.18622    -0.40818     0.21902    0.084226
0.039727    0.037454    0.088124     0.17939    -0.40071     0.19011    0.084876
0.044599    0.032582    0.083901     0.16608    -0.35556     0.13555    0.078379
0.039078    0.024786     0.07773     0.15406    -0.23214    0.070584    0.066686
0.027385    0.020888    0.073182     0.15016   -0.031406    0.015042    0.055643
0.016666    0.022512    0.070909     0.15471     0.20733   -0.020362    0.050121
0.011144     0.02706     0.06831      0.1664     0.43859   -0.039201    0.050121
0.009845    0.029983    0.062139      0.1781     0.63153   -0.052843    0.049796
0.012119    0.029658    0.049472     0.18459      0.7673   -0.080776    0.044275
0.012768    0.023812    0.027709     0.18232     0.82771    -0.13502    0.033231
0.0091954    0.016666  -0.0041217     0.17225     0.78549    -0.21687    0.019264
0.0033489    0.012119   -0.032705     0.16218     0.64225    -0.31918   0.0026992
-0.00022403    0.012119   -0.050894     0.15698      0.4282     -0.4254    -0.01484
-0.0015233    0.014068   -0.059664     0.16023     0.18881    -0.51115   -0.029132
-0.0011985    0.016991   -0.064536     0.17062   -0.031406    -0.55532   -0.034004
0.0046481    0.019264   -0.073631     0.17777    -0.19413    -0.55467   -0.034329
0.013093    0.020888    -0.08305     0.16803    -0.26364    -0.51959   -0.035628
0.021863    0.025436   -0.089221      0.1349    -0.22597      -0.466    -0.04115
0.030957    0.033231   -0.088896    0.086824   -0.096692    -0.41208   -0.046671
0.036804    0.042326   -0.079152    0.034206    0.075781    -0.37375   -0.053817
0.032257    0.048172    -0.06551   -0.022961     0.23071    -0.35069   -0.063886
0.010819    0.047847   -0.056416   -0.087272     0.31029    -0.33283   -0.075579
-0.023935    0.037778   -0.060638    -0.15158     0.27944    -0.30327   -0.084999
-0.059989    0.020564   -0.073306     -0.2029     0.12613     -0.2474   -0.088572
-0.085324  0.00075039   -0.089546    -0.23181    -0.15841    -0.15905   -0.084999
-0.094418   -0.015815    -0.10741    -0.23831    -0.55662   -0.047646   -0.075255
-0.089871   -0.024585    -0.12365    -0.22954    -0.98114    0.062464   -0.061937
-0.074605   -0.026858    -0.14184    -0.21557     -1.3076     0.15309   -0.051219
-0.057065   -0.028482    -0.16165    -0.20323     -1.4248     0.21675   -0.043748
-0.042774    -0.03238    -0.17465    -0.19316     -1.2839     0.25897   -0.035628
-0.035303   -0.036278     -0.1753    -0.18504     -0.9308     0.28918   -0.028157
-0.038551   -0.039201    -0.16458    -0.17887    -0.49783     0.30769   -0.020037
-0.04992   -0.038876    -0.14509    -0.17432    -0.16068     0.31971   -0.013216
-0.066485   -0.036927    -0.12235     -0.1662   -0.055116     0.32426   -0.010943
-0.08305   -0.035628    -0.10221    -0.14964    -0.19933     0.31744   -0.015165
-0.093119   -0.037577   -0.086623    -0.12138    -0.48744      0.2947   -0.022311
-0.093444   -0.042124   -0.070382   -0.086948    -0.76677     0.26027   -0.026533
-0.086298   -0.050894   -0.047321   -0.052193    -0.93632     0.21707   -0.021986
-0.078827   -0.058365   -0.017439   -0.023285    -0.95386     0.16868   -0.008669
-0.070707   -0.061288    0.012768  -0.0018481    -0.81549     0.11931   0.0065969
-0.061613   -0.057715    0.037778    0.012768    -0.55824    0.070584    0.018615
-0.048945   -0.047321    0.056617    0.023812    -0.24903    0.026735    0.023162
-0.034329   -0.034654    0.073507    0.032257    0.046548  -0.0093186    0.022837
-0.018738   -0.024909    0.090397    0.045249     0.28268   -0.037577    0.019589
-0.0011985   -0.019063     0.11183    0.066037     0.43664   -0.063561    0.015692
0.017965   -0.017114     0.13684    0.095594     0.52174   -0.096367    0.011144
0.03518    -0.01614     0.16283     0.13457     0.56202    -0.13827   0.0023744
0.051096   -0.014191     0.18654      0.1768     0.58281    -0.18634  -0.0060706
0.068635   -0.010618     0.20278      0.2122     0.59807    -0.23636   -0.011917
0.085525  -0.0093186     0.20408     0.23169     0.61334    -0.28118   -0.010293
0.10079  -0.0080194     0.19174     0.23429     0.63445    -0.31106  -0.0031473
0.10436  -0.0063954     0.16933     0.22292      0.6705    -0.32048   0.0049729
0.087149  -0.0037969     0.13912     0.20473     0.72734    -0.30977   0.0072465
0.046873  -0.0028225     0.10924     0.18492     0.80075    -0.27988   0.0052977
-0.0041217  -0.0037969    0.087149      0.1664     0.86052    -0.22856    0.003024
-0.051868  -0.0047713    0.074482     0.14724     0.83226    -0.15581   0.0069217
-0.0824  -0.0050961    0.066362     0.11736     0.59417   -0.073631    0.016991
-0.089871  -0.0044465    0.057592     0.06896    0.027385 -0.00022403    0.028359
-0.083375  -0.0031473    0.042326   0.0065969    -0.88143    0.048822    0.033556
-0.07428  -0.0028225    0.022512   -0.053492      -1.928    0.073832    0.031607
-0.066485  -0.0067202   0.0023744   -0.096692     -2.7984     0.08585    0.023487
-0.064536   -0.012892   -0.012242    -0.11748     -3.2317    0.093645   0.0091954
-0.06681   -0.020687   -0.015815     -0.1178      -3.119     0.10501  -0.0093186
-0.065835   -0.023285  -0.0073698    -0.10286     -2.5305      0.1232   -0.027183
-0.057065   -0.019063   0.0091954   -0.075579     -1.6675     0.14821   -0.037902
-0.040175   -0.011267    0.031282   -0.037252    -0.76742     0.17225   -0.038227
-0.022636  -0.0044465    0.055968   0.0078962    -0.02426     0.18654   -0.028482
-0.010618 -0.00087364    0.078704    0.047523     0.46555     0.18589  -0.0096434
-0.0063954  0.00042559    0.095919    0.071883      0.7176      0.1768   0.0085458
-0.0096434   0.0017248     0.10242    0.077405     0.79523     0.16965    0.017965
-0.01549    0.003024     0.10177    0.072533     0.77347     0.16543     0.01894
-0.020037   0.0039985    0.097218    0.067011     0.71338      0.1638    0.013418
-0.022311   0.0026992    0.091047    0.062464     0.65134     0.16283   0.0072465
-0.023935  0.00010078    0.082927    0.058566     0.60262     0.16413   0.0043233
-0.026533  -0.0028225    0.070584    0.051096     0.56657      0.1664   0.0072465
-0.028807  -0.0054209     0.05142    0.037454     0.54383     0.16543    0.013743
-0.022311  -0.0044465    0.025761    0.015692     0.53701     0.16056    0.021538
-0.0047713   0.0017248   0.0010752   -0.010293     0.54188     0.15731    0.030308
0.016991    0.012768   -0.017114   -0.024909     0.54578     0.15276    0.039727
0.03583    0.023162   -0.027833   -0.019388     0.54188     0.14302    0.047847
0.049472    0.032582   -0.025234    0.012443     0.53506     0.12385    0.055968
0.061165    0.041676   -0.008669    0.064088     0.53538    0.097218    0.064088
0.070259    0.048497    0.020239     0.12093      0.5526    0.071234    0.069934
0.078379    0.051096    0.050121     0.16738     0.58703    0.052395    0.071883
0.084876    0.047198    0.072208     0.19823      0.6325    0.042326    0.072208
0.088448    0.033556    0.076755     0.21123     0.67083    0.041676     0.06896
0.084876    0.017316    0.065062     0.20863     0.68382    0.048822    0.063763
0.075456   0.0059473    0.045249     0.19076     0.66466    0.062464    0.054993
0.061489   0.0043233    0.026735      0.1625     0.62795     0.07773    0.044924
0.046873   0.0072465    0.014392      0.1349     0.59093    0.087149    0.032582
0.034206   0.0088706    0.008221     0.11281     0.56494    0.087799    0.020239
0.024461   0.0091954   0.0052977    0.097218     0.55552    0.080003    0.010819
0.017316   0.0095202   0.0033489    0.081627     0.56267    0.062464   0.0023744
0.011469     0.01017  0.00075039     0.06084     0.57696    0.042651  -0.0067202
0.0078962    0.009845 -0.00022403    0.040052     0.58378    0.025436    -0.01549
0.0091954     0.01017    0.003024    0.022837     0.58443    0.012119    -0.02361
0.017965    0.012443    0.010495   0.0095202     0.58118  -0.0015233   -0.029132
0.029333    0.014392    0.017965   0.0017248     0.57728   -0.019712   -0.033679
0.03518    0.015367    0.019264  -0.0054209     0.57209   -0.040175   -0.038551
0.028684    0.014717    0.011794   -0.013541     0.55909   -0.055766   -0.044398
0.009845    0.011794  -0.0034721   -0.019388     0.53019   -0.070382   -0.050894
-0.013541   0.0062721   -0.021661   -0.026209     0.48114   -0.082725   -0.056416
-0.030431   0.0017248   -0.039526   -0.030756     0.41878   -0.090845    -0.05739
-0.034978   0.0033489   -0.051544    -0.03303     0.36031   -0.094743   -0.052843
-0.030106    0.009845   -0.056741   -0.033354     0.32134   -0.093769   -0.046022
-0.017764    0.016666   -0.061288    -0.03238     0.30867   -0.089871   -0.039201
-0.0034721     0.01894    -0.06681   -0.030431     0.31711     -0.0837   -0.034004
0.0072465    0.016016   -0.077853   -0.033354     0.33335    -0.07428   -0.032705
0.01017    0.009845   -0.094093   -0.044073     0.34862   -0.057715    -0.03173
0.0091954   0.0020496    -0.10644   -0.059339     0.35609    -0.03173    -0.02426
0.009845  -0.0024977    -0.10936    -0.07428     0.34992 -0.00087364  -0.0044465
0.009845  -0.0044465    -0.10254   -0.085973     0.32101    0.032582     0.02706
0.0062721  -0.0073698   -0.092145   -0.092469     0.25962    0.062789    0.057592
0.0020496   -0.012892   -0.081426   -0.097666     0.16218    0.082927    0.073507
0.0020496   -0.017764    -0.07428    -0.10936    0.037454    0.083576    0.070909
0.0056225   -0.021986   -0.072656    -0.13112   -0.097991    0.058566    0.054668
0.0062721   -0.021661   -0.075255     -0.1649    -0.22791    0.010495    0.033231
0.0020496   -0.021337   -0.081751    -0.20323    -0.33705   -0.046347    0.012119
-0.0076946    -0.02361   -0.090521    -0.23701    -0.41923   -0.096042  -0.0060706
-0.01549   -0.025559   -0.097017     -0.2578    -0.47509    -0.13275   -0.020687
-0.020037    -0.02361   -0.093119    -0.26429     -0.5105    -0.15223   -0.031081
-0.019063   -0.013866   -0.078827    -0.26072    -0.54395    -0.15321   -0.036278
-0.016464  0.00075039   -0.060638     -0.2435    -0.59072    -0.13762   -0.035303
-0.012892    0.016666   -0.040175     -0.2107    -0.64399    -0.10871   -0.027833
-0.010943    0.026735   -0.021661    -0.16458    -0.68622   -0.079152    -0.01549
-0.011267    0.029333  -0.0099683    -0.11521    -0.70116   -0.057065  -0.0018481
-0.011592    0.027709  -0.0047713   -0.072656    -0.67517   -0.048296    0.011144
-0.0083442    0.025111  -0.0063954   -0.038876    -0.60631   -0.052843     0.01894
-0.0018481    0.025111   -0.011267   -0.017764    -0.51277   -0.063561     0.01764
0.0026992    0.028034   -0.016789  -0.0073698    -0.42637   -0.072006   0.0072465
-0.00022403    0.031607   -0.020362  -0.0011985    -0.38869   -0.079152   -0.010943
-0.0083442    0.032582   -0.020687   0.0062721    -0.45528   -0.087597   -0.032705
-0.020362    0.029009   -0.019712    0.019914    -0.63782   -0.097991   -0.052518
-0.03173    0.021538   -0.018738    0.038753    -0.87623    -0.10611   -0.063886
-0.036278    0.015367   -0.016464    0.056292     -1.0698    -0.10579   -0.063886
-0.032705    0.015042   -0.014516     0.06896     -1.1085   -0.094093   -0.050569
-0.020037    0.018615   -0.018088    0.074806    -0.93047   -0.071682   -0.029782
-0.0024977    0.019914   -0.029457    0.069934    -0.57838   -0.038551   -0.010293
0.01764    0.019914   -0.044073    0.053369     -0.1675  -0.0057458   0.0046481
0.031282    0.019914   -0.057715     0.02706     0.19434    0.015042    0.015042
0.030957    0.019914   -0.067134  -0.0021729     0.44574    0.014717     0.01764
0.011794    0.017316   -0.076554   -0.024909     0.57111  -0.0076946    0.011469
-0.025884    0.011794    -0.09182   -0.042774     0.59645   -0.052518   0.0017248
-0.071357   0.0033489    -0.11618   -0.056416     0.58151    -0.11456   -0.012892
-0.10936  -0.0054209    -0.14866   -0.066485     0.59645    -0.18277   -0.028157
-0.12917   -0.010943    -0.18017   -0.071682     0.68317    -0.24448   -0.040825
-0.12755   -0.010618    -0.19966   -0.072331     0.83453    -0.28605    -0.04862
-0.10903  -0.0076946    -0.20128   -0.068109      1.0057     -0.2984   -0.049595
-0.086298  -0.0063954    -0.18309   -0.057715      1.1437    -0.27664   -0.043099
-0.069408   -0.008669    -0.15093   -0.042124      1.2058    -0.22694   -0.031081
-0.061613   -0.013216    -0.11196   -0.023285      1.1704    -0.16425   -0.018088
-0.057715   -0.018088   -0.073955  -0.0044465      1.0327    -0.10936  -0.0093186
-0.055441   -0.026209   -0.042124    0.003024     0.79685   -0.077528  -0.0076946
-0.054792   -0.035628   -0.013216  -0.0073698     0.48082   -0.072331   -0.011267
-0.058689   -0.046022    0.014717    -0.03173      0.1206   -0.088896   -0.017439
-0.061937   -0.054792    0.040377   -0.062912    -0.22986    -0.11488   -0.026858
-0.061937   -0.059664     0.06084   -0.089871    -0.53551    -0.14087   -0.041475
-0.059014   -0.059339    0.073507    -0.10806    -0.81614     -0.1623   -0.059989
-0.053492   -0.055766     0.07708    -0.11975     -1.1322    -0.17919   -0.078178
-0.048945   -0.052193    0.072533     -0.1269     -1.5232    -0.19576   -0.093119
-0.045697   -0.051868     0.06019     -0.1334     -1.9777     -0.2159   -0.097341
-0.042774   -0.049595    0.039402    -0.14119      -2.423    -0.23863   -0.089546
-0.0405   -0.046671    0.013093    -0.14931     -2.7413     -0.2591    -0.07428
-0.040175   -0.042449   -0.012567    -0.15581     -2.8202    -0.26981   -0.057065
-0.040825   -0.034978   -0.030106    -0.15776      -2.611    -0.26462   -0.041475
-0.038876   -0.027183   -0.038876    -0.15483     -2.1537    -0.24415   -0.032055
-0.030431    -0.02361   -0.041799    -0.14574     -1.5726    -0.20713   -0.029457
-0.017439   -0.022961   -0.040175    -0.13275     -1.0156    -0.15548   -0.028157
-0.0024977   -0.022961   -0.033679    -0.11586    -0.59917   -0.092794   -0.022311
0.010819   -0.019063   -0.023935   -0.093119    -0.36758   -0.028482  -0.0050961
0.020239   -0.012242   -0.013216   -0.066485    -0.30229    0.026085    0.019914
0.024786  -0.0057458  -0.0037969   -0.038227    -0.33802    0.064737    0.045574
0.028034  -0.0028225 -0.00054884   -0.010943    -0.40169    0.084226    0.063763
0.032906  -0.0018481  -0.0031473    0.011469    -0.44781    0.091372    0.071558
0.038428 -0.00022403  -0.0080194     0.02641    -0.47769    0.093645    0.070584
0.041351  0.00042559   -0.010943    0.032257    -0.52446    0.089423    0.061489
0.041027  -0.0011985  -0.0096434    0.036804    -0.59754    0.076755    0.047198
0.039078  -0.0028225  -0.0041217    0.042651    -0.65991    0.056292    0.032906
0.037454  -0.0044465   0.0017248    0.049147    -0.65796    0.038428    0.025111
0.030957  -0.0041217   0.0059473    0.055643    -0.56182    0.027385    0.025761
0.022837  -0.0047713   0.0088706    0.064088    -0.38025     0.02641    0.029983
0.013418  -0.0057458    0.013418    0.072533    -0.14704    0.032582    0.033881
0.0088706  -0.0060706     0.01894    0.080653    0.093645    0.046223    0.036154
0.010819  -0.0067202    0.023162    0.089098     0.30769    0.067336    0.033556
0.013743  -0.0060706     0.02641    0.091696     0.47367     0.09397    0.027385
0.012443 -0.00054884    0.029658    0.088448       0.588     0.12288     0.01894
0.011794   0.0078962    0.031932    0.081303     0.66791     0.14464    0.010819
0.013418    0.013743    0.033881    0.074157     0.73189     0.15309    0.003024
0.016341    0.012768    0.035505    0.072858     0.78873     0.14496  -0.0060706
0.020888   0.0046481    0.037129    0.079354     0.84103      0.1258   -0.011267
0.023487  -0.0037969    0.039402    0.090722     0.88618     0.10371   -0.012242
0.024137  -0.0050961    0.042975     0.10371     0.91866    0.083901   -0.008669
0.021538   0.0017248    0.047198     0.11151     0.93197    0.066362  -0.0063954
0.020239    0.012119    0.048822     0.11346      0.9284    0.054344  -0.0089938
0.020888     0.01829    0.044924     0.11443     0.91931    0.052395   -0.014516
0.023812    0.018615    0.036479     0.11638      0.9232     0.06019    -0.01614
0.029658    0.014717    0.031282      0.1245     0.94529    0.079029   -0.011267
0.038428    0.013418    0.032257     0.13749      0.9729     0.10209  0.00042559
0.045899    0.014717    0.037454     0.15341      0.9768     0.12223    0.014717
0.048822    0.019264    0.045899     0.16673     0.92515      0.1297    0.024461
0.046873    0.023162    0.060515      0.1742     0.81147      0.1245     0.02706
0.044599    0.025761    0.075456     0.17517     0.66596     0.11183    0.022837
0.044924    0.026735    0.082602     0.17322      0.5422     0.10177    0.016991
0.047198    0.025111    0.079029     0.17062     0.46977    0.099492    0.013418
0.045574    0.025111    0.068635     0.16738     0.45126     0.10469    0.012119
0.039402    0.023812    0.056942     0.15828     0.46847     0.11346    0.013093
0.029983    0.020888    0.047847     0.14139     0.49348     0.11703     0.01017
0.022188    0.016666    0.042326      0.1219      0.5068     0.10761   0.0017248
0.019264    0.011144    0.038753     0.10436     0.50128    0.089748   -0.010943
0.020239   0.0046481    0.036479    0.093321     0.48147    0.070909   -0.022961
0.022837  -0.0018481    0.033881    0.090722     0.45353    0.059865   -0.027508
0.023812   -0.007045    0.030957    0.092021      0.4204    0.064413   -0.023285
0.018615  -0.0099683    0.027385    0.092996      0.3824    0.080978   -0.017764
0.0056225   -0.013541    0.021538    0.084226     0.34082    0.097218   -0.019712
-0.0093186   -0.018738    0.009845    0.063763     0.29957     0.10306   -0.027833
-0.016464   -0.022636   -0.011917    0.036154     0.26319    0.089098   -0.034654
-0.013216   -0.023935   -0.042449   0.0010752     0.23591    0.058241   -0.035303
-0.0031473   -0.021661   -0.070382   -0.038876     0.22584    0.026085   -0.024909
0.01017   -0.018413   -0.085973   -0.077203     0.24176   0.0095202  -0.0024977
0.023812   -0.010293   -0.088896    -0.10611     0.28138    0.014717    0.031932
0.037454  -0.0011985   -0.087597    -0.12592      0.3392    0.039727    0.071234
0.045249   0.0052977   -0.087597    -0.14216     0.40838     0.06831     0.10112
0.045574   0.0056225   -0.087272    -0.15808     0.48536    0.092671     0.11573
0.036804   0.0023744   -0.083375    -0.17302     0.56494     0.11508     0.11573
0.023162   0.0010752   -0.070058    -0.18439     0.64744     0.14009     0.10891
0.009845   0.0046481   -0.046671    -0.18764     0.74521     0.16998    0.099492
0.00010078   0.0088706   -0.017439    -0.17789     0.87578     0.19271    0.090722
-0.0034721   0.0095202    0.011794    -0.15483      1.0317     0.19888    0.083576
0.00010078   0.0065969    0.038428    -0.12105      1.1597     0.18979    0.074806
0.0043233    0.003024    0.054668   -0.086623      1.1389     0.16803    0.057592
0.0078962  -0.0018481    0.050446   -0.070707      0.8092     0.13132    0.033881
0.010819  -0.0099683    0.026735   -0.084349    0.082602    0.081303   0.0072465
0.011144   -0.020037  -0.0093186    -0.11943    -0.91098    0.016016   -0.014191
0.009845   -0.023285   -0.041475    -0.14736     -1.8714   -0.058365   -0.029457
0.009845   -0.017439   -0.055441    -0.14249     -2.5272     -0.1295   -0.037902
0.012443  -0.0028225   -0.044723   -0.097017     -2.7393    -0.17919   -0.037252
0.012119    0.013093   -0.016464   -0.023935     -2.5496     -0.2016   -0.029782
0.0059473    0.022837     0.01764    0.049796     -2.1339    -0.19868   -0.019712
-0.0054209    0.024461    0.048822    0.099492     -1.6814     -0.1753   -0.013216
-0.017764    0.021863    0.071234     0.11541     -1.2943    -0.13827   -0.013866
-0.030756    0.020564      0.0852     0.10501    -0.96003   -0.094418   -0.023285
-0.046022    0.023812    0.091047    0.088124    -0.60437   -0.054467   -0.037252
-0.063237    0.027709    0.092996    0.078704    -0.17919   -0.027183   -0.056416
-0.081101    0.032257     0.09397    0.075781      0.2895   -0.026533   -0.075579
-0.097341    0.035505    0.094295    0.074157     0.72215   -0.052518   -0.090521
-0.10968     0.03453     0.09397    0.072533      1.0307   -0.090521   -0.095068
-0.11586    0.029658    0.094945    0.074806      1.1632    -0.12398   -0.085324
-0.11618    0.022188     0.09462    0.078055      1.1213    -0.14574   -0.065186
-0.11131    0.013743    0.085525     0.07708     0.95893    -0.15905   -0.042449
-0.10319   0.0078962    0.066686    0.074157     0.75398     -0.1727   -0.025884
-0.087597   0.0039985    0.042001    0.080978     0.56592    -0.18861   -0.019712
-0.064536  0.00010078    0.018615     0.11021      0.4256     -0.2068   -0.021012
-0.038227  -0.0024977    0.003024     0.16413     0.33855     -0.2159   -0.027833
-0.01549  -0.0024977  -0.0073698     0.22389      0.2934     -0.2029   -0.039851
-0.0041217  -0.0011985   -0.017764     0.25832     0.27554    -0.16003   -0.057065
-0.011592 -0.00087364   -0.029132      0.2489     0.27359   -0.086948   -0.076229
-0.032705  -0.0011985   -0.040175     0.20213     0.27976   0.0046481   -0.093444
-0.054142 -0.00054884   -0.050894     0.14432     0.28918    0.089748   -0.099615
-0.065835  0.00010078   -0.058689    0.099817     0.30282     0.14107   -0.089546
-0.065186  0.00042559   -0.063237    0.086824     0.31127     0.14432   -0.070058
-0.056091   0.0043233   -0.067459     0.10339     0.29015    0.097543    -0.04927
-0.045047   0.0091954   -0.070707      0.1323     0.22487   0.0088706    -0.03238
-0.03238    0.015367   -0.072006     0.15601     0.10826    -0.10091   -0.021986
-0.017439     0.01829   -0.072331     0.16218   -0.050244      -0.212    -0.01549
-0.0021729    0.019264    -0.07428     0.14984    -0.22791    -0.30879   -0.008669
0.011144    0.020239   -0.081751     0.11801    -0.39844     -0.3744   0.0023744
0.021863    0.020564   -0.094093    0.072208    -0.54298    -0.39649    0.016991
0.030633    0.021213    -0.10968    0.019914    -0.64009    -0.37408    0.032906
0.039078    0.020239     -0.1256   -0.032055    -0.67615    -0.32243    0.045249
0.047523    0.015042    -0.14152     -0.0824    -0.63717    -0.26429    0.053044
0.050446    0.003024    -0.15613    -0.13275    -0.51115    -0.21752    0.056617
0.046873   -0.011592     -0.1649    -0.18179    -0.29482    -0.18861    0.056292
0.036479   -0.024585    -0.16068    -0.22109    -0.01614    -0.17107    0.053694
0.020888   -0.034004    -0.14996    -0.24578     0.27944    -0.15678    0.045574
0.0065969   -0.036278    -0.13664    -0.25325     0.54708    -0.14087    0.036804
-0.0037969   -0.032055      -0.123    -0.24156     0.76112    -0.12657    0.030633
-0.013541   -0.021661    -0.10903    -0.21265     0.90566    -0.11488    0.028684
-0.021661   -0.011267   -0.097341    -0.17302     0.96705    -0.10546    0.027709
-0.027833  -0.0034721   -0.086623    -0.13112     0.93685   -0.092145    0.026085
-0.029457    0.003024   -0.073955   -0.096042     0.82349   -0.069733    0.022512
-0.026209   0.0085458    -0.05804   -0.070707     0.65134   -0.035953    0.016666
-0.017764    0.013743   -0.039201   -0.052518     0.45256   0.0049729    0.016016
-0.0076946    0.020239   -0.022311   -0.040175     0.25313    0.051096     0.01894
0.0043233    0.025111   -0.013216   -0.031406    0.061814    0.097543    0.022837
0.013743    0.026085   -0.010943   -0.030756    -0.13047     0.14334    0.025111
0.019589    0.026085  -0.0099683   -0.034004    -0.33607     0.18297    0.022188
0.019264    0.024786  -0.0073698   -0.037252    -0.56312      0.2122    0.014392
0.01764    0.023812  -0.0037969   -0.032705    -0.80964     0.22454   0.0043233
0.016666    0.020239  0.00075039   -0.022311     -1.0935     0.21707  -0.0063954
0.016016    0.013093   0.0052977   -0.013541     -1.4372     0.18524   -0.015165
0.015367   0.0023744   0.0078962   -0.012242     -1.8195     0.13749   -0.021012
0.011794   -0.010943   0.0085458   -0.021986     -2.1758    0.080328   -0.022636
0.0036737   -0.020687    0.008221   -0.040825     -2.4207     0.02706   -0.023285
-0.0011985   -0.028157   0.0078962   -0.064861     -2.4782   -0.011592   -0.021661
-0.00022403   -0.032055    0.012119   -0.084349     -2.3242   -0.033354   -0.022311
0.0020496    -0.03238     0.01764   -0.093444     -1.9945   -0.043423   -0.025234
0.0039985   -0.031081    0.021538   -0.090845     -1.5681   -0.051544   -0.031081
0.0069217   -0.029132    0.024137   -0.080451     -1.1319   -0.066485   -0.036927
0.0088706   -0.027833    0.027709   -0.070707    -0.75735   -0.088572     -0.0405
0.009845   -0.031081    0.035505   -0.071357    -0.48711    -0.11586   -0.041475
0.0065969   -0.035628    0.044924   -0.081101    -0.32828    -0.13794    -0.04115
-0.00087364   -0.041799    0.054993   -0.087922     -0.2565    -0.15029     -0.0405
-0.010293   -0.045372    0.067336   -0.092794    -0.23538    -0.14736   -0.042124
-0.017764   -0.046671    0.079679    -0.11326    -0.22889    -0.12398   -0.047971
-0.022311   -0.046996    0.087149    -0.16912    -0.20843   -0.077528   -0.056416
-0.025884   -0.047321    0.087799    -0.24578    -0.15321   -0.011592   -0.063561
-0.021661   -0.044398    0.091696    -0.28411   -0.052843    0.064088    -0.06551
-0.008669   -0.035953     0.10599    -0.22532    0.083251      0.1323   -0.060313
0.010819   -0.023285     0.13132    -0.07493     0.22129     0.18134   -0.045047
0.029983   -0.007045     0.15763     0.10696      0.3444     0.20765   -0.027833
0.044599   0.0091954     0.17257     0.25248     0.45938     0.21642   -0.014191
0.049472    0.016016      0.1664     0.32653     0.58313      0.2161  -0.0041217
0.039078    0.014068     0.13327     0.32231     0.70558     0.21415   0.0059473
0.021213   0.0017248     0.07708      0.2463     0.79361     0.20668    0.014717
0.0026992   -0.015165   0.0095202     0.11671     0.83486     0.18881    0.021213
-0.010618   -0.026858   -0.051868   -0.037902     0.84038     0.15828    0.024786
-0.016464   -0.029132   -0.095068    -0.18049     0.84298      0.1206    0.025436
-0.013866   -0.022636    -0.11553    -0.28378     0.87676    0.082927    0.023162
-0.0028225   -0.011592    -0.11748    -0.33802     0.94107    0.055968    0.020239
0.015692  -0.0028225    -0.10806    -0.35329      1.0135    0.041027    0.016666
0.040052    0.003024   -0.095717    -0.35329       1.069    0.034855    0.014392
0.067011   0.0069217   -0.086298    -0.36206      1.0902    0.027709    0.017965
0.092021    0.013093   -0.079802    -0.38707      1.0788    0.008221    0.025761
0.10956    0.020239    -0.07493    -0.40818      1.0697   -0.025559    0.034855
0.11054    0.025436    -0.06616    -0.38057      1.0889   -0.067784    0.044599
0.09397    0.028034   -0.047971    -0.25033      1.1278    -0.10968    0.053694
0.063763    0.027385   -0.014191   0.0017248      1.1418    -0.13112    0.061489
0.024461    0.024137    0.025111     0.33498      1.0554     -0.1204    0.065387
-0.017439    0.017965    0.058891     0.66628     0.79783   -0.090196    0.060515
-0.058689    0.011469     0.07773     0.90924     0.34602   -0.064536    0.042651
-0.095393   0.0062721    0.074157      1.0141     -0.2578    -0.05739    0.015692
-0.123      0.0014    0.046873     0.98394    -0.89929   -0.070058   -0.013541
-0.13697  -0.0034721   0.0065969     0.86246     -1.4576   -0.090196   -0.038876
-0.13697   -0.010293   -0.031406     0.70104     -1.8464    -0.10384   -0.054142
-0.12463   -0.017439   -0.056741     0.53993     -2.0332    -0.10091   -0.062262
-0.10644   -0.024585   -0.064861     0.39994     -2.0257   -0.077853   -0.064536
-0.088247   -0.029782    -0.05804     0.28528     -1.8552   -0.043423   -0.062262
-0.072006   -0.033679   -0.046347     0.19434     -1.5658   -0.008669   -0.055116
-0.059014   -0.034654   -0.037577     0.12775     -1.2069    0.017965   -0.046022
-0.052193   -0.030756   -0.035303     0.08585    -0.82394    0.029333   -0.036927
-0.047646   -0.021012   -0.038551    0.063763     -0.4569    0.025436   -0.030431
-0.04115   -0.008669   -0.043099    0.051096    -0.14022    0.009845   -0.028482
-0.035628 -0.00054884   -0.045697    0.041351     0.10047   -0.012567   -0.029457
-0.030106 -0.00054884   -0.043423    0.030957      0.2606   -0.038551    -0.03173
-0.026533  -0.0047713   -0.032055    0.017965     0.34959   -0.067459   -0.030756
-0.019712   -0.010293   -0.013541  0.00075039     0.39019   -0.094743   -0.024909
-0.010293   -0.010618   0.0095202   -0.019063     0.40546    -0.11098   -0.013216
0.0020496  -0.0089938    0.027385   -0.042774     0.41066    -0.11423   0.0065969
0.01017   -0.008669    0.038428   -0.075904     0.40643    -0.10644    0.029333
0.0088706   -0.007045    0.045899     -0.1217     0.38987   -0.099615    0.049472
-0.0024977   -0.007045    0.049796    -0.17335     0.36421    -0.10676    0.057917
-0.017439  -0.0083442    0.047198    -0.22661      0.3353    -0.13112    0.050121
-0.029782   -0.012892    0.037129    -0.27664     0.30997    -0.16847    0.030308
-0.03303   -0.018088    0.024786    -0.31756     0.28593    -0.20972   0.0052977
-0.027183   -0.019063    0.015042     -0.3416     0.26125    -0.24091   -0.013866
-0.014516    -0.01484   0.0088706    -0.34484     0.24858    -0.25552   -0.021986
-0.00087364  -0.0080194   0.0046481    -0.32731     0.26384     -0.2487   -0.021337
0.0069217  0.00010078   0.0020496    -0.29482     0.30899    -0.22077   -0.019388
0.0010752   0.0072465   0.0033489    -0.25357     0.37136    -0.17497   -0.021661
-0.017114    0.011469   0.0085458     -0.2068     0.43859    -0.11228   -0.030431
-0.037252    0.015042    0.014068    -0.16035     0.49576   -0.032705   -0.038227
-0.04862    0.019914    0.016016    -0.11651     0.52921     0.06019   -0.035303
-0.047971    0.024137    0.014717   -0.073955     0.52856     0.15373   -0.016789
-0.037902    0.024461   0.0085458   -0.034978     0.49316     0.23299    0.008221
-0.023935    0.019914      0.0014  -0.0015233     0.43404     0.28658    0.025761
-0.012567    0.014717  -0.0047713    0.028684     0.36713     0.30834    0.030957
-0.0050961    0.010495   -0.012892    0.059216     0.30574     0.29957    0.024461
-0.0015233   0.0059473   -0.019063    0.087474      0.2619     0.26807    0.016016
0.0010752   0.0046481   -0.021661     0.11021     0.23851     0.22422    0.012119
0.00042559   0.0069217    -0.01614     0.12223     0.23006     0.17874    0.012119
-0.0024977    0.011794  -0.0021729     0.12872     0.23299     0.14172    0.012119
-0.0060706     0.01764    0.015692     0.13132     0.24273     0.11801    0.012443
-0.0089938    0.021863    0.029333       0.131     0.25605     0.10664    0.014068
-0.0099683    0.023812    0.037778     0.12483     0.26742     0.10112    0.016016
-0.007045    0.023487    0.040702     0.11183     0.26904    0.091372    0.018615
-0.0015233    0.021213    0.035505    0.089748     0.25897     0.07773    0.023487
0.0039985     0.01829    0.024137    0.058891     0.24468    0.070259    0.033881
0.0059473     0.01894    0.015042    0.026085     0.23136    0.083901    0.050121
0.0049729    0.022837    0.010819  -0.0047713     0.21837     0.11833    0.067986
0.0075714    0.030957   0.0095202   -0.027508     0.20311     0.15666    0.081303
0.016666    0.036804   0.0091954   -0.037252     0.18297     0.18069     0.08585
0.027709    0.039078   0.0072465   -0.034004     0.15633     0.17842    0.078704
0.032257    0.037129   0.0049729   -0.023285      0.1245     0.15146    0.065387
0.031607    0.033881    0.003024   -0.012567    0.097543     0.10989    0.049147
0.030633    0.031607  -0.0021729   -0.010618    0.084876    0.066037    0.030957
0.03453    0.031282  -0.0093186    -0.02361    0.088124    0.035505    0.015042
0.039727    0.027385   -0.017439    -0.04992     0.10339    0.022512   0.0046481
0.042326    0.019914   -0.026209     -0.0824     0.12385    0.021213   0.0010752
0.039727    0.012119   -0.038876    -0.10871     0.14496    0.019914      0.0014
0.031932   0.0046481   -0.055116    -0.12073      0.1625    0.015692   0.0023744
0.021863  -0.0047713   -0.071682    -0.11651     0.17095    0.013418   0.0023744
0.013093   -0.012242   -0.087922    -0.09929     0.16738    0.017965   0.0046481
0.0059473   -0.017764    -0.10091   -0.083375     0.14951    0.026735   0.0085458
0.0023744   -0.020687    -0.11033   -0.081426     0.11801    0.033231   0.0091954
0.0039985   -0.022961    -0.11683   -0.098316    0.078379    0.031282   0.0065969
0.0069217   -0.028157    -0.12268    -0.13015    0.031607     0.01894   0.0020496
0.0056225   -0.035628    -0.13047    -0.16588   -0.014516 -0.00022403  -0.0050961
-0.0021729   -0.042774    -0.13599    -0.19608   -0.055766   -0.023935   -0.014516
-0.011917   -0.045697    -0.13275    -0.21622    -0.09182    -0.04862   -0.021012
-0.018413   -0.047321    -0.11553    -0.22467    -0.12527   -0.072006   -0.025884
-0.01484   -0.045372   -0.084999    -0.22272    -0.16198   -0.085973   -0.027508
-0.0047713   -0.038227   -0.049595    -0.20875    -0.20225   -0.084999   -0.027183
0.0043233   -0.026858   -0.020687    -0.18959    -0.25227   -0.069733   -0.028482
0.0069217   -0.018738  -0.0060706    -0.17042    -0.32633   -0.047321    -0.03173
0.0056225    -0.01484  -0.0073698    -0.15386    -0.42929   -0.023935   -0.034004
0.0049729    -0.01484   -0.019388    -0.13827     -0.5459  -0.0076946   -0.035303
0.0095202   -0.015165   -0.030756     -0.1217    -0.63945  -0.0024977   -0.037252
0.01764   -0.011917   -0.033679    -0.10124    -0.67842  -0.0057458   -0.037252
0.024786  -0.0041217   -0.027833   -0.073955    -0.64757    -0.01549   -0.030756
0.029009   0.0085458   -0.014516     -0.0405    -0.54623   -0.031081   -0.021012
0.028684    0.018615  0.00075039  -0.0028225    -0.39487   -0.051219   -0.013216
0.027709    0.022188     0.01829    0.030957    -0.22207   -0.067459  -0.0080194
0.025761     0.01829     0.03453    0.050771   -0.036927   -0.073306  -0.0015233
0.020888    0.012119    0.044275    0.059865      0.1716   -0.070382   0.0039985
0.015367   0.0075714    0.048822    0.064413     0.41423   -0.061937   0.0043233
0.009845   0.0036737     0.05272    0.066037     0.68025   -0.051219  -0.0011985
0.0085458  0.00010078    0.053044    0.059216     0.92743   -0.044398  -0.0076946
0.011794  -0.0024977    0.048172    0.042326      1.1009   -0.042774   -0.011592
0.013418  -0.0037969    0.039078    0.018615       1.145   -0.044723  -0.0089938
0.0085458  -0.0041217    0.023487  -0.0047713       1.046   -0.050244  -0.0034721
-0.0054209  -0.0044465   0.0049729   -0.023285     0.84005   -0.060313  -0.0021729
-0.022311  -0.0050961   -0.010943   -0.034004     0.60684   -0.070707  -0.0096434
-0.032055  -0.0044465   -0.017764   -0.035628      0.4308   -0.078503   -0.021661
-0.032705 -0.00087364   -0.017114   -0.026533     0.34862    -0.08305   -0.031081
-0.025884   0.0043233   -0.011267  -0.0089938     0.31419   -0.084349   -0.034004
-0.017764   0.0065969  -0.0028225    0.014068     0.19758   -0.086948   -0.029132
-0.012242   0.0075714   0.0059473    0.033881     -0.1636   -0.095068   -0.022636
-0.010293   0.0085458    0.014068    0.046223    -0.85739    -0.10741   -0.020687
-0.013541     0.01017    0.016016    0.050771     -1.7613     -0.1243   -0.025884
-0.019063    0.012443   0.0091954    0.046873     -2.5805    -0.14022    -0.03173
-0.020362    0.011144  -0.0028225    0.039402     -3.0268    -0.15288   -0.029457
-0.015165    0.011794   -0.016789    0.033231     -2.9641    -0.15678    -0.01614
-0.0067202    0.012119   -0.032055    0.032582     -2.4538    -0.15158   0.0033489
0.00075039    0.017316   -0.044398    0.033556     -1.7058    -0.14281    0.023487
0.0056225     0.02641   -0.053817    0.034855    -0.96133    -0.13145     0.03453
0.0075714     0.03518   -0.059014    0.042326    -0.40623    -0.12138    0.035505
0.0033489    0.037778   -0.058365    0.056292    -0.11261    -0.10968    0.031282
-0.0024977    0.033556   -0.050244    0.072533   -0.048945   -0.095068    0.027385
-0.0024977    0.025436   -0.035303    0.089423    -0.13307   -0.076229    0.026085
0.0062721    0.019914   -0.017439     0.10177    -0.28443   -0.054467    0.024786
0.01829    0.016666  0.00042559     0.10859    -0.46535   -0.038551    0.025761
0.030308    0.013093    0.013093     0.11313    -0.65114   -0.027833    0.027385
0.036804   0.0091954    0.017965     0.12125    -0.81354   -0.026209    0.024137
0.035505   0.0039985    0.018615      0.1362     -0.9269   -0.035628    0.014392
0.028034  0.00075039    0.016341     0.15406    -0.98829   -0.059989 -0.00022403
0.016016   0.0023744    0.011794     0.17095      -1.013    -0.10091   -0.019063
0.00075039   0.0049729   0.0049729     0.18069      -1.025    -0.15288   -0.039851
-0.015165   0.0033489  -0.0034721     0.18004     -1.0289    -0.20778   -0.060638
-0.031406  -0.0015233   -0.012242     0.16575    -0.99413     -0.2539   -0.076879
-0.046347  -0.0076946   -0.024585     0.12905    -0.87623    -0.28411   -0.082725
-0.05739   -0.013866   -0.039201    0.062789    -0.64692     -0.2958   -0.079802
-0.064536   -0.019712   -0.056091    -0.02426    -0.32243    -0.28735   -0.073631
-0.069733   -0.022961   -0.060963    -0.10189    0.046873    -0.26104   -0.066485
-0.068758   -0.022961   -0.046996    -0.13859     0.40254    -0.21914   -0.059014
-0.058689   -0.017764   -0.020362    -0.12365     0.69714    -0.16977    -0.04927
-0.042774  -0.0096434   0.0059473   -0.069083     0.90599      -0.123     -0.0405
-0.029132      0.0014    0.021863 -0.00087364      1.0349     -0.0824   -0.036927
-0.018413   0.0091954    0.024137    0.058241      1.1116   -0.042774   -0.038227
-0.010943   0.0088706    0.012768    0.096569      1.1584  -0.0015233   -0.041799
-0.010293   0.0020496  -0.0099683     0.11476       1.186    0.037778   -0.043423
-0.018088  -0.0054209   -0.032055     0.11281      1.1993    0.067661   -0.037577
-0.025884   -0.007045   -0.038876     0.09462      1.2022    0.091372   -0.024585
-0.022961  0.00075039   -0.021337    0.073182       1.183     0.11313  -0.0044465
-0.0076946    0.015042    0.015042    0.059541      1.1217     0.13002     0.01894
0.018615    0.030308    0.057267    0.054344      1.0031     0.14042    0.037454
0.045899    0.039402    0.091372    0.051096     0.84168     0.14432    0.042001
0.064088    0.041351     0.10761     0.04395     0.67538     0.13652     0.03518
0.066037    0.032906     0.10436    0.031282     0.54903     0.11606    0.023162
0.055318    0.014392    0.087149    0.014068     0.47205    0.081952    0.015692
0.040052  -0.0067202    0.064413  -0.0044465     0.41585    0.040377    0.013418
0.026735   -0.021012    0.042975   -0.018738     0.35252 -0.00087364    0.011144
0.020888   -0.023285    0.025436   -0.027833     0.27619   -0.034978   0.0069217
0.023487    -0.01549    0.014717   -0.033354     0.19953    -0.05739  -0.0015233
0.025436  -0.0047713    0.011144   -0.039851     0.14951   -0.065835   -0.015815
0.020239   0.0026992    0.009845   -0.039526     0.14172   -0.054142   -0.034329
0.0056225   0.0036737    0.008221   -0.031081     0.17322   -0.019388   -0.047971
-0.018413  -0.0021729   0.0049729   -0.015165     0.23039    0.038753   -0.053168
-0.043423   -0.010618   0.0010752   0.0062721     0.29633     0.10371   -0.047646
-0.064211   -0.019063  -0.0015233    0.026085     0.35122     0.15049   -0.032705
-0.076554   -0.027183  -0.0060706    0.033556     0.37493     0.15926    -0.01549
-0.083375    -0.03173    -0.01614    0.028034     0.36616     0.12418  -0.0031473
-0.084024   -0.031081   -0.030106    0.019589     0.34277    0.063763  -0.0011985
-0.077203   -0.026209   -0.047646    0.015367     0.33075  0.00042559  -0.0063954
-0.068758   -0.019712   -0.061288    0.017316     0.34537   -0.048945   -0.013216
-0.061937   -0.012567   -0.068109    0.024786     0.38207   -0.076554   -0.015815
-0.057065  -0.0050961   -0.067459    0.033881     0.41715   -0.084674   -0.012567
-0.053168  -0.0018481   -0.063561    0.042326     0.42495     -0.0824  -0.0041217
-0.047321  -0.0015233    -0.05804    0.048497     0.39409   -0.076879   0.0078962
-0.039851  -0.0050961   -0.050569    0.055643      0.3457   -0.072981     0.01764
-0.030106  -0.0067202   -0.038227    0.062464     0.29535    -0.07428    0.020239
-0.019712   -0.008669   -0.020362    0.069285     0.21447   -0.082076    0.014717
-0.011592  -0.0099683 -0.00087364    0.074482    0.080653   -0.097991   0.0023744
-0.010618   -0.011917    0.014392    0.074157   -0.069408    -0.12105   -0.014191
-0.020687   -0.014516    0.024137    0.066686    -0.16328    -0.14281   -0.034329
-0.037902   -0.018413    0.029658     0.05142    -0.16523    -0.15256   -0.052193
-0.054467   -0.021661    0.038428    0.033881    -0.09117    -0.14476   -0.056091
-0.063237   -0.022636    0.048497    0.017965    0.015692    -0.11488   -0.042449
-0.060963   -0.020362    0.056292   0.0091954     0.11313   -0.064211    -0.01484
-0.048945    -0.01549    0.059541   0.0043233      0.1742 -0.00087364    0.017965
-0.030756   -0.010293     0.06084   0.0059473     0.19271     0.06084    0.048822
-0.010618   -0.007045    0.059541    0.016666     0.17095     0.11476    0.076106
0.011144  -0.0054209    0.055643    0.032582     0.11443     0.16121     0.10339
0.029333  -0.0054209    0.052395    0.047523    0.039078     0.20668     0.13197
0.043625  -0.0037969    0.050121    0.054019   -0.038876     0.25118     0.15698
0.050446   0.0017248    0.048822     0.05272    -0.11261     0.28496     0.17257
0.048822   0.0095202    0.041027    0.041351    -0.18634     0.29957      0.1742
0.042001    0.016666    0.021538    0.021538    -0.26527      0.2986     0.15861
0.03583     0.01764  -0.0018481  -0.0015233    -0.35329     0.29633     0.13002
0.031282    0.008221   -0.018413    -0.02426    -0.45008     0.30282    0.098193
0.029009  -0.0073698   -0.020687   -0.038876    -0.53063     0.32069    0.074482
0.028034   -0.021661   -0.008669   -0.038227    -0.56409      0.3431    0.061814
0.026735   -0.030431   0.0095202   -0.021986    -0.52739     0.35836    0.054344
0.025111   -0.032705    0.024137   0.0026992    -0.42117     0.35641    0.046873
0.023812    -0.03173    0.027709    0.024461    -0.27209     0.32816    0.038753
0.023812   -0.029132     0.01894    0.037454    -0.11293     0.27424    0.029333
0.020564   -0.027833   0.0075714    0.041676    0.021863     0.20505    0.016991
0.012768    -0.03303  -0.0015233    0.041676    0.075781     0.13002  -0.0015233
0.0036737   -0.042774  -0.0089938      0.0433   0.0046481     0.05272   -0.023935
-0.0037969   -0.052518   -0.020362    0.047198     -0.1688   -0.025234   -0.043099
-0.0073698   -0.057715   -0.031081    0.053694    -0.37343    -0.09929   -0.051544
-0.0080194   -0.059339   -0.038227    0.059216    -0.52284    -0.15646    -0.04927
-0.0060706   -0.055766   -0.040825    0.060515    -0.56766    -0.18829   -0.039201
-0.0011985    -0.04927     -0.0405    0.055643    -0.51082    -0.19283    -0.02361
0.0069217   -0.042449   -0.039526      0.0433    -0.40006    -0.17789  -0.0083442
0.014717   -0.034654    -0.04115    0.020239    -0.28963     -0.1636  0.00075039
0.019264   -0.027183   -0.045697  -0.0096434     -0.2159    -0.16718      0.0014
0.016016   -0.021986   -0.050894   -0.046671    -0.18147    -0.19738  -0.0034721
0.0088706   -0.020687   -0.057715   -0.092145    -0.16588    -0.24643   -0.013216
-0.00087364   -0.021661   -0.063561    -0.14152    -0.14216     -0.2945   -0.026533
-0.011267   -0.021661   -0.067134    -0.18536   -0.090521    -0.32081   -0.039526
-0.018738   -0.020362   -0.066485    -0.21167   0.0056225    -0.31594   -0.046671
-0.02361   -0.016464   -0.059989    -0.21557     0.14951    -0.28476   -0.046671
-0.026858   -0.010618   -0.050569    -0.20096      0.3353    -0.24026   -0.042774
-0.027508  -0.0044465   -0.038227    -0.17919     0.54318    -0.19251   -0.039851
-0.022636   0.0010752   -0.027508    -0.15841     0.74196    -0.14964   -0.039851
-0.012242   0.0062721   -0.022311    -0.14411     0.89137    -0.11131   -0.044398
0.0017248    0.011469   -0.023935    -0.13957     0.95471   -0.075904   -0.055441
0.013743    0.014392    -0.03173    -0.14216     0.91963   -0.047321   -0.069408
0.021538    0.016341   -0.042774    -0.14606      0.8027   -0.026533   -0.078178
0.024137    0.021538   -0.054792    -0.14639     0.64517   -0.017114   -0.080451
0.02641    0.029333    -0.06616    -0.14022     0.48764   -0.021012   -0.078503
0.027385    0.034855   -0.073955     -0.1295     0.35771    -0.03303   -0.072006
0.025761    0.039078   -0.080776     -0.1204     0.26255   -0.040825   -0.063561
0.016991    0.040052   -0.089546    -0.11521     0.19856   -0.034654   -0.051544
-0.00054884    0.038428    -0.09929    -0.11358     0.15244   -0.012242   -0.036278
-0.019388    0.034855    -0.10481    -0.11293    0.094295     0.01764   -0.021337
-0.030756    0.032906    -0.10091    -0.10059   -0.028807    0.042326   -0.012567
-0.034654    0.032257   -0.088247   -0.070707    -0.27566    0.045574   -0.011267
-0.03238    0.029009   -0.071357   -0.028482     -0.6807    0.016991   -0.014191
-0.025234    0.020239   -0.058689    0.013418      -1.216   -0.040175   -0.017439
-0.018413   0.0088706   -0.054467      0.0433     -1.7643    -0.11261    -0.02361
-0.01549   0.0020496   -0.053817    0.056292     -2.1761    -0.17984   -0.033679
-0.013216 -0.00022403   -0.054792    0.057592     -2.3398    -0.22499   -0.042449
-0.010943   0.0010752   -0.059664    0.055643     -2.2154    -0.23896   -0.046347
-0.007045      0.0014    -0.06681    0.054344      -1.836    -0.22174   -0.043748
-0.0015233 -0.00022403   -0.073955    0.056617     -1.2991    -0.18179   -0.038227
0.0069217  -0.0024977   -0.080776    0.066686    -0.72909    -0.12787    -0.03303
0.016666  -0.0031473     -0.0837    0.080653    -0.22044   -0.064211   -0.029457
0.022188  -0.0041217   -0.078503    0.089423     0.17777   0.0033489   -0.028807
0.021213  -0.0034721   -0.067784    0.083251     0.46782     0.06896   -0.028807
0.01829 -0.00087364   -0.047646    0.065712     0.69129     0.12223    -0.02426
0.01764   0.0072465   -0.021661    0.050771     0.90534     0.16023   -0.017114
0.022512     0.01829   0.0046481    0.050121      1.1463     0.18622  -0.0076946
0.023812    0.031607    0.024137     0.06831      1.3968     0.20765   0.0046481
0.01829    0.041676    0.034206    0.098193      1.5472     0.22454    0.019589
0.0075714    0.043625    0.029009      0.1232      1.4127     0.22617    0.032257
-0.0034721    0.038428    0.012768      0.1284     0.83421     0.20018    0.035505
-0.011267     0.02706  -0.0073698     0.11573    -0.14541     0.14302    0.029983
-0.019388    0.014068   -0.025559    0.091047      -1.228    0.069285    0.019914
-0.022961   0.0056225   -0.034978    0.061489     -2.0985  -0.0028225    0.012768
-0.023935  0.00075039   -0.032705     0.03518     -2.5798   -0.055441    0.012443
-0.021986 -0.00022403   -0.020687    0.014717     -2.6344   -0.081101    0.019264
-0.019063   0.0046481  -0.0031473   0.0020496     -2.3512   -0.085648    0.030957
-0.01614    0.012119    0.011794   -0.015165     -1.8799     -0.0824    0.039727
-0.013541    0.017316    0.022188   -0.044073     -1.3595    -0.09117    0.039402
-0.013216    0.021213    0.025761   -0.077203    -0.86941    -0.11813    0.029333
-0.016464    0.020564    0.025436    -0.10026     -0.4228    -0.16165    0.014068
-0.020037    0.019589     0.02641    -0.10059  -0.0083442    -0.20745  -0.0050961
-0.022636     0.01829    0.032582   -0.079802     0.36518    -0.24383   -0.020362
-0.023285     0.01829     0.04395   -0.048296     0.66985     -0.2591   -0.030756
-0.020362    0.017965    0.056617   -0.025884     0.88033    -0.25098    -0.03238
-0.01549    0.016991    0.065712   -0.021012     0.98622    -0.22109   -0.025884
-0.010293    0.015367    0.070584    -0.03238     0.99629    -0.17465    -0.01549
-0.007045    0.010495    0.072858   -0.046347     0.94139    -0.11521  -0.0054209
-0.0073698   0.0010752    0.072858    -0.04992     0.85629    -0.04927   0.0023744
-0.0076946  -0.0089938    0.072858   -0.039201     0.77119    0.012768   0.0059473
-0.007045   -0.013216    0.072533   -0.018088      0.6835    0.063438   0.0056225
-0.0050961   -0.013541    0.071234   0.0065969     0.58021    0.092996   0.0052977
0.0026992  -0.0089938    0.067336    0.027709     0.47172     0.10436   0.0085458
0.009845  -0.0031473    0.059865    0.043625     0.39637     0.10436    0.013743
0.012443    0.003024    0.049472    0.050771     0.38565     0.10144     0.01764
0.0088706   0.0069217     0.03518    0.046873     0.44671    0.098193    0.016341
0.003024   0.0033489    0.016666    0.029983      0.5552    0.092996    0.008221
-0.0034721  -0.0050961  -0.0031473   0.0052977     0.66888    0.081627  -0.0044465
-0.012892    -0.01484   -0.017114   -0.017439     0.75268    0.063763   -0.014191
-0.018738   -0.023285   -0.022636   -0.031081      0.7962    0.043625   -0.020687
-0.019712   -0.027508   -0.018088   -0.036278     0.81277    0.031607   -0.024909
-0.018413   -0.026533  -0.0093186   -0.039851     0.81829    0.028684   -0.025884
-0.016789   -0.021661 -0.00087364   -0.042774     0.81927     0.03453   -0.021012
-0.018413    -0.01484   0.0059473   -0.042449     0.80432    0.045899   -0.011917
-0.021661  -0.0067202    0.013093   -0.033354     0.76112    0.059541  -0.0018481
-0.026209   0.0017248    0.023487   -0.012892     0.68642    0.067336   0.0072465
-0.030431    0.012119     0.03583    0.016666     0.58183    0.067661    0.011794
-0.033354    0.022512    0.045899    0.049796     0.46165    0.063113    0.011794
-0.034004    0.031607     0.05207    0.080328      0.3431    0.067661   0.0069217
-0.033354    0.037129    0.055643     0.10599     0.23526    0.091047   0.0023744
-0.028482    0.037129    0.054344     0.12548     0.13035     0.13067   0.0010752
-0.020687    0.034206    0.048822     0.14042    0.022837     0.17257    0.003024
-0.012892    0.030633    0.042975     0.14626   -0.086623     0.19791   0.0049729
-0.010293    0.031607    0.037454     0.13749    -0.18601     0.19661   0.0049729
-0.012567    0.033231    0.036479     0.11216    -0.26332     0.17225 -0.00087364
-0.015165    0.033556    0.042326    0.077405    -0.29775     0.13392   -0.012242
-0.017114    0.032906    0.050121    0.044599    -0.27241    0.099492   -0.024585
-0.015815    0.030957    0.054668    0.026735    -0.17887    0.079029    -0.03303
-0.0067202    0.029009    0.054993    0.023812   -0.044398    0.075456   -0.034329
0.011144    0.029658    0.054019    0.031282    0.087474    0.082602    -0.03238
0.029983    0.032582     0.05207    0.040052     0.18719    0.091047    -0.03238
0.042975     0.03518    0.048822    0.047847     0.24858    0.095919   -0.034978
0.049796     0.03518    0.045574     0.05207     0.28756    0.093321   -0.034329
0.054344    0.029333    0.046873    0.055318     0.32523    0.084551   -0.026858
0.062139    0.020888    0.053369    0.061165     0.36811    0.065712   -0.015815
0.071883    0.017316    0.063763    0.066686     0.41423    0.037778  -0.0057458
0.072533    0.019914    0.071558    0.070584     0.45223 -0.00054884  0.00010078
0.058241    0.024461    0.072533    0.073832      0.4727   -0.046347      0.0014
0.033231     0.02641    0.062139    0.080653     0.47237   -0.096042 -0.00054884
0.008221    0.025111    0.042651    0.090722     0.45646    -0.14671   0.0017248
-0.012242    0.019264    0.020239    0.098193     0.43145    -0.19901    0.010819
-0.026858    0.015042  -0.0018481     0.10209     0.40124    -0.26007    0.023812
-0.034978    0.016341   -0.021012     0.10469     0.37103    -0.32893    0.035505
-0.036927    0.024786   -0.032055     0.10144     0.33465    -0.39097    0.041351
-0.034329    0.032582   -0.029457     0.09397     0.27261    -0.43936    0.041676
-0.029132    0.030957   -0.018088    0.084551     0.16023    -0.47152    0.041676
-0.02426    0.016991  -0.0024977    0.073507   -0.014191    -0.48776    0.042326
-0.01614  -0.0041217   0.0078962    0.061814    -0.24643    -0.48256    0.043625
-0.0015233    -0.02361    0.011469    0.049796    -0.52706    -0.45463    0.044275
0.021538   -0.034329    0.009845     0.03453    -0.84602    -0.41533    0.044599
0.045249   -0.036927   0.0043233    0.016016     -1.1822    -0.37213    0.046873
0.063438   -0.034654   -0.007045  -0.0037969     -1.4856    -0.33348    0.049796
0.071883   -0.028807   -0.021337   -0.023935     -1.6853    -0.30652    0.048822
0.071558   -0.021661   -0.038227   -0.042774     -1.7191    -0.28833    0.036804
0.067011    -0.01549   -0.054792   -0.055766     -1.5726    -0.27436    0.014068
0.057592   -0.011592   -0.068109   -0.060638     -1.2952    -0.25877   -0.011917
0.039402   -0.010618   -0.073631   -0.061613    -0.97075    -0.23766   -0.030756
0.014068   -0.010293   -0.070707   -0.060963    -0.66608    -0.21102   -0.036278
-0.01484   -0.012567   -0.064536   -0.056416     -0.4202    -0.17432   -0.031081
-0.043423   -0.018413   -0.063237   -0.052843    -0.23961    -0.12625    -0.02426
-0.067784   -0.028157   -0.066485   -0.050894    -0.11033   -0.073955   -0.021337
-0.08305   -0.038227    -0.07493    -0.04992   -0.037252   -0.024585   -0.020037
-0.082725   -0.047321   -0.084999   -0.050894   -0.037902    0.015042   -0.019388
-0.070707   -0.056416    -0.09182   -0.047971    -0.12073    0.046223   -0.020362
-0.054792   -0.062912   -0.089871   -0.042124    -0.26137    0.073507   -0.023285
-0.037252   -0.065835   -0.080776   -0.037252    -0.41338    0.099817   -0.029457
-0.02361   -0.064861   -0.071032   -0.039526    -0.54428     0.12288   -0.038876
-0.01484   -0.060638   -0.067784   -0.048945    -0.61411     0.13749   -0.050894
-0.012567   -0.053492   -0.071032   -0.060313    -0.60242     0.14107   -0.064536
-0.018413   -0.045047   -0.080127   -0.070058    -0.51602     0.13684    -0.07428
-0.038227   -0.037252   -0.088572   -0.080127    -0.38967     0.13457   -0.076879
-0.068434   -0.034329   -0.092469   -0.091495    -0.26364     0.14042    -0.07428
-0.10026   -0.036278   -0.089221    -0.09994    -0.16718     0.15731   -0.065835
-0.12365   -0.040825   -0.081101    -0.10254    -0.10644     0.18654   -0.052193
-0.13242   -0.045372   -0.069733   -0.098641   -0.067134     0.22259   -0.034329
-0.12592   -0.046996   -0.057715   -0.089221   -0.028807     0.26125   -0.012242
-0.10903   -0.046671   -0.046671   -0.073955    0.019264     0.29957    0.010819
-0.089221   -0.046347   -0.035953   -0.054467    0.079679     0.33985    0.028684
-0.071357   -0.046022   -0.025884   -0.034654     0.14107      0.3772    0.040702
-0.054792   -0.042124   -0.016464   -0.019063     0.19174     0.40708    0.048497
-0.04115   -0.035303   -0.010618   -0.012892     0.22844     0.42722    0.054019
-0.03303   -0.029132  -0.0067202   -0.014191      0.2502     0.42592    0.055968
-0.03173   -0.024909  -0.0044465   -0.017764     0.25248     0.40026    0.057592
-0.034978   -0.021986  -0.0041217   -0.021986     0.23786     0.35674    0.056617
-0.034654   -0.022311  -0.0034721   -0.034654     0.21545     0.30574    0.047523
-0.029457   -0.028157 -0.00054884   -0.068758     0.19758     0.25507    0.032582
-0.021337   -0.040825  0.00042559    -0.13632     0.19174     0.20928    0.020888
-0.014191   -0.055116  -0.0054209    -0.22629     0.20148     0.17322    0.014717
-0.010293   -0.067459   -0.019063    -0.31139     0.22844     0.14919    0.013743
-0.011917   -0.072981   -0.038551    -0.36044     0.27164     0.13165    0.016991
-0.013216   -0.069733   -0.058365    -0.36271     0.32881     0.11346    0.021538
-0.010293   -0.061288   -0.068434    -0.32633     0.39637    0.089748    0.023487
-0.0060706   -0.050244   -0.064211    -0.27111     0.47562    0.060515     0.01829
-0.0018481   -0.042124   -0.048296    -0.21525     0.55909     0.03518   0.0046481
0.0039985   -0.033679   -0.025234     -0.1649      0.6312    0.021213  -0.0096434
0.015367    -0.02426  -0.0028225    -0.11521      0.6783    0.019264   -0.017764
0.030633   -0.013866    0.013093   -0.059989     0.68122    0.029333   -0.013866
0.043625  -0.0031473    0.024461 -0.00022403     0.60847     0.05272  -0.0018481
0.047847   0.0072465     0.03518    0.056942     0.45353    0.078704    0.015042
0.04395    0.014392    0.045899     0.10144      0.2463     0.09397    0.027385
0.03453    0.018615    0.054993     0.13132    0.042651    0.088773    0.029009
0.022512    0.020888    0.062789     0.15211    -0.10806    0.063763    0.022512
0.011469    0.023812    0.066362     0.16803    -0.17692    0.026085    0.012119
0.0069217    0.027385    0.065712     0.18069    -0.17042   -0.018088   0.0023744
0.011469    0.030957    0.059865     0.19076    -0.11521   -0.059989  -0.0089938
0.024137    0.033881    0.050446     0.19596   -0.041799   -0.091495   -0.022636
0.040052    0.033231    0.039078     0.19434    0.020888    -0.10871   -0.036278
0.050771    0.030957    0.029658     0.18427    0.056292    -0.11131   -0.046022
0.05272    0.029333    0.022188     0.16121    0.057267    -0.10709   -0.051544
0.046223    0.027709    0.018615     0.12483    0.031607    -0.10059   -0.052193
0.035505     0.02641    0.016666    0.084876  -0.0031473   -0.092794    -0.04927
0.025111    0.024461   0.0085458    0.052395    -0.03173   -0.086298   -0.046022
0.01894    0.020564  -0.0054209    0.032582   -0.046347   -0.084674   -0.046022
0.016991    0.014392   -0.019063    0.027385   -0.045047   -0.088572    -0.04992
0.01894    0.014717   -0.031406    0.034855   -0.028157   -0.093444   -0.054792
0.024786    0.022837   -0.039526    0.049796  0.00042559   -0.094418    -0.05804
0.030633    0.034206   -0.045697    0.067011    0.037454   -0.089871   -0.056741
0.033231    0.042326    -0.04927    0.083901    0.081952   -0.079802    -0.04862
0.031282    0.046873    -0.04927     0.09462       0.131   -0.070382   -0.035303
0.027385    0.045899   -0.050244    0.096893     0.18004    -0.06551   -0.021337
0.023162    0.042975   -0.054792    0.087474     0.22877   -0.061288  -0.0073698
0.022837    0.039402   -0.064211    0.066686     0.27586   -0.051219   0.0095202
0.027385    0.035505   -0.075904     0.03583     0.30217   -0.031081    0.028034
0.036804    0.029983   -0.086623 -0.00022403     0.30055  -0.0047713    0.043625
0.042975    0.020239   -0.096692   -0.033679     0.28008     0.01829    0.050446
0.040052    0.008221    -0.10221   -0.059339     0.24306    0.026735    0.041676
0.027709  -0.0063954   -0.098965   -0.075579     0.18849    0.011469    0.020888
0.012768   -0.021012   -0.088247   -0.084024      0.1271   -0.021012  -0.0060706
0.00010078   -0.030756   -0.072656     -0.0824    0.073832   -0.055116   -0.029132
-0.0050961   -0.031406   -0.055766   -0.072006    0.042975   -0.077528   -0.042124
-0.0011985   -0.023935   -0.039851   -0.055116    0.033556   -0.083375   -0.041799
0.0085458   -0.013541   -0.026858   -0.034978    0.039727   -0.076229   -0.027833
0.018615  -0.0037969   -0.017764   -0.013541    0.047198   -0.058365   -0.010943
0.027385   0.0039985   -0.010943    0.009845    0.040052   -0.037577      0.0014
0.030957    0.009845  -0.0041217    0.033881   0.0049729   -0.022311   0.0072465
0.028359    0.016341   0.0049729    0.058241   -0.068758   -0.021661     0.01017
0.019589    0.022512    0.015692    0.078379    -0.18277   -0.035303    0.014068
0.0091954    0.024786    0.024461    0.094945    -0.31464   -0.057715    0.019589
0.00010078    0.022512    0.028359     0.10956    -0.42182   -0.078503    0.025111
-0.0031473    0.019914    0.028034     0.12223    -0.46697   -0.097991    0.031282
0.00010078    0.022837    0.028034     0.13035    -0.44586    -0.11813    0.038103
0.0052977    0.031282    0.029009     0.12613    -0.38545    -0.13567    0.046548
0.0075714    0.041027    0.032582     0.10989    -0.31691    -0.14704     0.05142
0.0039985    0.049147    0.041027    0.091696    -0.24188    -0.14639    0.048822
-0.0024977     0.05272    0.055318    0.080328    -0.14574    -0.13534    0.040052
-0.0047713    0.049796    0.071234    0.075456   -0.028482    -0.12592    0.027709
-0.0041217      0.0433    0.080978    0.072208    0.084876    -0.12527    0.016016
-0.0028225     0.03518    0.084551    0.070909      0.1781     -0.1321    0.010819
-0.0096434     0.02706      0.0852    0.075456     0.24923    -0.13989   0.0091954
-0.022311    0.017316    0.081627    0.080653     0.31094    -0.14639   0.0036737
-0.029132    0.008221    0.075131    0.082927     0.37558    -0.14736  -0.0063954
-0.019388  0.00075039    0.067986    0.079679     0.44184    -0.14379   -0.016464
0.0052977  -0.0021729    0.059216    0.076431     0.48764    -0.13794   -0.020362
0.036479  -0.0011985     0.04395    0.071234     0.48894    -0.13145   -0.019063
0.067661   0.0069217    0.022837     0.06084     0.43209    -0.12787    -0.01484
0.092021    0.016991  -0.0031473    0.047847     0.31711    -0.13047   -0.011917
0.10144    0.025111    -0.03238    0.035505     0.15698    -0.14022   -0.013866
0.096893    0.029009   -0.061613    0.020564   -0.014516    -0.16003   -0.023935
0.075131    0.028034   -0.085973  -0.0083442    -0.16165    -0.18699   -0.039851
0.03518    0.024137    -0.10774   -0.059339    -0.31301     -0.2146   -0.058689
-0.016464    0.017965    -0.12268    -0.12495    -0.58325    -0.24286   -0.076554
-0.069733   0.0085458    -0.13307    -0.18407     -1.0312    -0.26722   -0.089221
-0.11488  -0.0044465    -0.13729    -0.22986     -1.5629    -0.28053   -0.092469
-0.14509   -0.019063    -0.13762    -0.27923      -2.003    -0.27501   -0.081751
-0.15808   -0.036278    -0.13697    -0.35232      -2.207    -0.24805   -0.058689
-0.15808   -0.051219     -0.1269    -0.43287     -2.1284     -0.2068    -0.03238
-0.14769   -0.061937    -0.09994     -0.4595     -1.8224     -0.1636   -0.018738
-0.12722    -0.06551   -0.057715    -0.37765     -1.3959     -0.1256   -0.017764
-0.095068   -0.061288   -0.008669    -0.19251    -0.95223   -0.093444   -0.022636
-0.054792   -0.047971    0.034855    0.033556    -0.56247   -0.064211   -0.025559
-0.01484   -0.030431    0.062789     0.23169    -0.26234   -0.038876   -0.022961
0.01764   -0.013866    0.072858     0.35284   -0.055116   -0.020687   -0.014516
0.037454  -0.0021729    0.065062      0.3824    0.080978   -0.011917  -0.0031473
0.041351   0.0065969    0.042975      0.3366      0.1638   -0.012242    0.011144
0.030633    0.012119    0.013743     0.24598     0.20993    -0.01614    0.019914
0.012768    0.016016   -0.013216     0.14821     0.22779   -0.021661    0.020564
-0.0063954    0.019589   -0.031081    0.063763     0.22292    -0.03173    0.010819
-0.02361    0.021213   -0.037577  -0.0050961     0.20408    -0.04992  -0.0093186
-0.033679    0.020888   -0.034654   -0.060963     0.19109   -0.068109   -0.029457
-0.035628    0.018615   -0.027833    -0.10481     0.19304   -0.079152   -0.043423
-0.029782    0.014392   -0.019712     -0.1334     0.20928    -0.07493   -0.044073
-0.017764    0.012119   -0.010618    -0.14444     0.23461   -0.052193   -0.027508
-0.0057458    0.011469  -0.0031473    -0.13729     0.27586   -0.010293   0.0091954
-0.0011985    0.012119    0.003024     -0.1178      0.3418    0.041351    0.059216
-0.0044465    0.014717   0.0056225   -0.093119     0.42885    0.089748     0.10891
-0.013541    0.016991   0.0039985   -0.069408     0.52044     0.11736     0.14626
-0.022636    0.013093 -0.00087364   -0.052518      0.5906     0.11606      0.1625
-0.029782   0.0052977  -0.0031473   -0.041475     0.62113    0.087474     0.15373
-0.034329  -0.0021729  -0.0015233    -0.03303      0.6299    0.047847     0.12158
-0.036927   -0.007045   0.0043233   -0.022311     0.64322    0.014717    0.075456
-0.035628  -0.0083442     0.01017   -0.008669     0.67895  -0.0037969    0.032257
-0.029782  -0.0080194    0.012119   0.0043233     0.74326  -0.0067202  0.00010078
-0.021986  -0.0076946    0.013743    0.013418     0.82739   0.0017248   -0.017439
-0.01549  -0.0073698    0.019589    0.022512     0.91281    0.015367    -0.02426
-0.010943  -0.0057458    0.032257    0.033881     0.97745    0.029333    -0.02361
-0.010293 -0.00087364    0.047523    0.045899     0.99694    0.042651   -0.020037
-0.01484   0.0059473    0.060515    0.054344     0.95601     0.05272   -0.020687
-0.024585    0.011794    0.067986    0.055643     0.85207    0.059865   -0.023935
-0.030431    0.016341    0.073182    0.048172     0.68999    0.072208   -0.025559
-0.030756    0.018615    0.076106    0.030308     0.48731    0.096893   -0.020687
-0.026209     0.01894    0.071883   0.0078962      0.2502     0.13262  -0.0076946
-0.019063    0.019914    0.058891   -0.012242   -0.035953     0.16705    0.009845
-0.011592    0.021863    0.038428   -0.026209    -0.36401     0.18394    0.023812
-0.0057458    0.019264    0.017316   -0.030431    -0.68232     0.17452    0.029009
-0.0054209    0.012768  0.00075039   -0.025234    -0.90968     0.14367    0.023162
-0.010618   0.0010752  -0.0099683   -0.012242    -0.98049     0.10306    0.012119
-0.021337   -0.011267   -0.017114   0.0046481    -0.88273    0.065062   0.0010752
-0.03303   -0.021986   -0.018088    0.023162    -0.65536    0.038103  -0.0076946
-0.038227   -0.028807   -0.011592    0.041676    -0.36921    0.029009   -0.015165
-0.038227   -0.031406 -0.00087364    0.058891   -0.098965     0.03518   -0.021012
-0.034329   -0.029782   0.0072465    0.074806    0.098193    0.047523   -0.028482
-0.034004   -0.025884   0.0078962      0.0852     0.19304    0.057267   -0.037902
-0.035628   -0.021986  0.00075039    0.080328     0.17485    0.058241   -0.045372
-0.036602   -0.018413  -0.0093186    0.054668    0.043625    0.046548    -0.04862
-0.034329    -0.01614   -0.018413   0.0075714    -0.19836    0.024137   -0.048296
-0.028157   -0.014516   -0.023935   -0.058365    -0.53258  -0.0018481   -0.046347
-0.020037   -0.013866   -0.023935    -0.13502    -0.90092   -0.020037   -0.043423
-0.0093186    -0.01484   -0.019388    -0.20908     -1.2098   -0.021012   -0.042449
0.00010078   -0.020362   -0.013216    -0.26787     -1.3735  -0.0057458   -0.042449
0.0043233   -0.029457   -0.010293    -0.31236      -1.355    0.014717    -0.04115
0.0049729   -0.039201   -0.012892    -0.35102     -1.1799    0.030633   -0.036602
0.0052977   -0.044073   -0.021337    -0.38545    -0.91423    0.037778   -0.030431
0.01017   -0.041475   -0.031081    -0.39064     -0.6297    0.037129    -0.02361
0.022512    -0.03238   -0.036278    -0.32178    -0.37408     0.03583    -0.01614
0.040052   -0.018738   -0.027183    -0.14996    -0.16847    0.040052  -0.0096434
0.059865  -0.0054209  -0.0076946     0.11378   -0.017114    0.048822  -0.0050961
0.075456    0.003024    0.011469     0.41585    0.087799    0.057917  -0.0015233
0.081952   0.0075714    0.024786     0.68609     0.16283    0.065712  -0.0011985
0.075781    0.012768    0.029333     0.86604     0.22227    0.073182  -0.0024977
0.061489    0.016341    0.023812     0.92645     0.26839    0.080003  -0.0044465
0.047523    0.016341   0.0078962     0.87773     0.30347    0.083901  -0.0018481
0.037778    0.013418   -0.014516     0.76048       0.334    0.081952   0.0043233
0.034206   0.0091954   -0.036278     0.61399     0.36291    0.071883    0.009845
0.032906   0.0026992   -0.050244     0.46295     0.39734    0.055318    0.012768
0.033556  -0.0093186   -0.057065     0.32361     0.43989    0.037454    0.013093
0.030957   -0.025234   -0.061288     0.20408     0.48796    0.016991   0.0091954
0.022188   -0.038227   -0.064211     0.11054     0.54935  -0.0041217   0.0020496
0.008221   -0.046671   -0.069408      0.0433      0.6299   -0.024909  -0.0080194
-0.0057458   -0.052518   -0.074605   0.0020496     0.72572   -0.042774   -0.015165
-0.013866   -0.058689   -0.078178   -0.014191     0.81991   -0.057715   -0.017764
-0.016464   -0.064536   -0.075255   -0.012242     0.88293   -0.068434    -0.01549
-0.013541    -0.06681   -0.062587  -0.0083442     0.89982   -0.074605   -0.012567
-0.0041217   -0.060638   -0.038551   -0.014191     0.87123   -0.076554   -0.013541
0.008221   -0.043423  -0.0034721   -0.025234     0.80465   -0.071682   -0.017114
0.024461   -0.019712    0.039078   -0.036927     0.69584   -0.055766   -0.018738
0.03453    0.003024    0.076755   -0.050569     0.54026   -0.032055   -0.018738
0.026735    0.016666    0.098517   -0.068758     0.34667   -0.007045   -0.019388
-0.0011985    0.017965     0.10144   -0.090196     0.14724    0.011794   -0.022636
-0.034654     0.01017    0.087799    -0.10741   -0.010293    0.023162   -0.025234
-0.059014  -0.0011985    0.063113    -0.11553   -0.075904     0.02641   -0.028157
-0.067459  -0.0096434     0.03583    -0.11293   -0.011917    0.027385   -0.031081
-0.064861   -0.013866    0.013418    -0.10709     0.17907    0.034855   -0.030431
-0.055441    -0.01484  -0.0015233    -0.10221     0.43729    0.059216   -0.018088
-0.042124   -0.014516   -0.008669    -0.10189     0.67765     0.10371    0.012768
-0.019063   -0.017114  -0.0073698    -0.10644     0.83551     0.16965    0.056617
0.010495   -0.019712  -0.0015233    -0.11326      0.8878     0.25118     0.10144
0.0433   -0.020687   0.0052977    -0.12073      0.8446       0.334     0.13197
0.074157   -0.016789     0.01017    -0.12722     0.73579     0.40611     0.13814
0.092671  -0.0083442    0.011469     -0.1334      0.5932     0.45191     0.12158
0.091047   0.0046481   0.0088706    -0.13599     0.44801     0.45613    0.089748
0.06831    0.019264   0.0069217    -0.13697     0.32458     0.41196     0.05272
0.025761    0.031282   0.0026992    -0.13989     0.23234     0.31289    0.016016
-0.030431    0.041676   0.0020496    -0.14249     0.16933     0.16705   -0.019063
-0.088572    0.053694   0.0078962    -0.14574     0.13749  -0.0037969   -0.049595
-0.13437    0.067011     0.01829    -0.14736     0.13879    -0.17627   -0.077528
-0.1597    0.080328    0.025436    -0.14899     0.16315    -0.32828   -0.097991
-0.16458    0.089098    0.020888    -0.15126     0.17745    -0.44716    -0.10741
-0.15256    0.089098   0.0052977    -0.15548     0.11151    -0.53031    -0.10221
-0.12787    0.079354   -0.017114    -0.16198    -0.10611    -0.58098   -0.078178
-0.096692    0.060515   -0.042124    -0.17205    -0.46437    -0.60437   -0.043099
-0.067459    0.037129   -0.062587    -0.18342    -0.86486    -0.60729  -0.0067202
-0.045047    0.016016   -0.076879    -0.18829     -1.1822    -0.59592    0.017316
-0.03173   0.0017248   -0.084999    -0.18212     -1.3241    -0.57253    0.024786
-0.026858  -0.0060706   -0.086948    -0.17172     -1.2689    -0.54135    0.019264
-0.027508  -0.0093186   -0.085648    -0.16653     -1.0532    -0.49718   0.0056225
-0.029782   -0.010618   -0.079802    -0.16847    -0.74988    -0.44196   -0.007045
-0.029132   -0.010293   -0.071032    -0.17692    -0.44456    -0.38122  -0.0099683
-0.018738   -0.010943   -0.063237    -0.18959    -0.20648    -0.32666 -0.00087364
0.0026992   -0.013216   -0.057715    -0.21005   -0.067784    -0.28118    0.015367
0.030957   -0.020037   -0.056091    -0.23798    -0.02426    -0.24156    0.028034
0.06084   -0.026533   -0.059989    -0.26332    -0.04115    -0.19738    0.031607
0.084551   -0.027183   -0.069408    -0.27631   -0.072006    -0.14411    0.026735
0.094295   -0.019063   -0.081426    -0.27599   -0.072656   -0.078503    0.021863
0.08585  -0.0057458   -0.087597    -0.26754   -0.033679  -0.0041217    0.027709
0.063763    0.008221   -0.083375    -0.24545     0.01829    0.073182    0.042651
0.031932    0.015692   -0.069408    -0.20615    0.049472     0.14691    0.059865
-0.0057458    0.014068   -0.051544    -0.15711    0.054993     0.20993    0.069934
-0.043423   0.0043233   -0.039526    -0.11391    0.056617       0.258     0.06831
-0.069733  -0.0073698   -0.036602   -0.088896    0.075781     0.28821    0.059865
-0.0824   -0.015165   -0.039201     -0.0837     0.11443     0.29957     0.05207
-0.079152   -0.014191   -0.041475   -0.086623     0.16218      0.2947    0.047523
-0.060963  -0.0018481   -0.038551   -0.077203     0.19563     0.28073    0.038753
-0.032055    0.016341   -0.027508     -0.0405      0.1742     0.25735    0.020239
0.0010752    0.036804   -0.010943    0.030957    0.079354     0.22097  -0.0018481
0.029658     0.05272   0.0078962      0.1232   -0.059339      0.1729   -0.020037
0.046873    0.059865    0.021863     0.21512    -0.18666     0.11963   -0.030756
0.049147    0.058891    0.029658     0.28366    -0.24838    0.074157   -0.036602
0.041351    0.054019    0.028684     0.30964    -0.23376    0.049472   -0.039526
0.031282    0.046223    0.018615     0.28918    -0.19446    0.054993     -0.0405
0.023812    0.037778  -0.0024977     0.23104    -0.22337    0.088773   -0.036927
0.023812    0.030308   -0.029132     0.15406    -0.38999     0.13555   -0.031406
0.026735    0.022512   -0.055116    0.079679    -0.68557      0.1781   -0.021661
0.027385    0.014392   -0.072981    0.019264     -1.0256     0.20473   -0.012567
0.023812    0.003024   -0.076229   -0.021986     -1.3011     0.21415  -0.0021729
0.020239  -0.0083442   -0.064536   -0.042774     -1.4414     0.21285    0.008221
0.017965    -0.01614   -0.045697   -0.047646     -1.4368      0.2109    0.019264
0.016016   -0.019712   -0.025234   -0.043748     -1.3261     0.21837    0.030308
0.013743   -0.021986  -0.0096434   -0.035628     -1.1731     0.22844    0.039078
0.010819   -0.023935  -0.0024977   -0.028807     -1.0477     0.22974    0.044924
0.0075714   -0.022636 -0.00087364   -0.022961     -1.0013      0.2148      0.0433
0.0069217   -0.017764 -0.00087364   -0.015815     -1.0263     0.18004    0.034855
0.0078962  -0.0089938   0.0043233  -0.0044465     -1.0724     0.12872    0.023487
0.0095202   0.0020496    0.013743    0.012443     -1.0776    0.066362    0.011144
0.014717    0.012119    0.027385    0.032582     -1.0013   0.0052977  0.00042559
0.022188    0.020888     0.03583    0.053369     -0.8379   -0.046022  -0.0041217
0.026085    0.024786    0.037778    0.064413    -0.61346     -0.0837  -0.0024977
0.025761    0.024137    0.038428    0.066686    -0.37798    -0.11196  0.00042559
0.024137    0.020564    0.041027    0.067011      -0.174    -0.13794    0.003024
0.024786    0.016016    0.046223    0.073507   -0.022961    -0.16912   0.0023744
0.029333   0.0095202    0.050446     0.09462    0.066362    -0.20778  -0.0034721
0.033881    0.003024    0.044275      0.1232     0.11183    -0.24968   -0.014516
0.032257  -0.0041217    0.026735     0.14302     0.15373    -0.28833   -0.030106
0.022512   -0.011592   0.0049729     0.14432      0.2541    -0.31951    -0.04992
0.0075714   -0.018413   -0.008669     0.12905     0.44931     -0.3442   -0.069408
-0.0060706    -0.02426  -0.0076946     0.10859     0.72767    -0.36206   -0.082076
-0.01484   -0.026209   0.0062721    0.094945      1.0356    -0.37083   -0.086298
-0.019388   -0.027183    0.022512    0.089748      1.2958    -0.37115   -0.080776
-0.02426   -0.029782    0.032582    0.094295      1.4465    -0.36596   -0.071357
-0.026209   -0.033679    0.034206     0.10891      1.4773    -0.34972   -0.063561
-0.025884   -0.035953     0.03583     0.12385      1.4276    -0.31236   -0.059989
-0.019063   -0.036278    0.039727     0.13035      1.3636    -0.25227   -0.059989
-0.0083442   -0.031406    0.044599     0.12288      1.3377    -0.17692   -0.058689
0.00042559   -0.025234    0.050121     0.10826      1.3685    -0.10059   -0.055441
0.0043233   -0.019063    0.054993     0.10696      1.4504    -0.03173    -0.04992
0.0020496   -0.013216    0.060515       0.131      1.5504    0.028359     -0.0405
-0.0037969  -0.0060706    0.063113      0.1768      1.6199    0.079029   -0.028482
-0.0093186      0.0014    0.062789     0.22519      1.5692      0.1206   -0.013866
-0.012892   0.0078962    0.064737     0.25637       1.275     0.14919  -0.0034721
-0.016464    0.009845    0.064737     0.25572      0.6351     0.15666  0.00010078
-0.020037   0.0049729    0.058566     0.22357    -0.28411     0.13977 -0.00022403
-0.026209  -0.0044465    0.046223     0.17127     -1.2105     0.10209  -0.0028225
-0.034654   -0.014516    0.030957     0.11573     -1.8685     0.05142  -0.0057458
-0.040175   -0.022311     0.01764    0.075781     -2.1034  -0.0011985  -0.0080194
-0.034654    -0.02361   0.0085458    0.055643     -1.9205   -0.049595  -0.0073698
-0.019063   -0.017439   0.0052977     0.05272     -1.4528   -0.092145  -0.0060706
0.00042559  -0.0096434   0.0056225    0.060515    -0.89344    -0.13762  -0.0028225
0.015367  -0.0063954   0.0065969    0.071234    -0.41858    -0.18439   0.0026992
0.020239  -0.0089938   0.0049729    0.082602     -0.1269    -0.22564  0.00010078
0.012768    -0.01484   0.0036737    0.092671   -0.025559    -0.25585  -0.0067202
-0.0050961   -0.021012      0.0014    0.098842   -0.059664    -0.27534   -0.012892
-0.025559   -0.023285  0.00010078     0.10306    -0.15029    -0.28346   -0.018088
-0.043748   -0.019063  -0.0018481     0.10501    -0.22791    -0.27274    -0.02361
-0.055441   -0.010618  -0.0028225     0.10242    -0.25357    -0.23246   -0.029457
-0.05739  -0.0050961  -0.0057458    0.092996    -0.22337    -0.16523   -0.035953
-0.049595  -0.0031473  -0.0080194    0.076755    -0.15353   -0.075904   -0.039201
-0.036927  -0.0054209   -0.010293     0.05142    -0.06681    0.019589   -0.037577
-0.024909  -0.0076946   -0.011592    0.020564    0.014717     0.10404    -0.03303
-0.018413  -0.0063954   -0.013541  -0.0063954    0.082602     0.16608   -0.030431
-0.014516  -0.0054209   -0.018413   -0.030431     0.13587     0.20798   -0.029782
-0.012892  -0.0031473   -0.024585   -0.047646     0.17517     0.23721   -0.030431
-0.008669  -0.0041217    -0.03303   -0.061613     0.20733     0.26125   -0.030756
-0.0024977   -0.008669   -0.041475   -0.075255     0.23786     0.28203   -0.027508
0.0017248   -0.015815   -0.046996   -0.086298     0.26742     0.29827    -0.02426
0.0017248   -0.020687   -0.052193   -0.093444     0.28138     0.30834   -0.021012
0.00042559   -0.019712   -0.054142    -0.09182      0.2554     0.30574   -0.015815
-0.0044465    -0.01484   -0.051868   -0.082725     0.18297     0.28561   -0.008669
-0.012892   -0.010293   -0.041475   -0.070707    0.096244     0.24858  -0.0021729
-0.023285   -0.008669   -0.022636   -0.061937    0.039402     0.20343   0.0033489
-0.034004  -0.0096434  -0.0018481   -0.060638    0.038753     0.16023   0.0088706
-0.038227   -0.013541    0.014068   -0.066485    0.092671     0.12353    0.013093
-0.033354   -0.015815    0.024786   -0.073631     0.18167    0.095269    0.014717
-0.022311   -0.018088    0.028359   -0.079152     0.27099    0.072858    0.015042
-0.0096434   -0.019388     0.02641   -0.081426     0.33433     0.05207    0.016016
-0.0037969   -0.020687    0.021863   -0.080776     0.35739    0.037778    0.019264
-0.0037969   -0.018738    0.021863   -0.075255     0.34635    0.036804    0.024137
-0.0083442   -0.010618    0.027709   -0.068109     0.32686     0.05207    0.030957
-0.011917   0.0062721    0.029983   -0.060313     0.33075     0.07708    0.038103
-0.01484    0.023162     0.02706   -0.054467     0.37558     0.10729    0.049796
-0.016789     0.03453    0.021863   -0.049595     0.46393      0.1362    0.063113
-0.019063    0.037129    0.016666   -0.044723     0.58865     0.15406    0.071558
-0.020362    0.035505    0.015367   -0.039851     0.72605     0.15601    0.066686
-0.018088    0.031282    0.014717   -0.043099     0.84135     0.14886    0.049472
-0.010943    0.026085    0.011794   -0.059339     0.91508     0.13652    0.025111
-0.0037969    0.019914    0.008221   -0.085973     0.94237     0.11963    0.003024
-0.00087364    0.016341   0.0039985    -0.11098      0.9258     0.10144  -0.0073698
-0.00022403    0.017316  -0.0015233    -0.12852     0.86929    0.084226  -0.0060706
0.0046481    0.021213  -0.0093186    -0.13469     0.78646    0.069934  -0.0015233
0.011794    0.026085   -0.020037    -0.13177     0.68967    0.056942      0.0014
0.019589    0.028359   -0.032705     -0.1269     0.58216    0.046223 -0.00087364
0.02641    0.029333   -0.046347    -0.12592     0.46295    0.038103  0.00042559
0.030633    0.029009   -0.061613     -0.1295     0.32166    0.030957    0.008221
0.030308    0.028359   -0.075579    -0.13275     0.15211    0.023487    0.017965
0.024786     0.02706   -0.086623    -0.13047   -0.048945    0.012768    0.023487
0.01764    0.022188   -0.089871    -0.11943    -0.28313 -0.00022403    0.023487
0.014717     0.01829     -0.0824   -0.097341    -0.55987    -0.01549    0.021213
0.013093    0.016666   -0.064536   -0.073631    -0.89637    -0.03238    0.022837
0.0069217    0.016341   -0.040825   -0.060963     -1.2988   -0.048945     0.03518
-0.0021729    0.014068   -0.014191   -0.062912     -1.7357   -0.062262    0.057917
-0.0076946    0.008221    0.012119   -0.073955     -2.1388   -0.073306    0.085525
-0.008669  -0.0011985    0.031607   -0.084349      -2.421   -0.086298     0.10599
-0.0060706   -0.015165    0.039078   -0.089221      -2.512    -0.10319     0.10956
-0.0015233   -0.025884     0.03453   -0.084999     -2.3911    -0.12527    0.097543
0.0043233   -0.028482    0.020239   -0.072006      -2.091    -0.14964    0.072858
0.013743    -0.02361      0.0014   -0.053492     -1.6717    -0.16945    0.043625
0.023487    -0.01614   -0.019388   -0.033679     -1.2062    -0.18277    0.015692
0.031932   -0.013216   -0.035628   -0.013866    -0.76677    -0.19251  -0.0047713
0.034206   -0.014516   -0.042774   0.0010752    -0.40721    -0.19933   -0.015165
0.033556   -0.018088   -0.046347   0.0069217    -0.14931    -0.19966   -0.020037
0.032582   -0.019388   -0.048945   0.0062721    0.018615    -0.18926   -0.021986
0.029333   -0.016789   -0.051219  0.00042559     0.11931    -0.17075   -0.023285
0.017316  -0.0089938    -0.04927  -0.0047713     0.17939    -0.14964   -0.022636
-0.0050961  0.00042559   -0.043099  -0.0047713     0.21935     -0.1308   -0.018088
-0.031081   0.0075714   -0.039526  0.00010078      0.2528     -0.1191   -0.012242
-0.054142    0.011469   -0.037252   0.0023744     0.28885    -0.11001   -0.010618
-0.063886    0.017316   -0.034978   0.0033489     0.32783    -0.10579   -0.012892
-0.059989    0.023487    -0.03303     0.01017     0.36746    -0.11163   -0.016464
-0.045697    0.028034   -0.034004    0.025436     0.40449    -0.12463   -0.018413
-0.029457    0.027385   -0.041475    0.047198     0.42982    -0.13762   -0.019388
-0.014191    0.022512   -0.053168    0.070259     0.43827    -0.14606   -0.019712
-0.0024977    0.016666   -0.062262    0.087799     0.43112    -0.14899   -0.017764
0.0062721    0.011469   -0.062262    0.096893     0.41845    -0.14216   -0.013216
0.01017   0.0072465   -0.051219    0.099492     0.40449      -0.123   -0.011267
0.0088706   0.0039985   -0.032705    0.097543     0.38695   -0.098641   -0.014191
0.0049729 -0.00054884   -0.013541    0.092996     0.37655   -0.075904   -0.023935
-0.00022403  -0.0047713 -0.00022403    0.086824     0.39702   -0.059989   -0.035303
-0.0047713  -0.0089938   0.0069217    0.081952     0.45321   -0.051868   -0.041475
-0.0060706   -0.012892   0.0078962    0.075781     0.52856   -0.047321   -0.039851
-0.0028225    -0.01549   0.0039985    0.058241     0.60814   -0.036602   -0.038551
0.0052977   -0.013866 -0.00022403    0.021538     0.69194   -0.010618   -0.039201
0.015692   -0.008669  -0.0031473   -0.025559     0.77184    0.031282   -0.047971
0.02706  -0.0037969  -0.0054209   -0.071357     0.81147    0.080653   -0.062912
0.034855   0.0026992   -0.008669    -0.10091     0.78159     0.12515   -0.080776
0.037129    0.010819   -0.010943    -0.10644     0.67732     0.15049   -0.093769
0.030957    0.015692   -0.012567   -0.086298     0.52402     0.14724   -0.095068
0.01894    0.016341   -0.015165   -0.052843     0.35576     0.11833   -0.081426
0.0049729    0.015042   -0.020362   -0.018738     0.18004    0.072208   -0.059989
-0.0076946    0.012768   -0.026858     0.01017   -0.018413    0.016016   -0.045372
-0.019063     0.01017   -0.032705     0.03453    -0.23409   -0.043423   -0.044073
-0.03173    0.008221   -0.034654    0.056617    -0.40688   -0.096692   -0.053817
-0.040825   0.0052977   -0.030431    0.077405    -0.44943    -0.13664    -0.06551
-0.042774   0.0023744   -0.024585     0.10112     -0.2919     -0.1597   -0.069083
-0.038876  -0.0057458   -0.022636     0.12515    0.062139    -0.16912   -0.061937
-0.03238    -0.01549   -0.029457     0.14724     0.52466     -0.1688    -0.04927
-0.027508    -0.02426   -0.045047     0.16445     0.97485    -0.16328   -0.037577
-0.027508    -0.03173   -0.064861     0.16868      1.3071    -0.15841   -0.034978
-0.028157   -0.036602   -0.085648     0.15503      1.4689    -0.15841   -0.037902
-0.026533   -0.043099    -0.10189     0.12158      1.4572    -0.16782   -0.043099
-0.021661   -0.051219    -0.11098    0.074482      1.3039    -0.18764   -0.049595
-0.01484   -0.059989    -0.11293     0.02641      1.0629    -0.20843   -0.056741
-0.010943   -0.063886    -0.10774   -0.016464     0.79263    -0.22077    -0.05739
-0.0083442   -0.063561   -0.098965   -0.048945     0.54155    -0.21622   -0.045697
-0.0076946   -0.061937   -0.087597   -0.067784     0.33238    -0.19348   -0.017764
-0.0067202   -0.058689   -0.079152   -0.061937     0.15861    -0.15905    0.017965
-0.0028225   -0.053492   -0.075579   -0.030431  -0.0037969    -0.12527    0.048172
-0.0015233   -0.046347   -0.073955    0.025436    -0.18017    -0.10449    0.060515
-0.0031473   -0.039201   -0.070058    0.087799    -0.39909   -0.096042    0.054344
-0.0067202   -0.033679   -0.063237     0.13295    -0.69759   -0.096367    0.037454
-0.012242   -0.029457   -0.052193     0.13555     -1.0727    -0.10059    0.021213
-0.015815    -0.02426   -0.043099    0.095919     -1.4534    -0.10254    0.012443
-0.018413   -0.016464   -0.041475    0.037454     -1.7282    -0.09117     0.01017
-0.021661  -0.0060706   -0.048945  -0.0057458     -1.8045   -0.059989    0.012443
-0.027183    0.008221   -0.055441   -0.016464     -1.6684   -0.012567    0.017965
-0.033354    0.023812   -0.053492      0.0014     -1.3885    0.044275    0.026735
-0.038551    0.037129   -0.040825    0.032906     -1.0763    0.097868     0.03583
-0.039526    0.044275   -0.023285    0.058891    -0.82718     0.13847    0.042001
-0.035953    0.045574  -0.0050961    0.066037    -0.69369     0.15893    0.044275
-0.032055    0.042001    0.013093    0.055318    -0.67615     0.15211    0.042326
-0.029457     0.03583    0.029658    0.036154    -0.72682     0.12613     0.03583
-0.028807    0.029009      0.0433    0.017316    -0.77684    0.095919    0.024786
-0.027833    0.020239    0.053044   0.0036737    -0.77164    0.075131    0.009845
-0.026209    0.010819    0.059865  -0.0057458    -0.70603    0.066686  -0.0073698
-0.02361   0.0043233    0.063113   -0.011917    -0.61931    0.066362   -0.020687
-0.017114    0.003024    0.061489   -0.018413    -0.55597    0.069934   -0.025234
-0.0034721   0.0023744    0.057267   -0.026533    -0.52869    0.075131   -0.017764
0.015042      0.0014    0.054993   -0.034004      -0.504    0.079354  -0.0024977
0.033231   0.0017248    0.057592   -0.035628    -0.43319    0.074482    0.012768
0.045574   0.0052977    0.065062   -0.030106    -0.28248     0.06019     0.01829
0.048822    0.011144    0.072858   -0.021337   -0.055441    0.038103    0.014392
0.04395    0.015692    0.080328   -0.015165     0.21123    0.014068   0.0069217
0.036479    0.016666    0.084226   -0.010943     0.47172  -0.0037969   0.0010752
0.032582    0.016016      0.0865  -0.0044465      0.6835  -0.0093186   0.0023744
0.031932    0.016341    0.088773   0.0091954     0.81017 -0.00054884    0.014068
0.033231    0.020564     0.09397    0.030308     0.81472    0.026735    0.036479
0.038753    0.028034     0.10079    0.055318     0.69551    0.067011    0.067336
0.046873    0.037454     0.10274    0.075456      0.5003     0.10989     0.09462
0.054993    0.042651    0.095919    0.083576     0.29503     0.14302     0.10696
0.059541      0.0433    0.075781    0.078379     0.14009     0.15893    0.095919
0.054668     0.03518    0.047523    0.057917    0.066686     0.16023    0.067661
0.041027    0.022188    0.019914    0.031932    0.061814     0.15179    0.032906
0.023812    0.010819   0.0036737   0.0078962    0.065387     0.13912   0.0059473
0.0069217   0.0023744      0.0014  -0.0060706    0.019589      0.1219  -0.0080194
-0.007045  -0.0018481   0.0075714   -0.010618   -0.073955     0.10112   -0.012567
-0.017114  -0.0011985    0.011144   -0.010618    -0.16912    0.080003   -0.012892
-0.021012   0.0017248     0.01017  -0.0083442    -0.21687    0.062139   -0.010618
-0.021986   0.0046481   0.0069217  -0.0044465    -0.19608    0.049796   -0.010293
-0.024909    0.003024   0.0023744   0.0020496    -0.12008    0.039727   -0.011267
-0.026209  -0.0037969   0.0046481    0.010819   -0.027183    0.024786   -0.012892
-0.027183   -0.013216    0.014392    0.020564    0.045249   0.0033489   -0.016464
-0.028807   -0.018088    0.028684    0.029658    0.078704   -0.020687   -0.020037
-0.027833   -0.018413    0.044599    0.031932    0.078379   -0.042124    -0.02361
-0.025884    -0.01614     0.06084    0.028684     0.06896   -0.053817   -0.025884
-0.022961   -0.013541    0.077405    0.022512    0.076755   -0.056091   -0.025884
-0.022311   -0.011267    0.087149    0.016666     0.11508   -0.044723   -0.025559
-0.022961   -0.011267    0.081952    0.011794     0.17257   -0.022636   -0.023285
-0.022636   -0.014191    0.064413   0.0052977     0.23883   0.0026992   -0.019712
-0.018088   -0.017439    0.042975  -0.0018481     0.29827    0.020564   -0.013866
-0.011592   -0.016789    0.025111  -0.0083442      0.3379    0.023812  -0.0083442
-0.0015233   -0.014191     0.01017   -0.012242     0.34732    0.011469  -0.0089938
0.011794   -0.011592  -0.0093186   -0.017114     0.32198   -0.010618   -0.016789
0.022188   -0.010293   -0.030106   -0.025559     0.26547    -0.03303   -0.029132
0.027709   -0.010618   -0.045047   -0.039526     0.18589   -0.048945     -0.0405
0.030308   -0.011592   -0.055766   -0.056416     0.10729   -0.056091   -0.047321
0.03453   -0.013541   -0.061288   -0.074605    0.056292   -0.051544   -0.047646
0.039727   -0.015165   -0.060638   -0.092469    0.041027   -0.028482   -0.039851
0.041351    -0.01549   -0.055766    -0.10741    0.059216    0.012768    -0.02361
0.03518   -0.012567   -0.048945    -0.11975     0.10014    0.059865 -0.00087364
0.019264   -0.007045     -0.0405    -0.12463     0.13522     0.10501     0.02641
-0.0018481 -0.00022403   -0.028157    -0.11813     0.12775     0.13847     0.05272
-0.018738   0.0069217    -0.01484    -0.10026    0.056942     0.15926    0.074482
-0.026533    0.011794  -0.0011985    -0.07493   -0.043748     0.16705    0.090397
-0.026533    0.014392   0.0085458   -0.047646   -0.090845     0.16933    0.096244
-0.023285    0.015692    0.015367   -0.019712   0.0043233     0.18037    0.092996
-0.015815    0.015042    0.021863   0.0059473     0.27034     0.20635    0.080653
-0.0047713    0.013418    0.026085     0.02706      0.6403     0.24436    0.065062
0.0062721    0.009845    0.027709    0.042001      1.0034     0.27586    0.048822
0.013743   0.0043233    0.027709    0.047847      1.2613     0.27944    0.035505
0.01017  -0.0057458    0.026085    0.041027      1.3835     0.23818    0.023487
-0.0060706   -0.018413    0.022512    0.020564      1.4098     0.15633    0.010819
-0.031081   -0.033354    0.016341  -0.0099683      1.4081    0.045574  -0.0044465
-0.057715    -0.04862    0.012119   -0.040175      1.4176    -0.07428   -0.020362
-0.076879   -0.059989    0.009845   -0.060963      1.3948    -0.18342    -0.03303
-0.088896    -0.06681    0.010819   -0.064536      1.2019    -0.26462   -0.041799
-0.095068   -0.068758    0.012768   -0.057715     0.68252    -0.31366   -0.046022
-0.098965   -0.065835    0.014392   -0.050244    -0.13372     -0.3325   -0.047646
-0.098316    -0.05804    0.016341   -0.048296    -0.99089    -0.32763   -0.046996
-0.09182   -0.047321    0.019589   -0.047321     -1.6067      -0.301   -0.039851
-0.08305   -0.037252    0.022188   -0.043748     -1.8247    -0.26137   -0.029782
-0.072656   -0.030106    0.021863   -0.033354     -1.6587    -0.21882   -0.020687
-0.062912   -0.030431    0.014717   -0.014191     -1.2735    -0.18212   -0.010618
-0.051219   -0.034004   0.0017248   0.0049729    -0.89279    -0.15711  -0.0021729
-0.037902   -0.035953   -0.019388    0.011469    -0.69791    -0.14444   0.0026992
-0.022311    -0.03303   -0.042449  -0.0080194    -0.74988    -0.14346 -0.00022403
-0.0050961   -0.026858   -0.064536   -0.050894    -0.97302    -0.15093  -0.0047713
0.010495   -0.021986   -0.082725    -0.10416     -1.2202    -0.16198  -0.0057458
0.022837   -0.017439    -0.09929    -0.15581     -1.3495    -0.17335  -0.0031473
0.030957   -0.012892    -0.11261    -0.19576     -1.2952    -0.18244  -0.0031473
0.031607   -0.011592    -0.11878    -0.21525      -1.077    -0.18471  -0.0083442
0.019914   -0.013866    -0.11586     -0.2159    -0.77749    -0.17659   -0.021012
0.003024   -0.018738    -0.10741    -0.19998    -0.47737    -0.15776   -0.034329
-0.0057458   -0.023285   -0.097017    -0.17659    -0.21557    -0.13145   -0.045372
-0.0031473   -0.024585   -0.086298    -0.14996   -0.010943    -0.10254   -0.051868
0.0088706   -0.025559   -0.078178    -0.12365     0.11508   -0.079152   -0.055116
0.026085    -0.02426   -0.080776    -0.10026      0.1297    -0.06616   -0.055441
0.04395   -0.021986   -0.092145   -0.081426  -0.0031473   -0.068758   -0.047971
0.059216   -0.017439    -0.10579   -0.067459    -0.26916   -0.085973   -0.036278
0.06896  -0.0099683    -0.11293   -0.059014     -0.5826    -0.11066   -0.026533
0.067986  -0.0015233    -0.10936   -0.053168    -0.83043    -0.13307   -0.021012
0.056292    0.008221   -0.096692   -0.043423    -0.93112    -0.14184   -0.021337
0.03453    0.021213   -0.079152   -0.029782    -0.85999    -0.13567   -0.025559
0.0062721     0.03453   -0.061288   -0.012567    -0.63977     -0.1191    -0.03173
-0.022636    0.045249   -0.047646    0.003024    -0.33802   -0.096692   -0.037577
-0.041475     0.05272   -0.039526    0.013418   -0.048296   -0.078178   -0.042449
-0.049595    0.058241   -0.035953    0.019914      0.1258   -0.072981   -0.040825
-0.048945    0.061489    -0.03173    0.027709     0.10696   -0.086623   -0.031406
-0.046996     0.06084   -0.022636    0.038103    -0.10254    -0.11943   -0.020362
-0.050244    0.056942  -0.0080194    0.050771    -0.41955    -0.15678   -0.012242
-0.064536    0.049472   0.0056225    0.061489    -0.70603    -0.18407   -0.008669
-0.084349    0.039727    0.016341    0.066686    -0.84992    -0.18439   -0.012892
-0.096692    0.029333    0.022188    0.067011    -0.81452    -0.15288    -0.02426
-0.095393    0.021863    0.026735    0.066686    -0.64042   -0.096692   -0.037902
-0.083375     0.01764    0.032582     0.06831    -0.40688   -0.030431   -0.051219
-0.06551    0.017316    0.040377    0.074157    -0.17237    0.033231   -0.059664
-0.047646    0.018615    0.045899    0.082277    0.045899    0.088448   -0.059014
-0.028157    0.020888    0.049147    0.091372     0.25897     0.13327   -0.047321
-0.0080194    0.022188    0.047523    0.098517      0.4662     0.16445   -0.025234
0.0095202    0.021538    0.044924     0.10956     0.65037     0.18394  -0.0028225
0.020239    0.023162      0.0433     0.12613     0.78581     0.19076    0.014068
0.027385    0.025111    0.041351     0.14724     0.85305     0.18751    0.021538
0.034206    0.029009    0.042001     0.16933     0.85434     0.17615    0.022512
0.044275    0.031932    0.048822     0.18914     0.80757     0.15406    0.023487
0.056617    0.032906    0.055968     0.20181     0.73871     0.12093    0.025111
0.06896    0.033881    0.059216     0.21025     0.67278    0.083251    0.024461
0.075131     0.03583     0.06019     0.21772     0.62211    0.047523    0.020239
0.065712    0.038428    0.058241     0.22324     0.59515    0.016991    0.012119
0.042326    0.036479    0.054993     0.22909     0.59093  -0.0050961  0.00042559
0.014392    0.030308    0.048822     0.23299     0.60197   -0.015165   -0.013541
-0.0050961    0.023162    0.040052     0.23104     0.61756  -0.0076946   -0.021661
-0.0093186    0.016991     0.02706     0.22097      0.6299    0.018615    -0.01614
-0.00022403    0.017316    0.015042     0.20246     0.63705    0.055318   0.0023744
0.013093    0.023487   0.0052977     0.17939     0.63737    0.088124     0.02641
0.024137     0.03518  0.00010078      0.1625      0.6338     0.10599    0.048822
0.032906    0.045899  -0.0028225     0.15211     0.62893     0.10826    0.064737
0.036479    0.050446  -0.0080194     0.13944     0.62568    0.096893     0.06961
0.031607    0.045899   -0.021337     0.11313     0.62016     0.07708    0.063438
0.021863    0.037454   -0.043748    0.073832     0.61366    0.061165     0.05207
0.013418    0.027385   -0.067784    0.031932     0.60327    0.061489    0.042001
0.0078962     0.01894   -0.083375  -0.0060706     0.59028    0.084226     0.03583
0.0036737    0.015042   -0.087922   -0.051868     0.57111      0.1232    0.032257
0.00010078    0.012119   -0.084024    -0.12235     0.53928     0.16315    0.028359
-0.0021729    0.009845   -0.070707    -0.20875     0.49153     0.19174    0.020564
-0.0018481    0.009845   -0.044723    -0.25487      0.4243     0.20343    0.008221
-0.0018481    0.014392  -0.0060706    -0.20388     0.34862     0.20408  -0.0050961
-0.0028225    0.019264    0.032906   -0.065835     0.27684     0.20635   -0.012242
-0.0044465    0.024137    0.059865    0.087149     0.21285      0.2161  -0.0096434
-0.0067202    0.026735    0.067336     0.17777     0.15373     0.23039 -0.00054884
-0.0073698    0.024461    0.057267     0.16998    0.091372     0.23461   0.0072465
-0.008669    0.015367    0.032257    0.083901    0.015367     0.21415   0.0075714
-0.0096434  0.00042559   0.0017248    -0.02426   -0.071682     0.16673 -0.00022403
-0.008669   -0.017439   -0.021337   -0.093769    -0.15418     0.10696  -0.0099683
-0.0093186    -0.03303   -0.028807   -0.098641    -0.21005    0.042651   -0.018088
-0.012242   -0.036927   -0.022311   -0.059339    -0.22532   -0.021661   -0.022311
-0.016464   -0.027833  -0.0047713   -0.011267    -0.19024   -0.081101   -0.021986
-0.019388   -0.008669    0.019914    0.020564    -0.10774    -0.12787   -0.017439
-0.01549    0.012768    0.047847    0.028684    0.019264    -0.16133  -0.0063954
-0.0034721    0.033231    0.073507    0.016991     0.17127    -0.18114    0.011144
0.012443    0.050121    0.087474   -0.010293     0.30802    -0.19219    0.031282
0.025761    0.061489    0.086824   -0.046671     0.40319     -0.2029    0.049796
0.032906    0.063438    0.074157   -0.080776     0.45353    -0.21687    0.063763
0.031932    0.056292    0.056617    -0.10124     0.46847    -0.23149    0.074157
0.028684    0.043625    0.042975    -0.10286     0.44411    -0.23961     0.08585
0.027385    0.031282     0.03583   -0.085324     0.37883    -0.23701     0.10047
0.029333    0.021213    0.037454   -0.057715     0.27716    -0.22759     0.11313
0.029983    0.012768    0.042651   -0.028157     0.15373     -0.2159      0.1232
0.02641   0.0052977    0.046223   0.0010752    0.021213    -0.20843     0.12807
0.020564  -0.0018481    0.046548     0.02706    -0.11196    -0.20453     0.12613
0.013418  -0.0060706    0.040377    0.042326     -0.2448    -0.20518     0.11671
0.0052977  -0.0089938    0.027709    0.033556    -0.38869     -0.2016    0.097218
-0.0031473   -0.011267   0.0065969  -0.0057458    -0.56929    -0.18471    0.070259
-0.010943   -0.014516   -0.016464   -0.056741    -0.80315    -0.15029    0.042001
-0.016789   -0.017114   -0.034978   -0.090521     -1.0682    -0.10546    0.016341
-0.021337   -0.019712   -0.046671   -0.095393     -1.2972    -0.05804  -0.0044465
-0.026209   -0.021661    -0.04992   -0.078827     -1.4089   -0.016789   -0.018088
-0.030431   -0.021986   -0.048296   -0.051868     -1.3459    0.016666   -0.024909
-0.034978   -0.023935   -0.043748   -0.020037     -1.1085    0.044275   -0.030756
-0.039201   -0.026533   -0.044723    0.012119    -0.76807    0.067661   -0.038551
-0.042449   -0.028807   -0.051544     0.04395    -0.44131    0.077405   -0.048945
-0.045372   -0.029782   -0.059664    0.071883    -0.22824     0.06961   -0.058365
-0.046671   -0.033679   -0.068109    0.091372     -0.1727    0.047523   -0.069733
-0.046347     -0.0405   -0.076879    0.094295    -0.25942    0.019589   -0.081751
-0.044073    -0.04927   -0.087272    0.078379    -0.42085  -0.0011985   -0.089221
-0.041475   -0.056416   -0.096367      0.0433      -0.555   -0.011592   -0.092469
-0.041799   -0.063886    -0.10286   -0.008669    -0.59007   -0.012892    -0.09117
-0.045372   -0.070382    -0.10546   -0.065186    -0.50173   -0.008669   -0.089221
-0.047646   -0.073955    -0.10806    -0.11586    -0.32178  -0.0021729   -0.084999
-0.044398   -0.076229    -0.10774    -0.15743    -0.11163   0.0056225     -0.0824
-0.038551    -0.07428    -0.10709    -0.19056    0.069934    0.014392   -0.082725
-0.034654   -0.071357    -0.10968    -0.21882     0.18102    0.021863   -0.081426
-0.034654   -0.067784    -0.11488    -0.24156     0.21317    0.026085   -0.077203
-0.037902   -0.065186    -0.12138     -0.2552     0.18394    0.024137   -0.070707
-0.041799    -0.06616    -0.12495    -0.25975     0.12743    0.015367   -0.063886
-0.039526   -0.067784    -0.12885     -0.2565    0.083901   0.0059473   -0.058689
-0.031081   -0.070058    -0.13177    -0.24383    0.076755   0.0065969   -0.056091
-0.016464   -0.067784    -0.13242    -0.21622     0.10144    0.019589    -0.05804
-0.0018481   -0.061613    -0.12787    -0.16815      0.1336    0.037454   -0.061613
0.0091954   -0.052193    -0.11813    -0.10124     0.15666    0.052395   -0.062587
0.016991   -0.039851   -0.096042   -0.030106     0.16608    0.059541   -0.058365
0.020564   -0.027833   -0.067134    0.028684     0.16315    0.061165    -0.04927
0.021863   -0.016464   -0.042774    0.070259     0.15633    0.058566   -0.035953
0.022837   -0.008669   -0.029457    0.091696     0.16185    0.054019   -0.019388
0.023162  -0.0050961   -0.026209    0.092021     0.18199    0.049796  -0.0067202
0.023812  -0.0041217   -0.023285    0.073182     0.20408    0.042651  0.00075039
0.021538  -0.0044465   -0.015165    0.045899     0.19921    0.031607   0.0010752
0.015692  -0.0067202  -0.0037969    0.021538     0.13717    0.019589  -0.0028225
0.0078962  -0.0080194     0.01017   0.0062721    0.021538   0.0091954  -0.0083442
0.0010752  -0.0057458    0.025761  0.00075039   -0.093119   0.0049729   -0.011592
-0.00087364 -0.00022403    0.038428   0.0072465    -0.15581   0.0043233   -0.011267
0.0017248    0.003024    0.042001     0.01894    -0.14574   0.0026992  -0.0096434
0.0065969   0.0020496    0.036154    0.019589   -0.088572  -0.0063954  -0.0076946
0.0085458   0.0026992    0.015042  0.00042559   -0.034004   -0.025884  -0.0076946
0.0075714   0.0069217   -0.013216   -0.036278   -0.020362    -0.05739   -0.013866
0.0036737    0.011469   -0.036927   -0.081426   -0.053817    -0.09994   -0.025559
0.0026992    0.014068   -0.047971    -0.12105   -0.096042    -0.14736   -0.038551
0.0036737    0.013743   -0.042124    -0.14152   -0.067784    -0.18894   -0.050244
0.0059473    0.011469   -0.024909    -0.13794    0.098842    -0.20875   -0.056416
0.0095202    0.010495   -0.007045    -0.11975      0.3863    -0.19998   -0.054142
0.009845    0.009845   0.0049729   -0.096692     0.67732    -0.16328   -0.044723
0.0052977    0.010495   0.0069217   -0.082725     0.77054    -0.11001   -0.031406
-0.0057458    0.011469  -0.0021729   -0.081751     0.47529   -0.058365   -0.017439
-0.021337   0.0091954   -0.015815    -0.09182    -0.20388   -0.022636  -0.0047713
-0.033679   0.0033489   -0.025559    -0.10319     -1.0162  -0.0067202   0.0020496
-0.039526  -0.0054209   -0.026533    -0.10611      -1.659  -0.0067202   0.0033489
-0.038551   -0.013866   -0.015815   -0.092469     -1.9406   -0.013216  0.00075039
-0.035303   -0.018088   0.0036737   -0.061937     -1.8393   -0.021661  -0.0015233
-0.035953   -0.019388     0.02706   -0.020362     -1.4684   -0.028807  -0.0034721
-0.037577   -0.019063    0.046223    0.024137    -0.99381   -0.036602  -0.0063954
-0.038876   -0.017764    0.057267    0.065062    -0.55175   -0.042124  -0.0089938
-0.034978   -0.015815    0.059541     0.10014     -0.2172   -0.041475   -0.013541
-0.025884   -0.014191    0.055968     0.12775   0.0056225    -0.03303   -0.011917
-0.019063   -0.010618    0.050446     0.14464     0.15893    -0.01484  -0.0024977
-0.014516  -0.0080194      0.0433     0.15179     0.29243   0.0062721   0.0088706
-0.011917  -0.0080194    0.038428     0.15601     0.43989    0.019914    0.016991
-0.010943   -0.011267     0.03518     0.16023     0.60099    0.018615    0.019914
-0.012242   -0.017114    0.033556     0.16121     0.75268  0.00010078    0.019914
-0.014191   -0.021337    0.036804     0.15731     0.87871   -0.034004    0.016991
-0.010618   -0.022311    0.043625     0.14691     0.97355   -0.074605    0.013093
0.0010752   -0.018088    0.048822     0.13067      1.0473    -0.11066    0.010495
0.016666  -0.0076946     0.05142     0.11411      1.1139    -0.13145    0.011469
0.029333   0.0039985    0.050121     0.10404       1.172    -0.13242    0.021538
0.03583    0.014068    0.046873     0.10339      1.2129    -0.11098    0.039078
0.03453    0.019589    0.048172     0.11573      1.2201   -0.069733    0.061489
0.028034    0.020239    0.057267     0.13717       1.174   -0.011917    0.081627
0.01829     0.01829    0.070259     0.15828      1.0561    0.054344    0.090397
0.0088706    0.016991    0.078055     0.17192     0.85434     0.11378    0.083251
-0.00022403    0.016341    0.075781      0.1781     0.55325     0.15503    0.063438
-0.0067202    0.016991    0.065387     0.17907     0.14399      0.1716    0.037129
-0.0076946    0.017316     0.05207      0.1729     -0.3403     0.16283    0.013093
-0.0018481    0.018615    0.040702     0.15991    -0.83043      0.1349  -0.0057458
0.011469    0.021213     0.03518     0.14107     -1.2608    0.095594    -0.01614
0.026735    0.024461     0.03453     0.11995     -1.5733    0.052395   -0.022311
0.039727    0.029009    0.036479     0.10534     -1.7263    0.012119   -0.026858
0.05207    0.032906    0.036804     0.10436     -1.7019   -0.024585   -0.029457
0.058566    0.034855    0.036804     0.11736     -1.5275   -0.062262   -0.028807
0.05207     0.03583    0.036804     0.13295     -1.2647    -0.10416   -0.028157
0.028034    0.033556     0.03518     0.13977    -0.99349    -0.14834   -0.033679
-0.0047713    0.027709    0.032906     0.13035    -0.79178    -0.18959   -0.046996
-0.035628    0.016991    0.024786     0.10242     -0.7187    -0.22434   -0.062587
-0.056091   0.0039985    0.009845    0.062139    -0.79178    -0.24675   -0.071032
-0.062912  -0.0083442  -0.0093186    0.016016     -0.9649     -0.2513   -0.072331
-0.059989    -0.01484    -0.03303   -0.032705     -1.1348    -0.23603   -0.068758
-0.052193   -0.013541   -0.056416   -0.079477     -1.1751    -0.20258   -0.063237
-0.042774  -0.0050961   -0.072981    -0.11358      -1.011    -0.16133   -0.053817
-0.031081   0.0069217   -0.076554    -0.12592    -0.64789     -0.1204   -0.042449
-0.013541    0.019589   -0.064861    -0.11456    -0.16588   -0.087597   -0.031406
0.0088706    0.027709   -0.037577   -0.084024     0.32069   -0.063237   -0.020687
0.029983    0.029658  -0.0041217   -0.046671     0.70883   -0.038551  -0.0083442
0.046873    0.026085    0.021863   -0.011917     0.93912  -0.0028225    0.003024
0.057267    0.021213    0.030957    0.014392     0.99661    0.044924   0.0095202
0.056942    0.016341    0.026085    0.033881     0.89592    0.098842     0.01017
0.045899    0.011794    0.013743    0.046873     0.67635     0.14302   0.0033489
0.032906   0.0085458   0.0010752     0.05272     0.39864     0.16478  -0.0080194
0.023162   0.0072465   -0.012892    0.049147      0.1258     0.15666   -0.020037
0.01894   0.0056225   -0.023285     0.03583   -0.094418     0.12093   -0.029457
0.01764   0.0039985   -0.028157    0.017965    -0.23766    0.071558   -0.030756
0.016341   0.0020496   -0.027183   0.0059473     -0.2997    0.027709   -0.022311
0.015692    0.003024   -0.023285   0.0046481     -0.2893   0.0023744   -0.007045
0.013418   0.0088706   -0.017439   0.0091954    -0.21882  -0.0044465    0.013743
0.0078962    0.016016   -0.014191    0.012768    -0.09929      0.0014    0.035505
-0.0011985    0.020564    -0.01549    0.012768     0.05142    0.015042    0.056617
-0.010293    0.022837   -0.020362    0.011144     0.21155    0.031282    0.078055
-0.016789    0.023162   -0.024585   0.0095202     0.35576    0.048497    0.095269
-0.018738    0.023487    -0.02361    0.011144     0.45938    0.067336     0.10436
-0.01614    0.025436   -0.020037    0.012768     0.50777    0.084876     0.10469
-0.0099683    0.030308   -0.016789    0.011469     0.49998    0.097218    0.098193
-0.00087364    0.035505   -0.011917   0.0085458     0.45418     0.10306    0.088448
0.0088706    0.038103  -0.0050961   0.0039985     0.38987     0.10047    0.073507
0.015367    0.034855  0.00075039  -0.0034721     0.32588    0.089748    0.056292
0.01829    0.027709   0.0062721   -0.012242     0.27781    0.072208    0.040052
0.018615    0.020239   0.0095202   -0.021012      0.2515    0.048497    0.026085
0.01764    0.014068   0.0065969   -0.030106     0.24468    0.020888    0.010495
0.013093    0.008221 -0.00054884   -0.035628      0.2567  -0.0034721   -0.007045
0.0017248    0.003024  -0.0063954   -0.037577     0.29178    -0.01549   -0.025884
-0.011267  0.00010078  -0.0093186   -0.037252     0.35609   -0.012242   -0.040825
