-0.0405   -0.010618      0.0852    -0.15581     0.11346     0.27911    -0.01549
-0.0063954  -0.0063954    0.072208    -0.14184     0.38305     0.23981    0.030308
0.020564   0.0043233    0.057592    -0.12398     0.53473     0.20408    0.068635
0.038753    0.015042     0.04395    -0.10091     0.59255      0.1651    0.082602
0.046548    0.022188    0.034206    -0.07428     0.58995     0.11378    0.069934
0.046223    0.023487    0.030633   -0.050894     0.53928     0.05272    0.036804
0.040052    0.021213    0.040702   -0.034978     0.45093   -0.011592  -0.0031473
0.027385     0.01894    0.064088   -0.028482     0.35317   -0.068109   -0.033354
0.015367    0.016016    0.089748   -0.028482     0.28463    -0.11163   -0.045372
0.0059473    0.014068     0.10631   -0.035953     0.27196    -0.13989   -0.037252
0.0033489    0.011794     0.10534   -0.060638     0.31841    -0.15581   -0.013866
0.012119   0.0078962    0.090722    -0.11456     0.40611     -0.1623     0.01829
0.033881   0.0059473    0.074482    -0.19868     0.50225    -0.15678     0.05207
0.062464   0.0062721    0.063113    -0.30262     0.58183    -0.13762     0.07773
0.0865   0.0088706    0.053694    -0.40428      0.6364    -0.11131    0.087149
0.099167    0.011469    0.047847    -0.47607     0.66791   -0.089871    0.078055
0.098842    0.011144    0.046873    -0.50757     0.66043   -0.076879    0.058241
0.089748   0.0095202    0.048822    -0.51407     0.60847    -0.07493    0.035505
0.078055    0.010495     0.04395     -0.5105     0.53733   -0.082725    0.018615
0.067661    0.014392    0.023812    -0.49328     0.48341   -0.092469    0.009845
0.061814    0.020239  -0.0076946    -0.43936     0.47594   -0.087272   0.0033489
0.061814    0.025761   -0.039851    -0.30879     0.52791   -0.052518  -0.0047713
0.066362    0.027385   -0.069083   -0.088896     0.62341    0.016016   -0.013216
0.070584    0.019589    -0.09929     0.18459     0.72864     0.10274   -0.019388
0.06961    0.003024    -0.13145     0.43729     0.80887     0.18849   -0.021986
0.067661   -0.015815    -0.16003      0.5971     0.84557     0.25572   -0.016789
0.073507   -0.028807     -0.1727     0.62763     0.84298      0.2947  -0.0011985
0.091696    -0.03303    -0.16393     0.51005     0.80985     0.30412    0.020239
0.11541   -0.031406    -0.13469     0.22909      0.7543     0.28236    0.041676
0.13522   -0.028482   -0.090521     -0.1701     0.69227     0.23266    0.057592
0.14496   -0.027833   -0.033679    -0.52186     0.62016     0.16088    0.067986
0.14107   -0.025234    0.029009    -0.60859     0.51362    0.071558     0.06961
0.12093   -0.018088      0.0865     -0.2984     0.36713   -0.029782     0.06084
0.089748   -0.008669     0.12158     0.34667     0.20863    -0.13957    0.043625
0.048497  -0.0057458     0.11931      1.0619    0.082277    -0.24773    0.023487
-0.0031473   -0.013866    0.074482      1.5436    0.026085    -0.33997   0.0069217
-0.063886   -0.032055  0.00042559      1.6274    0.052395    -0.40591 -0.00054884
-0.1217   -0.052518   -0.075904      1.3597     0.13522    -0.44261  -0.0011985
-0.15581   -0.061288    -0.12787      0.9297     0.22779    -0.45008   0.0020496
-0.16068   -0.051544    -0.14054     0.53831     0.27619    -0.43612   0.0046481
-0.14087   -0.028807    -0.11683     0.30964     0.24078    -0.40721   0.0062721
-0.10903  -0.0041217   -0.071032     0.26255     0.10794    -0.36498    0.008221
-0.082725    0.013093   -0.024585     0.32523    -0.10806    -0.31399   0.0065969
-0.064861    0.019914   0.0056225     0.39214    -0.36823    -0.26104   0.0017248
-0.049595    0.015042    0.021538     0.39149    -0.61021    -0.20972  -0.0021729
-0.03173   0.0059473    0.028684     0.32393    -0.76872     -0.1597   0.0017248
-0.0099683  -0.0015233    0.036479     0.24176    -0.80477    -0.11001    0.010819
0.0078962  -0.0044465    0.046873     0.19986    -0.73494   -0.063561    0.015367
0.016991  -0.0063954    0.054993     0.20408    -0.61021   -0.023935    0.009845
0.013093   -0.010293    0.055643     0.21415    -0.48159    0.008221  -0.0073698
0.00042559   -0.017764    0.042651     0.18751    -0.36985    0.036479    -0.03303
-0.01549   -0.023285    0.023487     0.11995    -0.27176    0.063438   -0.060638
-0.031081    -0.02361   0.0095202    0.032906    -0.17497     0.08585   -0.080776
-0.041475   -0.014191    0.014392   -0.051868   -0.066485     0.10436   -0.090521
-0.0405  -0.0028225    0.036479    -0.13534    0.054019     0.12353   -0.091495
-0.028807   0.0017248    0.058241    -0.23051      0.1781     0.14561   -0.088572
-0.0093186  -0.0034721    0.064413    -0.33672     0.29373     0.17095   -0.080776
0.015042   -0.014191    0.046223    -0.44359     0.40221     0.20148   -0.062262
0.037454   -0.024909    0.008221    -0.54233      0.5068     0.24013   -0.033679
0.05207    -0.03303   -0.035953    -0.62515     0.61236     0.28463  -0.0028225
0.052395   -0.041475   -0.073631    -0.70051     0.71143     0.32621    0.018615
0.031932   -0.052193    -0.10286    -0.78269     0.78938     0.35804    0.022188
-0.0093186   -0.068434     -0.1334     -0.8759     0.82804     0.37493   0.0091954
-0.064211   -0.087272    -0.17107    -0.93502     0.81569     0.37395   -0.014516
-0.11651    -0.10026    -0.20355    -0.85479     0.75723     0.36648   -0.036927
-0.13924   -0.092794    -0.20583    -0.57676     0.66823     0.36194   -0.045697
-0.11975   -0.057065    -0.16165    -0.16977      0.5539     0.36096   -0.036278
-0.06551   0.0039985   -0.070707     0.22974     0.40871     0.35674   -0.013866
0.00075039    0.074157    0.037778     0.51817     0.21252     0.34245    0.013418
0.050446      0.1284     0.12548     0.65491   -0.051219     0.31289    0.037454
0.070584     0.14691     0.16023     0.65199    -0.38285     0.25995    0.052395
0.059216      0.1297     0.14399     0.55032    -0.77424     0.18979    0.056942
0.030308    0.090072     0.10047     0.40189     -1.2221     0.10924    0.053044
-0.0024977    0.043625    0.054344     0.24695     -1.6805    0.024137    0.044924
-0.030756   0.0017248    0.020564     0.10177     -2.0524   -0.047321    0.040052
-0.04927   -0.025884   0.0049729   -0.027833     -2.2368   -0.082076    0.041351
-0.056091   -0.036602      0.0014    -0.13599      -2.181   -0.064861    0.044599
-0.04992   -0.033679   0.0020496    -0.22142     -1.9062   -0.007045    0.042326
-0.039201   -0.022636  -0.0015233    -0.31366     -1.4947    0.064413    0.032582
-0.033354  -0.0067202   -0.013216    -0.45528     -1.0445     0.11768    0.016016
-0.029457    0.012768   -0.031081    -0.64757    -0.63555     0.13717  -0.0060706
-0.020037    0.038428    -0.04927    -0.82296    -0.29742     0.12288   -0.028482
-0.0021729    0.068635   -0.064861    -0.89279   -0.036927     0.08585   -0.046996
0.020564    0.095919     -0.0824    -0.80932     0.13457    0.036479   -0.059014
0.040377     0.11086    -0.10741    -0.59462       0.207   -0.019063   -0.065186
0.053694     0.10989    -0.13632    -0.32308     0.19466   -0.072656   -0.063886
0.058241    0.092671    -0.16035   -0.075579     0.13749    -0.11521   -0.057715
0.056617    0.067336    -0.16718     0.10891    0.075781    -0.14152   -0.046671
0.053694    0.041676    -0.14704     0.27229    0.051745    -0.15256   -0.029782
0.050121    0.023487   -0.097991     0.46035    0.074482    -0.14931  -0.0060706
0.050771    0.016341   -0.028157     0.63672     0.12125    -0.13404    0.021538
0.05272    0.016991    0.045574     0.68934     0.15893    -0.10968    0.045249
0.049796    0.016991     0.10566     0.51849     0.16998   -0.083375    0.058241
0.036804    0.008221     0.14756     0.12807      0.1677   -0.064211    0.058566
0.011794  -0.0076946     0.16868    -0.33315     0.17517   -0.064536    0.046873
-0.021012   -0.025559     0.16868    -0.63262     0.18784   -0.094093    0.025111
-0.051219   -0.038876     0.15503     -0.5917     0.18524    -0.15386  0.00010078
-0.070707   -0.043748     0.13684    -0.18342     0.15471    -0.23441   -0.026533
-0.076879   -0.038551     0.12353     0.46425    0.093645    -0.31854   -0.047321
-0.075904   -0.029132     0.11606      1.1424    0.031932    -0.38772   -0.061937
-0.07428   -0.022961     0.10956      1.6589    0.041027    -0.42442   -0.071682
-0.076554   -0.021337     0.10047      1.8967     0.17972    -0.42052   -0.076554
-0.081751   -0.021986    0.084876      1.8392     0.44769    -0.37862    -0.07493
-0.085973   -0.022961    0.062139      1.5576     0.76697    -0.31009   -0.065835
-0.084999   -0.022636     0.03518      1.1613      1.0333    -0.23116   -0.056416
-0.079152   -0.023935   0.0069217     0.76307      1.1642    -0.16295   -0.047646
-0.071357   -0.026209   -0.017439     0.44216      1.1259    -0.11293   -0.040175
-0.070382   -0.030756   -0.035628     0.22941     0.94367   -0.084024   -0.034978
-0.079477   -0.035953   -0.046671     0.11118     0.68642   -0.071032   -0.031081
-0.095068   -0.038551    -0.04927    0.050446     0.43827   -0.059989   -0.026533
-0.10221   -0.034978   -0.046996    0.013418     0.26742   -0.034978   -0.022311
-0.092469   -0.022961   -0.043423   -0.018088      0.2057   0.0091954   -0.021986
-0.064861  -0.0054209   -0.038551    -0.04927     0.24988    0.067011   -0.022961
-0.029782    0.012119   -0.033679   -0.078503     0.37006     0.13002   -0.025884
-0.0044465    0.022512   -0.034654    -0.10514     0.51687     0.18849   -0.031081
0.0043233    0.025111   -0.042124    -0.12982     0.63607     0.22779    -0.03303
-0.0024977    0.024137   -0.054792    -0.15191      0.6848     0.24013   -0.030756
-0.020037    0.024786    -0.06616    -0.17497     0.65361     0.23429   -0.023935
-0.0405     0.02641   -0.071032    -0.19868     0.55812     0.22129   -0.010943
-0.053492    0.026085   -0.069408    -0.21914     0.41715     0.20408   0.0072465
-0.053817    0.023487   -0.064536    -0.23506     0.22487      0.1742     0.02641
-0.047971    0.016341   -0.058365    -0.24935    -0.04927     0.12872    0.037129
-0.044723   0.0056225   -0.052843    -0.26559    -0.39779    0.067986    0.036154
-0.049595  -0.0050961   -0.047646    -0.28086     -0.7541  -0.0034721    0.026085
-0.061288   -0.010618   -0.038227    -0.29482     -1.0315   -0.080127    0.009845
-0.072331  -0.0093186   -0.022311    -0.30879     -1.1809    -0.15256  -0.0080194
-0.070707  -0.0024977  -0.0041217    -0.31626     -1.2202    -0.20843   -0.020037
-0.04927   0.0039985    0.014392    -0.31042     -1.2095    -0.23766   -0.019712
-0.011267   0.0065969    0.024786    -0.31594     -1.2228    -0.24578  -0.0034721
0.036479 -0.00054884    0.017965    -0.39129     -1.3111    -0.25617    0.025111
0.0865   -0.018088   -0.017764    -0.57026     -1.4554    -0.28898    0.057592
0.13782   -0.041799   -0.082076    -0.82004     -1.5729    -0.34777    0.084551
0.18751   -0.058689     -0.1636     -1.0838     -1.5765    -0.41013    0.097218
0.22292   -0.063886    -0.24286     -1.3342     -1.4323    -0.44456    0.090072
0.23006   -0.061288     -0.2919     -1.5216     -1.1572    -0.42507    0.067011
0.2083   -0.053168    -0.28313     -1.4908    -0.79763    -0.34452    0.041351
0.16543   -0.038876    -0.21102     -1.0698    -0.41468    -0.22142    0.024461
0.10891   -0.017439   -0.097666    -0.30262   -0.079802   -0.093444    0.015692
0.042651   0.0020496    0.010819     0.51687     0.14886   0.0059473   0.0072465
-0.02361    0.010819    0.070909      1.0749     0.25085    0.064088 -0.00022403
-0.071032   0.0056225    0.073507      1.2422     0.23201    0.092346 -0.00054884
-0.084999  -0.0080194    0.041351      1.0609     0.10566     0.10761    0.011794
-0.062912   -0.026209  0.00075039     0.68707   -0.095717     0.12288    0.029658
-0.022311   -0.042774    -0.03173      0.3012    -0.31594      0.1336     0.04395
0.014068   -0.057715    -0.04862    0.047847    -0.49458     0.13165    0.046873
0.030308   -0.071682   -0.049595   -0.010618     -0.5839     0.11151    0.032582
0.019914   -0.082725   -0.038876    0.092021    -0.56636    0.077405   0.0023744
-0.012892   -0.090845   -0.026533     0.24338    -0.46307    0.040702   -0.034004
-0.061288   -0.096042   -0.013216     0.30445    -0.31074    0.013743   -0.064536
-0.11488   -0.099615   0.0033489      0.2083    -0.13989  0.00010078   -0.084674
-0.1636    -0.10286     0.01764    0.016666    0.034206  -0.0021729   -0.089546
-0.19121   -0.096367    0.024461    -0.14671     0.20993   0.0043233   -0.080451
-0.18926   -0.074605    0.025761    -0.21395      0.3824    0.011794   -0.060638
-0.15646   -0.034978    0.022837    -0.20745     0.53019    0.013743   -0.037577
-0.098641    0.016016    0.023487    -0.19901     0.63445   0.0026992   -0.019712
-0.032705    0.064413    0.032906    -0.26267     0.68252   -0.027833  -0.0083442
0.022512    0.093645    0.052395    -0.43384     0.68025   -0.079477  -0.0037969
0.05207    0.096569    0.074806    -0.68914     0.64484    -0.14346  -0.0037969
0.051745    0.078055    0.092346    -0.95841      0.5984    -0.20485  -0.0096434
0.032906    0.050121     0.10177     -1.1546     0.56299    -0.25033   -0.023285
0.013093    0.027385     0.10599     -1.2413     0.56657    -0.27469   -0.040175
0.0026992    0.016016    0.095919     -1.2322     0.61301    -0.27241   -0.054792
0.0017248    0.008221    0.056942     -1.1267     0.68285    -0.23896   -0.060313
0.012768  0.00010078   -0.017114    -0.87038     0.76177    -0.17952   -0.048296
0.033231  -0.0041217    -0.10774     -0.3718     0.86571    -0.10059   -0.021986
0.059865   0.0043233    -0.17335     0.37948      1.0174    -0.01614     0.01017
0.085525     0.02641    -0.17984      1.2438      1.2094    0.059541    0.036479
0.10014    0.051745    -0.12657      2.0077      1.3844     0.11346    0.048497
0.09462    0.067661   -0.044073      2.4612      1.4536     0.13587    0.047847
0.066362    0.065712    0.028034      2.4813      1.3016     0.12613     0.03583
0.021538     0.05142    0.070909      2.0805      0.8066    0.097543    0.014068
-0.018088    0.036804    0.089748      1.4143   -0.011267     0.06831   -0.012242
-0.037577    0.033556    0.098193     0.69714    -0.89962    0.046548   -0.038876
-0.032055    0.040052    0.097543     0.10989     -1.5369    0.037129    -0.05804
-0.0083442    0.049796    0.088448    -0.27111     -1.7386     0.03518   -0.067784
0.019914    0.054344    0.064088    -0.48256     -1.5015    0.039402   -0.069408
0.040702     0.05142    0.023487    -0.58618    -0.98407    0.047847   -0.065186
0.05272    0.044275   -0.018413    -0.60696    -0.40234    0.064413   -0.052843
0.061814    0.040052   -0.041475    -0.53681    0.065387    0.093321   -0.026209
0.06831    0.042001   -0.034004     -0.3705     0.32198     0.13555    0.015692
0.073832    0.051745  0.00010078    -0.12982     0.35089     0.17712    0.065712
0.071883    0.060515    0.046223     0.13327      0.1781     0.20311     0.10404
0.059865     0.06019    0.087149     0.35219    -0.15776     0.20213     0.11736
0.036479    0.046548     0.10631     0.47627    -0.58715     0.17485    0.099817
0.0088706    0.023162     0.10014     0.49088     -1.0101     0.12872    0.065062
-0.018088 -0.00087364    0.073832     0.41293     -1.3248    0.075456    0.027385
-0.034329   -0.022636    0.038753     0.28431     -1.4537    0.026735  -0.0034721
-0.039526   -0.038227      0.0014     0.15568     -1.3729  -0.0089938   -0.024909
-0.039526   -0.050244   -0.034654    0.065712     -1.1322   -0.026209   -0.035953
-0.036927   -0.058689   -0.069083     0.01829    -0.82946   -0.028807   -0.035628
-0.03303   -0.062587   -0.091495  -0.0021729    -0.54363   -0.023285   -0.025234
-0.027833   -0.058365   -0.094418   -0.017439    -0.30132   -0.012567   -0.014191
-0.020687   -0.044398   -0.073306   -0.046347   -0.080127   0.0072465  -0.0044465
-0.011917   -0.024585   -0.037577    -0.10903     0.13879    0.032257  -0.0018481
-0.0073698  -0.0063954   -0.007045     -0.2133      0.3392    0.051745  -0.0037969
-0.0083442   0.0017248   0.0062721      -0.339     0.47724    0.058566  -0.0093186
-0.014516  0.00010078    0.011144    -0.45528     0.52921    0.045899   -0.017764
-0.021012  -0.0044465    0.023812    -0.54428       0.512    0.021213   -0.025234
-0.020362  -0.0028225    0.054993    -0.60177     0.46815 -0.00054884   -0.027508
-0.0093186   0.0078962    0.097543    -0.62743     0.45678   -0.010943   -0.020362
0.0075714    0.019589     0.13165    -0.62613     0.53051  -0.0063954   -0.010618
0.024461    0.025761     0.13944    -0.60989     0.69649   0.0039985  -0.0060706
0.032906    0.021213     0.11443    -0.57416      0.8891   0.0069217   -0.011592
0.028359   0.0065969    0.064413    -0.49166      1.0083  -0.0037969   -0.025884
0.010819   -0.013541   0.0052977    -0.32373     0.98622    -0.02426    -0.04862
-0.010293   -0.034654   -0.044073   -0.062587     0.82771   -0.045697   -0.067134
-0.031081   -0.052843   -0.072331      0.2489     0.60392   -0.062912   -0.072331
-0.044723    -0.06551   -0.078827     0.52629     0.40384   -0.072331   -0.059664
-0.047646   -0.070382   -0.069733      0.6705     0.28431    -0.06551   -0.036278
-0.041799   -0.068434   -0.051219     0.61886     0.24858   -0.028482  -0.0076946
-0.032055   -0.060638   -0.028157     0.38954      0.2593    0.038428    0.022188
-0.022636    -0.04862   0.0039985    0.065712     0.27132     0.11963    0.049472
-0.01484   -0.034004    0.046873    -0.24286     0.26157     0.18914    0.065712
-0.0076946   -0.019063    0.095269    -0.44618     0.23429     0.22909    0.066362
-0.0015233  -0.0057458     0.13392     -0.5105     0.20928     0.23656    0.053369
0.0010752   0.0023744     0.15146    -0.45853     0.20376     0.21642    0.032257
0.0014   0.0023744     0.14334    -0.34452     0.22584     0.18167    0.013093
0.0014  -0.0041217     0.11508    -0.23311     0.26774     0.14399 -0.00022403
0.0039985   -0.012242    0.073507    -0.18374     0.32588     0.10859  -0.0050961
0.01017   -0.016464    0.026735    -0.23376     0.39377    0.073507  -0.0037969
0.020239   -0.016789   -0.017439    -0.36921      0.4662    0.032906  -0.0018481
0.034855   -0.011917   -0.047971    -0.53453      0.5448  -0.0063954  -0.0041217
0.051745  -0.0024977   -0.062587    -0.66705     0.62178   -0.034329  -0.0083442
0.072858     0.01017   -0.065186    -0.73007      0.6692   -0.042774   -0.011592
0.088773    0.019264   -0.057065     -0.7083     0.66726   -0.036927  -0.0096434
0.092671    0.022188   -0.043099     -0.5943     0.61204   -0.027508  -0.0050961
0.081952    0.016991   -0.034329     -0.3809     0.51622    -0.03173  0.00042559
0.059541   0.0046481   -0.035953    -0.09182     0.41293   -0.062912   0.0023744
0.03583   -0.007045   -0.050569     0.20993     0.34017    -0.12268  -0.0034721
0.012443   -0.015165   -0.071032     0.44898     0.29827    -0.20031   -0.021661
-0.017114   -0.013866   -0.088247     0.56916     0.24241    -0.27696   -0.050569
-0.058365  -0.0089938   -0.096042     0.55942      0.1271    -0.33737    -0.08305
-0.11131  -0.0031473   -0.088247     0.46263   -0.041799    -0.37862    -0.11033
-0.16977  -0.0021729   -0.064536     0.33887    -0.22661    -0.40071    -0.12268
-0.22109  -0.0076946   -0.032705     0.23429     -0.3783    -0.40006     -0.1204
-0.2539   -0.019388  -0.0083442     0.16705    -0.45853    -0.37083    -0.10481
-0.25877   -0.035303 -0.00054884     0.13457     -0.4621    -0.30619   -0.084024
-0.23376    -0.04862  -0.0089938      0.1219    -0.41338    -0.20258   -0.063886
-0.18309   -0.053168    -0.03173     0.11313    -0.36498   -0.071032   -0.045697
-0.11845   -0.046671   -0.062912    0.099492    -0.37083    0.069285   -0.029132
-0.046347    -0.03238   -0.092794    0.082602    -0.47347     0.19628   -0.012892
0.030957   -0.013541    -0.11358    0.068635    -0.68037     0.29373   0.0036737
0.11378   0.0072465    -0.12235    0.063113    -0.94444     0.35154    0.020239
0.18816    0.029333    -0.11845    0.071883     -1.1828     0.36324    0.032906
0.23039     0.05142    -0.10644     0.09462      -1.316     0.33725     0.03583
0.21772    0.068635   -0.086298     0.12385      -1.315     0.29275    0.027385
0.14626    0.075131   -0.059664     0.15926     -1.1994     0.24793    0.015692
0.037778    0.068635   -0.032705     0.20928     -1.0217     0.21577    0.011794
-0.076554    0.053694   -0.014191     0.26904    -0.83628     0.20278    0.023812
-0.1649    0.036479   -0.011917     0.31549    -0.68232     0.20051    0.056292
-0.19868    0.020239   -0.027508     0.33725    -0.56994     0.19499     0.10501
-0.17107    0.009845   -0.055766      0.3405    -0.48321     0.18004     0.15763
-0.097017   0.0075714   -0.088247     0.32653    -0.40039     0.15341     0.19986
-0.0024977    0.012768    -0.11748     0.29145    -0.29905     0.11606     0.22292
0.084551    0.020564    -0.14346      0.2122    -0.16912    0.065062     0.22292
0.14139    0.028684     -0.1636     0.06831   -0.010293  0.00010078     0.19888
0.1664    0.038103     -0.1636    -0.12235     0.15991   -0.084674     0.15536
0.16121    0.047198    -0.13242    -0.27891     0.33238    -0.19089     0.10112
0.13457    0.052395   -0.073631    -0.31074     0.50615    -0.31561    0.046548
0.088448    0.049796  -0.0080194    -0.19803     0.66855    -0.44651  0.00075039
0.030633    0.040702    0.036479   -0.015165     0.78646    -0.56474    -0.03173
-0.027183    0.027709    0.048172     0.13977     0.81439    -0.65309    -0.04992
-0.067459    0.012443    0.030633      0.2057     0.73839    -0.69531   -0.055766
-0.079802   0.0017248      0.0014     0.16803     0.57826    -0.69174    -0.05804
-0.069408  -0.0028225   -0.018088    0.025761      0.3824    -0.65893   -0.059664
-0.050244  -0.0034721   -0.021986    -0.20875       0.207    -0.61768   -0.064211
-0.033354  -0.0011985   -0.016789    -0.47607    0.081627    -0.57936   -0.068434
-0.019063   0.0062721  -0.0031473     -0.6755    0.012768    -0.53583    -0.06681
-0.0015233    0.021863    0.023162    -0.71772   -0.014516    -0.47184   -0.053168
0.016666    0.040702    0.055318    -0.56571   -0.039201     -0.3783   -0.030431
0.02641    0.053044    0.086824     -0.2552   -0.095717    -0.27306  -0.0099683
0.022512    0.055643     0.11086     0.12353    -0.18894    -0.17659  -0.0015233
0.008221    0.047523      0.1284     0.46425    -0.29547    -0.10579  -0.0083442
-0.0054209     0.03453     0.14172     0.69356     -0.3835   -0.063561   -0.023285
-0.014191    0.021863     0.15114     0.79328    -0.42702    -0.04115   -0.036278
-0.01549    0.013418     0.15698     0.79036    -0.41565   -0.023285   -0.042124
-0.01484   0.0072465     0.16218      0.7267    -0.35654    0.010495   -0.040825
-0.017439      0.0014     0.16218     0.63542    -0.27079    0.081303   -0.039526
-0.024909  -0.0034721     0.15309     0.52986    -0.18082     0.19596   -0.039851
-0.031406   -0.010618      0.1258     0.41163   -0.073955     0.33563   -0.036278
-0.03173   -0.020362    0.070909     0.26287    0.092346     0.47594   -0.024909
-0.022961   -0.037577    -0.01614    0.067011     0.33498     0.59222  -0.0063954
-0.0096434   -0.061937    -0.12398    -0.18114     0.62081     0.66726    0.011794
0.0017248   -0.091495    -0.22824     -0.4621     0.88877     0.68934    0.026085
0.0069217    -0.11586     -0.2971    -0.72422      1.0954     0.65881    0.034855
0.0088706    -0.12203    -0.30359    -0.85804       1.224     0.59677    0.042001
0.015692    -0.10124    -0.23571    -0.73884      1.2717     0.52889     0.05207
0.03518   -0.051219    -0.10546    -0.33802       1.224     0.46198    0.067336
0.06961    0.015692    0.051096     0.20863       1.069     0.39344    0.081627
0.10794    0.077405     0.18394     0.69356     0.81277     0.31646    0.087474
0.13067     0.11606     0.25443      0.9638     0.47789     0.23591    0.082277
0.12613     0.12548     0.24663     0.97063     0.10371     0.16478    0.070259
0.095594     0.10599     0.16965     0.76697     -0.2552     0.11606    0.056617
0.049796    0.066362    0.058241     0.47529     -0.5524    0.089748    0.045574
0.0023744    0.021213   -0.048296     0.21642    -0.76222    0.069934    0.030308
-0.035628   -0.018738    -0.11878    0.068635    -0.88695    0.031607     0.01017
-0.059014   -0.047971    -0.14152    0.048172    -0.94444   -0.039526   -0.012892
-0.063561   -0.064861    -0.11813     0.11378    -0.96977    -0.13599   -0.035628
-0.060963   -0.072656   -0.060638     0.19986     -1.0036    -0.24253   -0.059339
-0.061288    -0.07428   0.0069217     0.25215     -1.0844    -0.34614     -0.0837
-0.06616   -0.072656    0.061814      0.2463     -1.2407    -0.43871    -0.10221
-0.071682    -0.06616    0.090072     0.18427     -1.4615    -0.51017    -0.11163
-0.072006   -0.057715    0.088448    0.082602     -1.6662    -0.54655    -0.11196
-0.061288    -0.04927    0.066686   -0.029457     -1.7418    -0.53811    -0.10546
-0.045047   -0.042449     0.03518    -0.12365     -1.6148    -0.48841   -0.094418
-0.032055   -0.037902   0.0059473    -0.18374     -1.2881     -0.4124   -0.081751
-0.028482   -0.030431    -0.01549    -0.20713     -0.8418    -0.32828   -0.068109
-0.031081   -0.021337   -0.029132    -0.20355    -0.38415    -0.24968   -0.054142
-0.031081    -0.01549   -0.038551    -0.18861  -0.0060706    -0.18536   -0.035628
-0.023285   -0.014516    -0.04927    -0.17724     0.25085    -0.13989   -0.015815
-0.010618   -0.019712   -0.064211    -0.17952     0.38597    -0.11358   0.0023744
-0.0034721   -0.029782   -0.078503    -0.18959     0.42917    -0.10189    0.013093
-0.0057458   -0.042124   -0.085324    -0.20063     0.41748    -0.10221    0.012768
-0.019388   -0.054142   -0.079802    -0.20518      0.3772    -0.10611   0.0036737
-0.036278   -0.062587   -0.065835    -0.20128     0.31127    -0.10156   -0.014191
-0.046347   -0.060313   -0.048296    -0.18959      0.2109   -0.080127   -0.034004
-0.041799   -0.046996   -0.032705    -0.17497     0.05142   -0.046022   -0.048945
-0.019712   -0.025234   -0.021986     -0.1662    -0.19901 -0.00054884    -0.04992
0.010819  -0.0047713   -0.017439    -0.16393    -0.51732    0.049147   -0.034654
0.042651    0.012443   -0.016464    -0.16458    -0.82523     0.09397   -0.010618
0.070909    0.025761   -0.015165     -0.1675     -1.0224     0.13002    0.014068
0.091696    0.036479  -0.0093186     -0.1688     -1.0377     0.15893    0.031607
0.098517    0.042975 -0.00087364    -0.15678    -0.87168     0.17745    0.036154
0.092671    0.047523   0.0078962     -0.1256    -0.60047     0.18102    0.027709
0.080328    0.047847     0.01017   -0.097017    -0.31431     0.17387    0.010495
0.065712    0.042001   0.0023744    -0.10579   -0.075255      0.1638  -0.0096434
0.050446    0.029333   -0.017114      -0.174     0.11151     0.15861   -0.026858
0.036804    0.014392   -0.039526    -0.29807     0.28268     0.16185   -0.038227
0.030957    0.003024   -0.052518    -0.47509     0.49218     0.16835   -0.047971
0.032257  -0.0073698   -0.049595     -0.7122      0.7673      0.1664   -0.065186
0.031932   -0.019712   -0.040175    -0.99966      1.0863     0.15016   -0.088896
0.016341   -0.031406   -0.041475     -1.3024      1.3744      0.1271    -0.11033
-0.020687   -0.037252   -0.063237     -1.5944      1.4962     0.10729    -0.11715
-0.076879   -0.035628   -0.098316     -1.8442      1.2746    0.092021    -0.10838
-0.13664   -0.026533    -0.12625     -1.9293     0.60944    0.076106   -0.088247
-0.17952  -0.0089938    -0.11683     -1.6392    -0.34452     0.06831   -0.058365
-0.19089    0.017965   -0.053817    -0.85642     -1.2153    0.079029   -0.017439
-0.1701     0.05207    0.048822     0.27456     -1.7025     0.11313    0.035505
-0.12885    0.084226     0.15244      1.3916     -1.7087     0.16348    0.094945
-0.076554     0.10404     0.21707      2.1841     -1.3381      0.2148     0.14724
-0.027183     0.10631     0.22194       2.481     -0.7999     0.24695     0.18134
0.0091954    0.091696       0.169       2.238     -0.2893     0.24728     0.18946
0.02706    0.066686     0.07773      1.5358    0.079354     0.21317     0.17192
0.028359     0.03518   -0.025559     0.58865     0.27781     0.15893     0.13944
0.020564   0.0075714    -0.11228    -0.32276     0.34277     0.10989     0.10631
0.013418  -0.0099683    -0.16653    -0.98991     0.35057    0.088124    0.084551
0.013418    -0.01614    -0.18796     -1.3891     0.37103    0.098842    0.074482
0.019589   -0.012892    -0.18666     -1.5271     0.44574     0.13262    0.070909
0.030633  -0.0011985    -0.16653     -1.3345       0.588     0.17355    0.071558
0.046223    0.019914    -0.12138    -0.71577     0.78386     0.20668    0.072208
0.062464    0.046873   -0.062587     0.26352     0.99109     0.22097    0.067011
0.073507    0.069934   -0.010943      1.2922      1.1506     0.21577    0.053694
0.073832    0.081952    0.024786      2.0522      1.2207     0.19369    0.031282
0.064737    0.079029    0.045574      2.3611      1.1915     0.16283   0.0091954
0.049472    0.064413    0.054993      2.2137      1.0843     0.13587  0.00042559
0.03453    0.042651    0.051745      1.7531     0.94172     0.12093   0.0065969
0.024461    0.021213    0.040702      1.1977     0.80627     0.11768    0.023487
0.020888   0.0046481    0.031282     0.73709     0.69909     0.11801    0.039727
0.021213  -0.0076946    0.028684     0.46555     0.61756     0.10826      0.0433
0.015692   -0.018738    0.033881     0.37136     0.54448    0.074482    0.028034
0.0026992    -0.03173    0.045249     0.38175     0.46295    0.014392  -0.0057458
-0.013866   -0.045047    0.059541     0.41813     0.36941   -0.056741   -0.044073
-0.026209   -0.052518    0.074806     0.41553     0.28138    -0.12333   -0.072656
-0.029782   -0.052193    0.086824     0.34342     0.22389     -0.1701   -0.084349
-0.026533   -0.043748    0.091047      0.2109     0.21512    -0.19511   -0.080451
-0.025559   -0.034004    0.082277    0.050121     0.25767    -0.20583   -0.071032
-0.030106   -0.027508    0.057917    -0.11326     0.33465      -0.212   -0.067134
-0.040825   -0.027833    0.017316    -0.26299     0.40806    -0.22239   -0.069408
-0.047971    -0.03303   -0.033679    -0.37505     0.45288    -0.23668   -0.069408
-0.042774   -0.039526   -0.079477     -0.4202     0.46782    -0.24545   -0.054467
-0.023285   -0.038227    -0.10286     -0.4189      0.4649    -0.24123   -0.020687
0.0075714   -0.026533    -0.09994    -0.44131     0.46458     -0.2172    0.021213
0.037129  -0.0060706   -0.076879    -0.52316     0.47594      -0.174    0.057267
0.055643    0.019264   -0.045047    -0.63165     0.48731    -0.12268    0.081627
0.059216    0.042975   -0.019388    -0.73364     0.48406   -0.076229    0.090072
0.050446    0.055968  -0.0047713    -0.83465     0.46003   -0.040175    0.083251
0.033231    0.054668  -0.0041217    -0.96263     0.41163    -0.01484    0.067986
0.011469    0.039078   -0.017114      -1.128     0.34245   0.0049729    0.046223
-0.0083442    0.014392   -0.035628     -1.3089     0.26449     0.02641    0.020239
-0.019712   -0.010293   -0.053168     -1.4739     0.18362    0.055643   -0.008669
-0.01614   -0.029782   -0.062262      -1.558    0.092346    0.090397   -0.031406
0.00010078   -0.037577   -0.060638     -1.4456   -0.028482     0.11898    -0.04992
0.019589   -0.031081   -0.046022     -1.0302    -0.17107      0.1245   -0.061937
0.023162   -0.012892    -0.01484    -0.30977    -0.30294    0.099817   -0.071357
0.0046481    0.009845    0.030308     0.56332    -0.40136    0.041351     -0.0824
-0.029132     0.02706    0.074806      1.3484    -0.46372   -0.038227   -0.094743
-0.06551    0.030308     0.10534      1.8801    -0.50855    -0.11488    -0.10709
-0.094093    0.013093     0.11866         2.1      -0.593    -0.17887    -0.10968
-0.11001   -0.014516     0.11378      2.0298    -0.75573    -0.22044    -0.09994
-0.11098   -0.042774    0.089423      1.7281    -0.96328    -0.24383   -0.075579
-0.10091   -0.061288    0.044599      1.2746     -1.1585    -0.26104   -0.042774
-0.088572   -0.070382  -0.0096434     0.77022      -1.303     -0.2867   -0.012567
-0.078178   -0.078503   -0.050569     0.31841     -1.3664    -0.33088   0.0017248
-0.073306   -0.086948   -0.063886   -0.025234     -1.3011    -0.39844  -0.0037969
-0.079477   -0.095068   -0.052843    -0.26689     -1.0442    -0.48224   -0.022961
-0.095393    -0.10254   -0.029457    -0.44748    -0.57286    -0.56279   -0.045047
-0.10741    -0.10481  -0.0067202    -0.60177    0.046223    -0.61508   -0.060638
-0.10124    -0.09929    0.010495    -0.73461     0.66596    -0.61898   -0.063237
-0.075579   -0.084674    0.019914    -0.83173      1.1593    -0.56506   -0.050894
-0.036602   -0.064211    0.020239    -0.88955      1.4585    -0.46048   -0.027833
0.0020496     -0.0405    0.016666    -0.91553      1.5468    -0.33153  -0.0037969
0.035505   -0.016464    0.012768    -0.90124      1.4504    -0.21362    0.013418
0.062789   0.0056225     0.01017    -0.81062       1.224    -0.12755    0.022188
0.083576    0.022188   0.0069217    -0.61898     0.93879   -0.074605    0.026085
0.09397    0.034855   0.0017248    -0.34355     0.64874   -0.041799    0.018615
0.089098    0.040377   -0.011592   -0.050244     0.38922    -0.01549  -0.0099683
0.061489     0.03518   -0.042774     0.19596     0.16478   0.0088706   -0.061288
0.0095202    0.015692    -0.09182     0.36259   -0.031081    0.027709    -0.12138
-0.056091  -0.0099683    -0.14184     0.44216    -0.21135    0.041676    -0.16782
-0.11878   -0.030106    -0.17497     0.42592    -0.39259    0.056617    -0.18114
-0.16165   -0.037902    -0.18147     0.30607    -0.61184    0.075781    -0.16068
-0.17594   -0.035303    -0.15256     0.10664    -0.90481    0.096244    -0.11878
-0.15938    -0.02361   -0.081426    -0.10254     -1.2403     0.11248   -0.066485
-0.11521 -0.00022403    0.031282    -0.23636     -1.5317     0.12743   -0.012242
-0.053492    0.030308     0.16673    -0.24968     -1.6944     0.14269    0.037778
0.0078962    0.055318     0.29373    -0.18049     -1.6973     0.15341    0.074157
0.054344    0.065062     0.37428     -0.1308     -1.5749     0.15503    0.090722
0.080003    0.055643     0.38013    -0.18764     -1.4047     0.15049    0.091047
0.084551    0.031932     0.30964    -0.35296     -1.2582     0.14399    0.079679
0.072533   0.0010752     0.18557    -0.55694     -1.1686     0.13555    0.060515
0.049796   -0.025884    0.045574    -0.73494      -1.128     0.12678    0.037129
0.020888     -0.0405   -0.075904    -0.86486     -1.0974     0.11638    0.015692
-0.0057458   -0.039851    -0.15613    -0.94476     -1.0318     0.10339  -0.0015233
-0.019712   -0.025234    -0.17984    -0.94541    -0.88695    0.090072   -0.012892
-0.011267   0.0017248    -0.14671    -0.84992    -0.64269    0.081303   -0.015165
0.009845    0.034855   -0.072006    -0.70571    -0.32276    0.077405  -0.0096434
0.024461    0.063438    0.022188    -0.57903    0.013743    0.070909  0.00075039
0.01894    0.083901     0.11054     -0.4686     0.30607    0.053044    0.010495
-0.0063954    0.092671     0.17615    -0.29028     0.51427    0.022837    0.015042
-0.035303    0.089423     0.20863    0.040052     0.62406   -0.019063    0.012443
-0.052518    0.078379     0.20051      0.5159      0.6312   -0.070707   0.0026992
-0.04992    0.057917     0.15406       1.009     0.53928    -0.12365   -0.010293
-0.032705    0.028359      0.0852      1.3484     0.36908    -0.16198    -0.02426
-0.0089938  -0.0034721    0.012768      1.4432     0.15114    -0.17367   -0.043423
0.015042   -0.029782   -0.046022      1.3276   -0.071357    -0.15808   -0.067459
0.031607    -0.04927   -0.084674      1.1194    -0.25455    -0.11943   -0.090845
0.044924   -0.062262    -0.10546     0.92645    -0.36466   -0.063561    -0.10156
0.052395   -0.069083    -0.11293     0.79166    -0.38317   0.0036737   -0.090196
0.044599   -0.069083    -0.11131     0.69844    -0.31464    0.078379   -0.054792
0.016016   -0.064211    -0.10579     0.59775    -0.19251     0.14464  -0.0054209
-0.026533   -0.054467    -0.10286     0.45451   -0.051219     0.18622    0.038753
-0.064536   -0.043099    -0.10741     0.27099    0.078704     0.19271    0.065387
-0.084024   -0.029132    -0.11943    0.073507     0.18264     0.16023     0.06961
-0.078178    -0.01614    -0.13697    -0.10644     0.25962     0.10079    0.056617
-0.059989  -0.0073698    -0.15516     -0.2461     0.32588    0.037778    0.041676
-0.046022   -0.007045    -0.16782    -0.34387     0.41748  -0.0024977    0.039402
-0.043099   -0.013866    -0.17627     -0.4163     0.57371  -0.0018481    0.057917
-0.047321   -0.021337    -0.18471    -0.48061     0.78256    0.035505    0.091372
-0.047646   -0.023285    -0.19576    -0.53291     0.99044    0.081303     0.12353
-0.042124   -0.017439    -0.20193    -0.55402      1.1382    0.094295     0.13944
-0.03173  -0.0021729    -0.19576    -0.50433      1.1973    0.053694     0.13392
-0.01484    0.020888     -0.1688    -0.36109      1.1681   -0.030106     0.11151
0.0088706    0.045574    -0.12755    -0.14152      1.0681    -0.12398     0.07708
0.031932    0.066362   -0.082725    0.096893     0.92938    -0.19608    0.041351
0.051096    0.078055   -0.047646     0.28463     0.78451    -0.23214    0.012443
0.063113    0.080003    -0.03303     0.37201     0.65199    -0.23019  -0.0018481
0.066362    0.072208   -0.039526     0.35869     0.54058    -0.19283 -0.00054884
0.063763    0.062139   -0.059664     0.28691     0.46035    -0.12365     0.01017
0.056942    0.056617   -0.082076     0.21772     0.42268   -0.036602    0.022837
0.048822    0.055968   -0.094418     0.18784     0.40871    0.044599    0.029658
0.034855    0.057592    -0.09117     0.17257     0.37201     0.10371    0.026085
0.017965     0.05142   -0.077528     0.11281      0.2619     0.13457    0.008221
0.0046481    0.033881   -0.059664  -0.0080194    0.053694     0.14302   -0.018738
-0.0011985    0.011794   -0.034654    -0.14899    -0.23311     0.13879   -0.045047
0.0023744  -0.0031473  -0.0011985    -0.26754    -0.55824     0.13165   -0.059664
0.015367  -0.0050961    0.036804    -0.34809    -0.89117     0.12645   -0.056741
0.036479   0.0010752    0.063763    -0.38674     -1.1929     0.11963   -0.039201
0.061165   0.0075714    0.063438    -0.39162     -1.3949     0.10794   -0.014191
0.082277   0.0088706    0.029009    -0.36596     -1.4248    0.093321    0.012768
0.087799   0.0023744   -0.024909    -0.31496     -1.2666    0.074482    0.035505
0.070259  -0.0096434   -0.077203    -0.24221    -0.96133    0.054019    0.047523
0.039078   -0.017764    -0.10644    -0.15061    -0.59202    0.032582    0.045574
0.012119    -0.01614    -0.10319   -0.046996    -0.26299   0.0059473    0.037454
0.0049729  -0.0031473   -0.067134    0.052395   -0.072981   -0.026858    0.028684
0.01764    0.014392   -0.016789      0.1245   -0.070382   -0.069408    0.019589
0.043625    0.029009    0.031607     0.15276    -0.22012     -0.1256    0.009845
0.071883    0.032906    0.065062     0.14172    -0.44099    -0.19576 -0.00022403
0.090397    0.029333    0.084551     0.11443    -0.64269    -0.27599  -0.0083442
0.09397    0.023487    0.098193    0.092346     -0.7515    -0.35264   -0.016789
0.078379    0.022188     0.11411    0.086824    -0.73299     -0.4163   -0.028807
0.046223    0.024137      0.1323     0.10209    -0.60794    -0.46307   -0.045047
0.0010752    0.028359     0.15049     0.14367    -0.43352    -0.49068    -0.06551
-0.04927    0.029009     0.16478     0.20538    -0.27371    -0.49556   -0.090196
-0.097017    0.024786     0.17517     0.26904    -0.17075    -0.46925    -0.11456
-0.12527     0.01894      0.1755     0.31419    -0.14184    -0.40818    -0.13372
-0.12722    0.012119     0.16413     0.32653    -0.18926    -0.31139    -0.13859
-0.10741    0.003024     0.14302      0.2986    -0.27761    -0.19608    -0.12495
-0.081101  -0.0096434     0.11638      0.2135    -0.34972   -0.086948   -0.096042
-0.056416   -0.026858    0.084226    0.061489    -0.34484  -0.0028225   -0.063561
-0.035953   -0.047646    0.045249    -0.14216    -0.21687     0.05272   -0.037902
-0.019388   -0.069733    0.008221    -0.35199    0.033556    0.083251   -0.020687
-0.0018481   -0.086623   -0.014191    -0.51797     0.36453    0.098517  -0.0057458
0.014392   -0.089871   -0.012242     -0.5969     0.70233     0.10436    0.010495
0.028034   -0.077853    0.012768    -0.55077      0.9716     0.10436    0.028684
0.036804   -0.059014    0.042975    -0.37018      1.1239    0.099817    0.042975
0.036154   -0.046022    0.057592    -0.10644      1.1652    0.093645    0.047523
0.031282   -0.044073    0.047847     0.15211      1.1499    0.092021    0.042651
0.023812   -0.047321    0.022188     0.33205      1.1298    0.098517     0.03583
0.01894   -0.045372   -0.010293     0.40611      1.1411     0.11118    0.029983
0.01764   -0.034004   -0.045047     0.39344      1.1993     0.12093    0.022188
0.020564   -0.016789   -0.078178     0.33985      1.3003     0.12418    0.012443
0.02706   0.0020496    -0.10156     0.29145      1.4059     0.11963    0.003024
0.03583    0.016666    -0.11618     0.28041      1.4445     0.11411  -0.0021729
0.042001    0.021863    -0.12722     0.31549      1.2906     0.11671  -0.0034721
0.04395    0.016991    -0.13404     0.36259      0.7962     0.13067  -0.0015233
0.040702   0.0072465    -0.13599     0.34959   -0.056416     0.14756  0.00042559
0.032906  -0.0050961    -0.12885     0.23494     -1.0237     0.15666   0.0043233
0.028034    -0.01614    -0.11326    0.078055     -1.7578     0.16218    0.011469
0.033556   -0.022311   -0.086948  -0.0089938     -2.0303     0.17062    0.027385
0.047847   -0.018738   -0.047646    0.022512     -1.8081     0.18914    0.054668
0.064413  -0.0034721  -0.0050961     0.11281     -1.2407      0.2135     0.08585
0.075456    0.014717    0.028034     0.16185    -0.57026     0.23851     0.10989
0.078055    0.028359    0.038103     0.12093   -0.010293     0.25605     0.12028
0.073507    0.031282    0.022512   0.0059473     0.32946     0.26319     0.11508
0.066362    0.021538   -0.010943    -0.12755     0.45386      0.2554    0.099817
0.06019   0.0049729   -0.048296    -0.22467     0.43599     0.23299    0.079029
0.054019   -0.008669   -0.076554     -0.2552     0.36161     0.20116    0.059216
0.050121   -0.010618   -0.084024    -0.22402     0.29145     0.16478    0.044924
0.048822  -0.0028225   -0.072006    -0.15808     0.24468     0.13197    0.036154
0.051096   0.0091954   -0.047321   -0.090196     0.21512     0.11021    0.031607
0.049472     0.01829   -0.020687   -0.043423     0.18427     0.10242    0.027709
0.042001    0.019589   0.0020496   -0.026533      0.1245     0.10404    0.022837
0.033556    0.011469    0.021538   -0.035953   0.0052977     0.10404    0.014717
0.031932 -0.00054884    0.039402   -0.059989    -0.19511    0.093645   0.0010752
0.04395   -0.013541    0.054019   -0.083375    -0.44748    0.070259   -0.017439
0.06831   -0.022311    0.063763   -0.097017    -0.68102    0.041676   -0.040825
0.094295   -0.023935    0.069934    -0.10124    -0.81387    0.020239   -0.067459
0.10469   -0.019388    0.075456    -0.09994     -0.8012    0.016341    -0.09117
0.090397   -0.010618    0.084551   -0.096042    -0.65796    0.028034    -0.10481
0.044599 -0.00087364     0.09462   -0.085973    -0.42865    0.042975    -0.10968
-0.031081   0.0078962    0.098193   -0.070707    -0.16718    0.046548    -0.11488
-0.13177    0.012443    0.093321   -0.053817      0.0865    0.032257    -0.12073
-0.23376    0.017965    0.083251   -0.039526     0.30964 -0.00022403    -0.12333
-0.30814    0.024137    0.075456    -0.03173     0.49381   -0.046996    -0.11943
-0.33835    0.030308    0.071234   -0.035953      0.6377   -0.096042    -0.10709
-0.32731    0.033231     0.06831   -0.054792     0.73644    -0.13729   -0.089546
-0.28963    0.028034    0.062789    -0.08305     0.79068    -0.16295   -0.073306
-0.24156    0.013743    0.046223    -0.12268      0.8079     -0.1701   -0.058689
-0.19316  -0.0057458    0.016991    -0.17724      0.7962    -0.15321   -0.044398
-0.14639   -0.023935   -0.019063    -0.25747       0.766    -0.11748   -0.025884
-0.099615   -0.034978   -0.053168    -0.36758     0.73157   -0.078503  -0.0018481
-0.047646   -0.035628   -0.081101     -0.4975     0.70331   -0.044073    0.021863
0.0078962   -0.026858    -0.10026     -0.5891     0.68415   -0.013541    0.042651
0.058891   -0.012242    -0.10124    -0.52251     0.66433    0.019914    0.059541
0.091696   0.0085458   -0.074605    -0.21102     0.61464    0.057267    0.074157
0.10339    0.032582   -0.021337     0.27716     0.49153    0.092671    0.080978
0.096893    0.058241    0.047198     0.76048     0.25605     0.11995    0.081952
0.082277    0.083251     0.10631      1.0677    -0.12235     0.13392    0.075781
0.061165    0.097218     0.13425      1.1067    -0.62288     0.12807    0.063438
0.033556    0.093645      0.1219     0.89007     -1.1582     0.10566    0.044924
0.0036737    0.072533    0.075131     0.52856     -1.6135    0.078704    0.019914
-0.022961    0.042651    0.011794     0.16608     -1.8822     0.06084  -0.0063954
-0.041799    0.012443    -0.04992   -0.080776     -1.8958    0.063438   -0.027833
-0.053817   -0.010618    -0.10026    -0.17237     -1.6639    0.099167   -0.041475
-0.064536   -0.026209     -0.1282    -0.14281     -1.2829     0.17712   -0.046996
-0.076229   -0.032705    -0.13242   -0.058365    -0.87558     0.29243   -0.045372
-0.086623   -0.029457     -0.1204    0.020239    -0.54265     0.41326   -0.039201
-0.088896   -0.020362    -0.10579    0.060515    -0.36823     0.50355   -0.027833
-0.08305   -0.012892   -0.097017    0.066362    -0.37927     0.53506    -0.01484
-0.073955   -0.012242   -0.097341    0.054344    -0.49491     0.49933  -0.0063954
-0.068434   -0.020037    -0.10319      0.0433    -0.57416     0.40871  -0.0063954
-0.070707   -0.032055    -0.11293    0.054019    -0.50238     0.28691   -0.016464
-0.081101   -0.043423    -0.12333    0.080328    -0.26039     0.15536   -0.037252
-0.093769    -0.04927     -0.1243    0.074806    0.072533    0.029333   -0.063237
-0.10221   -0.044723    -0.11001    -0.01484     0.38142   -0.086623   -0.088896
-0.096692   -0.030756   -0.082725      -0.212     0.57923    -0.19186    -0.10286
-0.076229   -0.013216   -0.051219    -0.51342     0.64289    -0.28151   -0.099615
-0.043423   0.0036737   -0.026858    -0.90709     0.60587    -0.35232   -0.079477
-0.0067202     0.01829   -0.010293     -1.3615     0.51914    -0.40234   -0.046996
0.02641    0.033556   0.0059473     -1.7464     0.43469    -0.43027  -0.0050961
0.053369     0.05142    0.037454     -1.8481     0.38175    -0.44001     0.03583
0.06831    0.070584    0.082277     -1.5476     0.35706    -0.44489    0.064737
0.067011    0.084551     0.12418    -0.95126      0.3392    -0.46113    0.071234
0.053694      0.0852     0.13814    -0.28768     0.30412    -0.49458    0.056942
0.034855     0.06961     0.11541      0.2515     0.24533    -0.54135    0.035505
0.01764    0.042001    0.069285     0.60684     0.17777    -0.59462     0.01829
0.0075714    0.011469    0.021213     0.83291     0.12872    -0.64627    0.011144
0.0039985   -0.013216  -0.0063954       1.008     0.11638    -0.68817    0.011469
0.0023744   -0.028482  -0.0096434      1.1642     0.14237     -0.7135    0.015042
0.00042559   -0.034329  -0.0021729      1.2714     0.18979       -0.72    0.012768
-0.0028225    -0.03303  0.00075039       1.272     0.24273    -0.70376 -0.00087364
-0.0057458   -0.027183  -0.0067202      1.1441     0.29145    -0.66835   -0.019712
-0.013541   -0.020362   -0.017764     0.92548     0.33108    -0.61476   -0.043748
-0.02426   -0.014191   -0.017114     0.68415     0.36291    -0.54265   -0.064211
-0.032055  -0.0076946   0.0043233     0.49056     0.39377    -0.44976    -0.07428
-0.03303  0.00042559    0.048497     0.39214     0.42332    -0.33737   -0.069408
-0.027183   0.0075714     0.10501     0.39442     0.44151    -0.21525   -0.053168
-0.015165    0.013743     0.15633     0.47302      0.4282   -0.096042   -0.033354
0.00042559    0.016341     0.18589     0.58216     0.35674   0.0043233   -0.016789
0.014068    0.014392     0.18232     0.65621      0.2187    0.075781  -0.0054209
0.024461   0.0049729     0.13879     0.60359    0.044924     0.11833   0.0017248
0.030308   -0.010943    0.059216     0.35771    -0.11098     0.14074   0.0075714
0.028684   -0.032705   -0.039201    -0.07428    -0.20128     0.15309    0.014392
0.021538    -0.05804    -0.13469    -0.61346     -0.2055      0.1638    0.025436
0.019589   -0.075904    -0.20485     -1.1595    -0.13729     0.18264    0.045899
0.029333   -0.078827    -0.23766     -1.6353   -0.038227     0.20765    0.071558
0.04395    -0.06616    -0.23474     -1.9643    0.049147     0.23201    0.096244
0.056942    -0.04992    -0.21037     -2.0355     0.10112      0.2554     0.11281
0.068635   -0.034654    -0.17757     -1.7493     0.11248     0.27554     0.11931
0.078379   -0.019388    -0.15061     -1.1055     0.10306     0.29178     0.11736
0.082602  -0.0050961    -0.13047    -0.22889    0.098193      0.2999     0.11151
0.081303   0.0062721    -0.11001     0.69454     0.11086     0.29275     0.10696
0.07773    0.015367   -0.081751      1.4877     0.13457     0.26807     0.10956
0.07773    0.019264   -0.050894      2.0467     0.14107     0.23624     0.12255
0.079354    0.016341   -0.028157      2.3244     0.10306     0.20993     0.13977
0.081627   0.0088706   -0.025559      2.3423    0.019264     0.18914     0.14919
0.080003  -0.0011985   -0.039201      2.1588   -0.088247     0.16056     0.14269
0.073182   -0.010943   -0.055766      1.8418    -0.19056     0.11378     0.11703
0.063113   -0.017439   -0.061937      1.4582    -0.26657    0.048822    0.079029
0.061489   -0.017439   -0.049595       1.059    -0.30489   -0.020362     0.03518
0.067986  -0.0099683   -0.021661       0.677    -0.31171   -0.079152  -0.0076946
0.074482 -0.00087364    0.010495     0.33498    -0.28053    -0.11943   -0.043748
0.071883   0.0036737    0.033556    0.047523    -0.18277    -0.13892   -0.070058
0.055643 -0.00087364    0.044275    -0.17627  -0.0093186    -0.14509   -0.087922
0.030633   -0.010943      0.0433    -0.33348     0.20246    -0.13827    -0.10091
0.0085458   -0.021986     0.03583    -0.43579     0.37818    -0.12203    -0.10774
-0.0041217   -0.030106    0.029658    -0.49361     0.44509   -0.094743    -0.10644
-0.0063954   -0.033679    0.033556    -0.52219     0.34797   -0.056416   -0.095717
-0.0050961    -0.03173    0.050446    -0.53356    0.071883  -0.0096434   -0.081101
-0.0047713   -0.025884     0.07708    -0.53453    -0.34842    0.039078   -0.066485
-0.0083442   -0.020687     0.10404    -0.52771    -0.81776    0.078704   -0.053168
-0.013866   -0.021012     0.12093    -0.51699     -1.2131     0.10047   -0.046996
-0.017114   -0.029782     0.12385     -0.5079     -1.4294     0.10047   -0.051219
-0.018413   -0.039851     0.11476    -0.50335     -1.4112    0.080328   -0.063237
-0.017439   -0.043748     0.10144    -0.50075     -1.1747    0.046548   -0.079477
-0.01484   -0.037252    0.091696    -0.49426    -0.79308    0.012443   -0.093119
-0.011917   -0.021012    0.088448    -0.47737    -0.37765   -0.010618    -0.10026
-0.010618  -0.0050961    0.088124    -0.44878   -0.031406   -0.021661    -0.10221
-0.007045      0.0014      0.0852    -0.41273     0.18069   -0.022961   -0.095068
-0.00054884  -0.0044465    0.073182    -0.38187     0.24208   -0.021337    -0.07428
0.0017248   -0.018738    0.046873    -0.36791     0.18687   -0.022636   -0.045372
-0.0096434    -0.03173    0.010495    -0.37992    0.099817    -0.03238   -0.019712
-0.035953   -0.035628   -0.027508    -0.41728    0.074157   -0.055116   -0.007045
-0.071682   -0.029782   -0.059989    -0.46925     0.16023   -0.089871  -0.0073698
-0.10903   -0.019388   -0.084349    -0.51894     0.35934    -0.12463   -0.013216
-0.14801  -0.0076946    -0.10221    -0.55435     0.60749    -0.13729   -0.013216
-0.19381   0.0010752    -0.11423    -0.57253     0.80985    -0.11228   0.0036737
-0.24513   0.0052977     -0.1217    -0.57253     0.86409   -0.054142    0.035505
-0.28833   0.0039985     -0.1269    -0.55857     0.71013    0.015692     0.06831
-0.30619  -0.0015233    -0.12885    -0.53583     0.38207    0.071883    0.088448
-0.28735  -0.0047713    -0.12852    -0.51504   0.0046481     0.10047    0.090397
-0.23474  -0.0034721     -0.1256     -0.5014    -0.27079    0.097543    0.076106
-0.16685 -0.00087364    -0.12008    -0.49588    -0.36109    0.070584    0.050121
-0.10156 -0.00087364    -0.11131    -0.49133    -0.28313    0.033881    0.021863
-0.048945   -0.007045    -0.10156    -0.47899    -0.11553   0.0020496  -0.0034721
-0.010618   -0.015165   -0.089221    -0.45203    0.048497   -0.010293   -0.020037
0.01829   -0.021986   -0.076879     -0.4124     0.13327    0.012119   -0.027183
0.047198   -0.021012   -0.063886    -0.35849    0.098193    0.079679   -0.021986
0.083251   -0.011917   -0.046996    -0.30002   -0.062912     0.18784  -0.0044465
0.1219   0.0043233   -0.028482    -0.24838    -0.35069     0.31809    0.022188
0.15081    0.016666   -0.012892     -0.2042    -0.74403     0.43502    0.042975
0.15731    0.022837  -0.0011985    -0.15743     -1.1712     0.50128    0.048172
0.13977    0.022512   0.0085458    -0.10871     -1.5219     0.49446    0.034206
0.10761    0.016666    0.013093    -0.07428      -1.709     0.41423   0.0065969
0.074157   0.0062721    0.009845   -0.078178      -1.699     0.28431   -0.029132
0.050446  -0.0080194   -0.008669    -0.14022     -1.5174     0.13684    -0.06551
0.041351   -0.023935   -0.046996    -0.26884     -1.2312  -0.0018481   -0.094743
0.046223   -0.039851   -0.097341    -0.45495    -0.91066    -0.11163    -0.11033
0.056942    -0.04862    -0.14119    -0.63815    -0.60924    -0.17757    -0.10709
0.066362   -0.041799    -0.14996    -0.71935    -0.34972    -0.18764   -0.089221
0.070584   -0.010943    -0.10709    -0.61833    -0.13469    -0.14964   -0.064861
0.069285    0.036154    -0.01484    -0.32601     0.05207   -0.082076   -0.038227
0.064088    0.084551    0.097543    0.078379     0.22454  -0.0044465   -0.010293
0.058891     0.11541     0.19206     0.45938     0.39117     0.06831    0.017965
0.055318     0.11898     0.24176     0.70753     0.55682      0.1258    0.044275
0.05142    0.097218     0.23786     0.77996     0.72734      0.1625    0.067011
0.045574    0.059541     0.18654     0.70558     0.91021     0.17485    0.084226
0.037778     0.01764     0.11118      0.5435      1.1126     0.15926    0.096893
0.029333   -0.017439    0.038428     0.35706      1.3276     0.11768     0.10177
0.022512   -0.039851   -0.015165     0.18492      1.5059    0.054019    0.096569
0.010819   -0.048945    -0.04992    0.050446      1.5446   -0.022961      0.0852
-0.0083442   -0.046996   -0.072006   -0.034654      1.2847   -0.097017    0.073507
-0.033679   -0.040825   -0.085973   -0.076229     0.62146    -0.15386    0.063113
-0.058689   -0.033679   -0.096692   -0.094418    -0.32438    -0.18439    0.059216
-0.079152   -0.028807    -0.10026    -0.10741      -1.216    -0.18634    0.057592
-0.098641    -0.02426   -0.096042    -0.10579     -1.7483    -0.16425    0.055643
-0.1204   -0.017114   -0.077853   -0.050244     -1.7769    -0.12852    0.049796
-0.13892  -0.0050961   -0.038551    0.095269     -1.3534   -0.094743    0.037778
-0.14541    0.014717    0.016666     0.31711    -0.67615   -0.079802    0.017965
-0.13469    0.034855    0.072858     0.55097    0.017965   -0.095068  -0.0096434
-0.11228    0.047523     0.11346      0.7254     0.53863    -0.13827   -0.046022
-0.084674    0.050771     0.12905     0.79328     0.81147    -0.19901    -0.08305
-0.059339    0.045249     0.12158     0.73969     0.86182    -0.27014    -0.11098
-0.042449     0.03583    0.099817     0.58735     0.77639     -0.3338     -0.1217
-0.033679    0.028034    0.068635     0.38175     0.65199    -0.36758    -0.11163
-0.029457     0.01764    0.032582     0.17485     0.55487    -0.35264   -0.086948
-0.02426  0.00075039  -0.0076946   0.0046481     0.49511    -0.28605   -0.059014
-0.020362   -0.022961    -0.04862    -0.11845     0.42852    -0.18147   -0.034654
-0.021986   -0.048296   -0.084349    -0.20096     0.31809   -0.064211   -0.019712
-0.027183   -0.065835    -0.10741     -0.2565     0.17322    0.045574   -0.013541
-0.028157   -0.069083    -0.11228    -0.28411    0.034206     0.14302   -0.012892
-0.019388   -0.053817   -0.096692    -0.26754   -0.051544     0.22552    -0.01484
-0.0018481    -0.02361   -0.061613    -0.18666   -0.044073     0.29568   -0.018413
0.025761    0.011144   -0.018088   -0.034654    0.056617     0.35154   -0.019388
0.055968    0.040377    0.024461     0.17485      0.2122     0.38435   -0.017439
0.079354    0.057267    0.056942     0.40351     0.37103     0.37818    -0.01484
0.086824    0.063763    0.078055     0.60294     0.48666     0.32718   -0.014191
0.072533    0.061814    0.094295     0.73676     0.53603     0.23201    -0.01614
0.046223    0.055318     0.11476     0.79328     0.52889     0.10469   -0.023285
0.016991    0.042651     0.13879     0.77964     0.49056   -0.032705   -0.032705
-0.0063954    0.023487     0.15763      0.7202     0.42722    -0.15678   -0.039851
-0.019063   0.0056225      0.1625      0.6299     0.33011     -0.2513   -0.040175
-0.02361  -0.0054209     0.14854      0.5146     0.21285    -0.31009   -0.034004
-0.020362   -0.011592     0.11606     0.39702     0.11054    -0.33737   -0.021012
-0.012242   -0.013866    0.072858     0.30704    0.050121    -0.35329  -0.0057458
-0.013866    -0.01549    0.028684     0.26255    0.036154    -0.38415   0.0039985
-0.027833   -0.021661   -0.012567     0.25183    0.065712    -0.44748 -0.00054884
-0.046022   -0.032705   -0.049595     0.25995     0.13879    -0.53681   -0.023285
-0.060313   -0.042124   -0.076879     0.27781     0.25637    -0.63425   -0.058365
-0.05804   -0.043099   -0.087922     0.28496     0.42462     -0.7174   -0.088896
-0.039851   -0.033354   -0.085324     0.23396     0.62146    -0.76969    -0.10091
-0.016464   -0.019388   -0.087597    0.065712      0.8066    -0.78398   -0.096367
-0.0011985  -0.0099683    -0.10838    -0.23733     0.95081    -0.76092   -0.081751
0.0062721  -0.0028225    -0.13437    -0.59527      1.0307    -0.70083   -0.067134
0.014717    0.011794    -0.13307    -0.85284      1.0395    -0.60339   -0.055116
0.036804    0.041676   -0.081426    -0.86811     0.97615    -0.47509   -0.044073
0.077405    0.079354    0.014392    -0.60274     0.86019    -0.32925    -0.03303
0.12645     0.11021     0.12385    -0.14736     0.72377    -0.18342   -0.021986
0.1755     0.12223     0.20505      0.3353     0.59775   -0.053492   -0.012567
0.21285     0.11248     0.23429     0.70916     0.48309     0.05272  -0.0063954
0.22974    0.087474       0.207     0.90729     0.35576      0.1271  -0.0093186
0.22194    0.055968     0.12905     0.92873     0.17095     0.16608   -0.023285
0.18784    0.025436    0.015042     0.81439    -0.14379     0.17712   -0.038876
0.13295   0.0043233    -0.10741     0.62471    -0.61703     0.17452   -0.047971
0.070584  -0.0047713    -0.20843     0.40254     -1.1754     0.17225   -0.043099
0.014068  -0.0011985    -0.27014     0.15016     -1.6766     0.17712   -0.022311
-0.021337   0.0078962     -0.2958    -0.14216     -1.9874     0.19011   0.0049729
-0.034004    0.012768    -0.29288    -0.45495     -2.0364     0.21025    0.029658
-0.031081    0.013093    -0.26429    -0.73364     -1.8344     0.23591    0.047847
-0.02361    0.016016    -0.20453    -0.92333     -1.4589     0.26904    0.062464
-0.019388    0.022512    -0.11618    -0.98114      -1.025     0.30867    0.078055
-0.022636    0.029983   -0.014191    -0.90027    -0.64074     0.35122    0.095269
-0.033354    0.034855    0.081952    -0.71545     -0.3731     0.38662     0.11054
-0.046996    0.034855     0.15341    -0.48614    -0.23831     0.40481     0.11768
-0.056416    0.032257     0.18784    -0.26851    -0.22174     0.40676     0.11411
-0.058365    0.024786     0.18654    -0.10611    -0.28898     0.40189     0.10761
-0.055441    0.011469     0.15958    -0.01614    -0.38285     0.39831     0.10599
-0.048945  -0.0044465     0.12125    0.013093    -0.43969     0.39247     0.10989
-0.039851   -0.019712    0.084226   0.0065969    -0.41728      0.3759     0.10989
-0.033679   -0.029457    0.055318   -0.013866    -0.30652      0.3327    0.098517
-0.030756    -0.03173    0.033881   -0.034978    -0.13567       0.258    0.073832
-0.028157   -0.030106    0.019914   -0.046671    0.048497     0.16153    0.041351
-0.023935   -0.027833   0.0065969    -0.04992     0.19856    0.061814   0.0075714
-0.021661   -0.028482   -0.012892   -0.051219     0.27684   -0.025884   -0.022636
-0.027183   -0.034978   -0.034654   -0.054792     0.26482   -0.089221   -0.044398
-0.04115   -0.045372   -0.055766   -0.061937      0.1703    -0.12235   -0.052843
-0.055766   -0.055766   -0.071682   -0.064861    0.020564    -0.11975   -0.046996
-0.061937    -0.06551   -0.081426   -0.058365    -0.14639   -0.082076   -0.026209
-0.055441   -0.067134   -0.085973   -0.042449    -0.28735   -0.017764   0.0023744
-0.038227   -0.060638   -0.086948   -0.024909    -0.36888    0.065387    0.026085
-0.017764   -0.047971   -0.083375   -0.012892     -0.3783     0.16088    0.040377
-0.00022403   -0.033354   -0.075904  -0.0034721    -0.32828     0.25735    0.047847
0.010819   -0.022636   -0.062912   0.0069217     -0.2461     0.33563     0.05207
0.015042   -0.018413   -0.046996    0.022512    -0.15288     0.37883    0.053044
0.013418   -0.018088   -0.032705    0.042975   -0.040175      0.3811    0.046873
0.0043233   -0.020687   -0.024585     0.06896     0.13132     0.34797    0.033556
-0.007045   -0.022311   -0.022311    0.092346     0.38825     0.29243    0.015042
-0.013216   -0.018413    -0.02426     0.10177     0.71273     0.22812  -0.0015233
-0.012242  -0.0050961    -0.02426    0.086175      1.0385     0.16868   -0.014191
-0.0080194    0.014392   -0.021012    0.050121      1.2808     0.11833   -0.022636
-0.0047713    0.031282   -0.013866   0.0020496      1.3861    0.079679   -0.026858
-0.0041217    0.038753  -0.0057458   -0.044073      1.3545    0.049147   -0.032705
-0.0018481    0.033231   0.0026992   -0.072006      1.2198     0.02706   -0.039526
0.00075039    0.017316    0.008221   -0.073306      1.0099    0.008221   -0.045697
0.0010752 -0.00087364   0.0065969   -0.047971     0.74196  -0.0099683   -0.047971
-0.0031473   -0.012892  0.00075039  -0.0063954     0.45321   -0.025884   -0.046347
-0.014516   -0.019388  -0.0028225    0.041027     0.19726   -0.036927   -0.043748
-0.028482   -0.020362  -0.0037969    0.080978    0.029983   -0.042449   -0.045697
-0.042449   -0.017439      0.0014     0.10599   -0.026533    -0.04927   -0.052518
-0.054142   -0.013866   0.0088706     0.12125  0.00075039   -0.057065   -0.063886
-0.057715   -0.012567    0.012768     0.13717    0.062464   -0.063237   -0.077528
-0.051868   -0.010943   0.0078962     0.15731     0.11898   -0.061613   -0.086298
-0.042774  -0.0080194  -0.0015233     0.17192     0.15081   -0.051219   -0.079802
-0.0405   -0.007045   -0.012892     0.16868      0.1362   -0.036278   -0.054467
-0.046022  -0.0076946   -0.022636     0.14529    0.053369   -0.021337   -0.018738
-0.051544  -0.0093186   -0.031081     0.10696    -0.12235  -0.0063954    0.012119
-0.04992   -0.010293   -0.038227    0.063438    -0.38934   0.0078962    0.027385
-0.041799   -0.011592   -0.046671    0.021863    -0.69239    0.016991     0.02641
-0.034329   -0.012567   -0.050569  -0.0099683    -0.94217     0.01829    0.016991
-0.029457   -0.013541    -0.04992   -0.026533     -1.0656   0.0072465   0.0078962
-0.027183   -0.012567   -0.044723    -0.03303     -1.0435   -0.013216  0.00010078
-0.031081   -0.010943   -0.039851   -0.035628    -0.90709   -0.037902  -0.0044465
-0.033354  -0.0073698   -0.038227   -0.041799     -0.7109   -0.058689  0.00010078
-0.025884  -0.0031473   -0.042449   -0.054142    -0.51115   -0.065835    0.013093
-0.0037969  -0.0015233   -0.051544   -0.073955    -0.34907   -0.055116    0.032582
0.025111 -0.00054884   -0.061288   -0.099615    -0.25195   -0.030431    0.053044
0.054993 -0.00022403   -0.069733    -0.12755    -0.23506  -0.0011985    0.069285
0.079679    0.003024   -0.076879    -0.15353    -0.30652    0.020564    0.079354
0.10014   0.0091954    -0.08305    -0.17952    -0.44943    0.020888    0.082927
0.11281    0.012443   -0.088247    -0.20875    -0.64724   -0.010618    0.075781
0.10534   0.0072465   -0.091495    -0.23279    -0.86811   -0.072656    0.057592
0.078379  -0.0073698   -0.088896    -0.24058     -1.0468    -0.15158    0.028359
0.040052   -0.028157   -0.079152    -0.22467     -1.1107    -0.22564  -0.0060706
0.00075039   -0.047321   -0.065186    -0.18277     -1.0263    -0.27761   -0.037252
-0.034654   -0.054467   -0.050894    -0.11423    -0.81679    -0.29905   -0.059014
-0.05804   -0.047971   -0.034978   -0.027833    -0.54265    -0.29288   -0.071032
-0.065835   -0.030756   -0.018413    0.065062    -0.27371    -0.27079   -0.073306
-0.060963  -0.0076946    0.003024     0.15893   -0.059664    -0.24253   -0.066485
-0.043423     0.01764    0.031932      0.2515    0.079029      -0.212   -0.050894
-0.020687    0.033231    0.056617     0.31841     0.14984    -0.17854   -0.028807
-0.0067202    0.032582    0.064088     0.29957      0.1729    -0.14769  -0.0028225
-0.0067202    0.019264    0.044599     0.13717      0.1742    -0.12398    0.021863
-0.021661   0.0020496   0.0085458    -0.15353     0.17972    -0.11163    0.037129
-0.044073  -0.0093186   -0.025559    -0.47964     0.20473    -0.11066    0.037454
-0.059339   -0.011917   -0.042124    -0.74338     0.23981    -0.11748    0.022837
-0.060963   -0.010293   -0.038551    -0.88825     0.26384    -0.12625 -0.00054884
-0.053817  -0.0093186   -0.022636    -0.87753     0.26612     -0.1334    -0.02361
-0.050894  -0.0093186  -0.0021729    -0.68622     0.24728    -0.13632   -0.040175
-0.060963  -0.0093186    0.015042    -0.33283     0.21577    -0.13404   -0.047321
-0.079152   -0.010943    0.017965     0.10696     0.17874     -0.1334   -0.050569
-0.093444   -0.014191   0.0036737     0.51882     0.15146    -0.13762   -0.051868
-0.091495   -0.012567   -0.012567     0.80562     0.14724    -0.14476   -0.046996
-0.071682 -0.00087364  -0.0080194     0.92548      0.1729    -0.14541   -0.035303
-0.04115    0.021863    0.031282     0.89787     0.21155     -0.1308    -0.01614
-0.012242    0.049796    0.093321     0.77639     0.23883   -0.098316   0.0052977
0.0085458     0.06961     0.15114     0.60035     0.23364   -0.054467    0.024786
0.016341    0.072533     0.18167     0.38207     0.19888   -0.013541     0.03583
0.012443    0.058241     0.17192     0.13522     0.15244   0.0095202    0.040377
-0.0011985     0.03583      0.1323    -0.11683     0.11508   0.0091954    0.034206
-0.015165    0.017965    0.083576    -0.35686     0.10274   -0.008669    0.023487
-0.021986    0.009845    0.043625    -0.58585      0.1245   -0.025234    0.011794
-0.01484    0.015042    0.029333    -0.75767      0.1742   -0.023285   0.0043233
0.0091954    0.031607    0.053694    -0.74436     0.25118    0.003024   0.0039985
0.039402    0.050446     0.11216    -0.43741     0.34764    0.048822   0.0088706
0.061165    0.063763     0.18037    0.091696     0.44379    0.098193    0.013093
0.061489    0.066037     0.22877     0.63023     0.51395     0.12937   0.0088706
0.040052    0.054019     0.24013     0.99271     0.54838      0.1336  -0.0057458
0.011469    0.032257      0.2083      1.1113     0.55325     0.11638   -0.025559
-0.012567   0.0059473     0.14529      1.0307     0.55974    0.092671   -0.048945
-0.024585   -0.022311    0.071883     0.85369     0.59807    0.066362   -0.069083
-0.027508   -0.044398    0.011794     0.68187     0.68642    0.042326     -0.0824
-0.028807   -0.056416    -0.02361     0.57209     0.81342    0.023812   -0.090196
-0.032705   -0.056091   -0.035953     0.52564       0.931    0.019264   -0.095068
-0.039851   -0.042774   -0.034654      0.5055     0.98199    0.042651   -0.095393
-0.04862   -0.020687   -0.029782     0.46912     0.94691     0.10469   -0.088572
-0.053492  0.00042559   -0.029457     0.39117     0.85532     0.20181   -0.072006
-0.054467    0.015042   -0.035953     0.27002     0.75658     0.30867   -0.046022
-0.049595    0.023162   -0.047321     0.11476     0.71403     0.38954   -0.017114
-0.036927    0.024786   -0.057715   -0.075255     0.78029     0.41975   0.0072465
-0.019063    0.022188   -0.068758    -0.31691     0.94919     0.39409    0.022188
-0.0028225    0.013093    -0.08305    -0.65439      1.1418     0.33011    0.027709
0.0056225  -0.0021729    -0.09929     -1.1455      1.2064     0.25085    0.029983
0.0017248   -0.022311    -0.11715     -1.8126     0.92288     0.17192    0.032582
-0.015165   -0.045372    -0.13502     -2.5792     0.10274     0.08585    0.032582
-0.039526   -0.071032    -0.15451     -3.3074      -1.191   -0.019388    0.030308
-0.062262    -0.10124    -0.18991      -3.894     -2.6468    -0.14022    0.029658
-0.07428    -0.13697    -0.25325     -4.2711     -3.9323    -0.26494    0.034855
-0.071357    -0.16393    -0.32633     -4.2896     -4.7729     -0.3757     0.05207
-0.04862    -0.16133    -0.36336     -3.7193     -4.9695    -0.45625    0.081952
-0.0031473    -0.11163    -0.32276     -2.4733      -4.642    -0.49685     0.11638
0.066686   -0.017114     -0.2094     -0.7109     -3.7891    -0.50562     0.14691
0.14561    0.095919   -0.059014      1.1428     -2.6831    -0.50627     0.16023
0.20798     0.19304    0.078379      2.5333     -1.5902    -0.52869     0.14821
0.22747     0.24306     0.17517      3.2904    -0.72292    -0.58455     0.10729
0.19791     0.23883     0.22714      3.5168    -0.17172    -0.66705    0.048822
0.13944     0.19628     0.25378      3.4928     0.11606     -0.7502  -0.0076946
0.082277     0.14237     0.27326      3.4359     0.26969     -0.8051   -0.047971
0.04395    0.092346     0.28398      3.3904     0.39994    -0.81484   -0.065835
0.02641    0.051745     0.26417      3.2982     0.56234    -0.77976   -0.061937
0.020564    0.015042     0.20311      3.0984     0.75041    -0.70733   -0.043423
0.014717   -0.020687     0.11021      2.7886     0.93035    -0.60469   -0.022961
0.0059473   -0.053817   0.0069217      2.3894      1.0645    -0.48061   -0.013866
-0.0034721   -0.080451   -0.091495      1.9236      1.1155    -0.34614   -0.016464
-0.0063954   -0.094093    -0.17205      1.4185      1.0557    -0.21297   -0.025559
0.0046481   -0.095068    -0.22467     0.91216     0.89657   -0.089871    -0.03173
0.030957   -0.085324    -0.24675     0.44898     0.70006    0.013093   -0.032055
0.062789   -0.068758    -0.24221    0.054993     0.54188    0.092346   -0.026209
0.080978   -0.054467    -0.22044    -0.26364     0.47757     0.14399   -0.023285
0.078055    -0.04927    -0.18861     -0.5105     0.50745     0.16803   -0.031406
0.057267   -0.049595    -0.14087    -0.67452     0.57793      0.1716    -0.04862
0.031282   -0.047971   -0.073955    -0.75248     0.61334     0.16543   -0.068758
0.012768   -0.038876    0.003024    -0.76969     0.57533     0.15796   -0.084999
0.0062721   -0.019712    0.078055    -0.74533     0.48244     0.15049   -0.094093
0.010819   0.0023744     0.14074    -0.66023     0.39247     0.13717    -0.10156
0.022188    0.024461     0.19174    -0.48646     0.36713     0.11476    -0.11066
0.03518    0.043625     0.23429    -0.22337     0.43502    0.091696    -0.12008
0.04395    0.059865     0.26579    0.092021     0.57663    0.088448    -0.12203
0.048822    0.067011     0.28593     0.38175     0.73871      0.1245    -0.11163
0.050121    0.059865     0.28723     0.56949     0.86344     0.19921     -0.0824
0.041351     0.03518     0.25735     0.61041     0.90794     0.29438   -0.038551
0.016666 -0.00054884     0.18654     0.48017     0.87026     0.38142   0.0065969
-0.017439   -0.034004    0.079679     0.18134     0.79068     0.43404    0.038428
-0.048296    -0.05739   -0.043748    -0.22954     0.71663     0.44249    0.052395
-0.060313   -0.068758    -0.15841    -0.64139     0.66173     0.41423    0.056292
-0.044398   -0.071032    -0.24318    -0.94639     0.60587      0.3798    0.060515
-0.0057458   -0.069733     -0.2854     -1.0792      0.5461     0.36908    0.073507
0.041676   -0.065835    -0.28638     -1.0445     0.53311     0.38727     0.09462
0.082602   -0.060963     -0.2578    -0.89864     0.60749     0.42008     0.11573
0.10242   -0.056741     -0.2146     -0.7174     0.74911     0.45646     0.12515
0.092346   -0.052843    -0.16977    -0.56344     0.88553     0.48147     0.11931
0.056292    -0.04992    -0.13275     -0.4673     0.92938     0.49283     0.10339
0.0052977   -0.046347    -0.10936    -0.43254     0.82674     0.48504    0.084226
-0.052518   -0.039526   -0.095717    -0.44261     0.57923     0.45678     0.06831
-0.10806    -0.03303   -0.085648    -0.47379     0.23624     0.40968    0.055318
-0.15353   -0.029132   -0.076229    -0.50985    -0.13404     0.34635    0.042975
-0.18114   -0.030106   -0.064536    -0.54558    -0.47152     0.27099    0.026735
-0.18634   -0.035953   -0.051868    -0.57903    -0.73104     0.19174   0.0065969
-0.17432   -0.044073   -0.043423    -0.60696     -0.8772     0.12093   -0.016789
-0.15646   -0.051544   -0.045372    -0.62775    -0.90254    0.063438   -0.035628
-0.14476   -0.060313   -0.057715    -0.64009    -0.82069    0.015367   -0.044398
-0.14054   -0.064536    -0.07428    -0.64464    -0.64334   -0.027508   -0.045372
-0.13437   -0.060638   -0.083375    -0.63977    -0.39259   -0.069083     -0.0405
-0.11618   -0.043423   -0.081101    -0.62743    -0.11001    -0.10579   -0.032705
-0.090521   -0.013866   -0.068109    -0.60534     0.14886    -0.13275   -0.026209
-0.070058    0.017965   -0.048945    -0.57318      0.3327    -0.14444   -0.023285
-0.061937    0.039402    -0.03173    -0.53323     0.40221    -0.13567   -0.025559
-0.067134    0.047198   -0.022636    -0.49491     0.32556    -0.10741   -0.030106
-0.075904    0.041676   -0.022636    -0.46437     0.11346   -0.070382   -0.034004
-0.078178    0.029333   -0.028807    -0.44521     -0.1714   -0.030756   -0.037902
-0.06681    0.014068   -0.037902    -0.43189    -0.45041   0.0039985   -0.043099
-0.042124  0.00075039   -0.047321    -0.41923    -0.68362    0.030308   -0.047646
-0.012567  -0.0083442   -0.055441    -0.39974    -0.86356    0.045574   -0.050244
0.0049729   -0.012892   -0.059339    -0.37115    -0.98699    0.047198   -0.048945
-0.0050961   -0.015815   -0.059339    -0.33672     -1.0354    0.041351   -0.045697
-0.043748   -0.017114   -0.054792     -0.2997    -0.99251    0.042326     -0.0405
-0.095068    -0.01614   -0.039851    -0.26267    -0.86941     0.06019   -0.036278
-0.13762   -0.013541   -0.012567    -0.22856    -0.70376    0.099167   -0.031406
-0.15093  -0.0093186    0.020239    -0.20031    -0.53843     0.14886   -0.025884
-0.13275  -0.0028225    0.054019    -0.17724    -0.39811     0.19661   -0.019712
-0.091495   0.0043233     0.08585    -0.15646    -0.29125     0.22129   -0.013216
-0.042449    0.011794     0.10956    -0.13697     -0.2068     0.21025  -0.0076946
0.0020496    0.013743     0.11898    -0.12495    -0.13404     0.16738  -0.0028225
0.030308   0.0075714     0.11573     -0.1217   -0.068758     0.10599  0.00042559
0.038428  -0.0060706     0.10631     -0.1243  -0.0096434    0.046223   0.0010752
0.032257   -0.019063    0.098193    -0.12657    0.047198   0.0046481  -0.0015233
0.022837   -0.021986    0.089423     -0.1204     0.11021   -0.015815  -0.0063954
0.021538   -0.016464    0.083251   -0.098965     0.18849   -0.029132    -0.01614
0.025761  -0.0060706    0.080653   -0.073306     0.29405   -0.048296   -0.031081
0.021863  0.00042559    0.080653   -0.060638     0.42138   -0.076554   -0.045697
0.0023744 -0.00054884    0.080328   -0.068109     0.53993    -0.11618   -0.052843
-0.035953  -0.0037969    0.074806    -0.09117     0.61529     -0.1675   -0.055766
-0.081751  -0.0041217    0.063438    -0.10481     0.64127    -0.22986   -0.060963
-0.11878 -0.00054884    0.054668   -0.084349     0.63315     -0.2932   -0.074605
-0.13437   0.0043233    0.057592   -0.020362     0.60587    -0.34777   -0.097991
-0.12592   0.0085458    0.069285    0.066362     0.56364    -0.38415    -0.12592
-0.095393    0.014068    0.080328      0.1362     0.51622    -0.39194    -0.14671
-0.04862    0.024786    0.079354     0.14496     0.47724    -0.35621    -0.14606
0.0046481    0.041027    0.059541    0.079354     0.45516    -0.26884    -0.11975
0.05272     0.06084    0.017965   -0.021986     0.44151     -0.1321   -0.073955
0.086824    0.078704   -0.037577   -0.078827     0.41326    0.024461   -0.017114
0.10891      0.0865   -0.093444   -0.015165     0.34764      0.1651    0.039402
0.12255    0.080978    -0.13145     0.19499     0.23721      0.2606      0.0865
0.13392    0.065062    -0.13859     0.49998    0.097868     0.30347     0.11866
0.14496    0.048497    -0.11098     0.81244   -0.037902     0.30315      0.1336
0.15893    0.035505    -0.05804      1.0616    -0.13534     0.28398     0.13684
0.1755     0.02706 -0.00022403      1.2087    -0.18082     0.26384     0.12905
0.18946    0.020239    0.042326       1.248    -0.19543       0.258     0.11183
0.19206    0.011144     0.06019      1.1925     -0.2068     0.27164    0.087474
0.17712  -0.0018481     0.05272       1.045    -0.23116      0.2947    0.059216
0.14302   -0.016464    0.031282     0.80887    -0.26462     0.30802     0.03518
0.092021   -0.027183    0.012443     0.51492    -0.28638     0.29373    0.016991
0.038103   -0.030431   0.0059473     0.22617    -0.27241     0.24371    0.011794
-0.0080194   -0.026858   0.0072465     0.01829    -0.23214      0.1651    0.022512
-0.036602   -0.019063  -0.0021729   -0.059664    -0.19576    0.066037    0.042975
-0.045372   -0.013216   -0.030756   -0.013866    -0.19511   -0.053168    0.063438
-0.036278   -0.011917   -0.072981    0.092671    -0.24383    -0.19186    0.075131
-0.017439   -0.013866    -0.11748      0.1768    -0.33607    -0.34484    0.076755
0.0049729   -0.015815    -0.15353     0.17062    -0.44781     -0.5014    0.073507
0.022188   -0.012892    -0.16912    0.059541    -0.54233    -0.64854    0.070909
0.03453    0.003024    -0.14736    -0.10189    -0.58228    -0.76709    0.071883
0.047198    0.036479   -0.084349    -0.22239     -0.5511    -0.84732    0.075781
0.062789     0.07773   0.0056225    -0.24253    -0.46372    -0.88597    0.080003
0.077405     0.11216    0.092021    -0.16425    -0.35589    -0.89117    0.078704
0.078379     0.12678     0.15211   -0.036278    -0.26624    -0.87785    0.067661
0.065387     0.11671     0.17095    0.087149    -0.21622    -0.85447    0.047847
0.045249    0.086824     0.15503     0.17257    -0.20843    -0.82556    0.021863
0.024137    0.049147     0.11963     0.21935    -0.22954    -0.78756  -0.0034721
0.0085458     0.01764     0.08585     0.23948    -0.26007    -0.73819   -0.020687
0.0017248 -0.00087364    0.064088     0.24728    -0.27761     -0.6768   -0.028482
0.0033489  -0.0083442    0.054019     0.24371    -0.27501    -0.60469   -0.030431
0.0065969   -0.007045    0.040052      0.2174    -0.26364    -0.51927    -0.03173
0.0046481  -0.0028225    0.015692     0.15861    -0.24903    -0.42117   -0.032055
-0.0041217  0.00075039   -0.013541    0.075781    -0.22174    -0.31366   -0.030431
-0.013216   0.0036737   -0.034329   0.0010752    -0.16393    -0.20648   -0.026858
-0.016464   0.0072465   -0.039851   -0.028807   -0.069408    -0.10968   -0.020362
-0.013541    0.012119   -0.032055      0.0014    0.051745   -0.028807   -0.016789
-0.010293     0.01764   -0.022636    0.072533     0.18232    0.034855   -0.016464
-0.011917    0.021538   -0.021986     0.14951     0.30542    0.082602   -0.017764
-0.014191    0.022837   -0.038227      0.2096     0.40579     0.12158   -0.019712
-0.011917    0.023812   -0.061613     0.25248     0.47724     0.15666   -0.021012
-0.0050961    0.026085   -0.078503     0.28853     0.51654     0.18816   -0.022311
0.0033489     0.02641     -0.0824     0.32848     0.52986     0.21447   -0.022311
0.0088706    0.020888   -0.077528     0.36843     0.54026     0.23526   -0.021337
0.010819    0.009845   -0.070058     0.39247     0.56429     0.25085   -0.021986
0.01017  -0.0037969   -0.061937     0.39442     0.60359     0.26742   -0.024909
0.0091954  -0.0099683   -0.054792      0.3863     0.63965     0.28268   -0.029782
0.008221  -0.0073698   -0.045047     0.39507     0.63965     0.29405   -0.034004
0.0062721      0.0014   -0.031406     0.43372     0.56819     0.30282   -0.035628
0.0039985   0.0059473   -0.018088     0.47984     0.39734     0.30964   -0.037252
0.0014  -0.0028225    -0.01549     0.49803     0.11411     0.31289   -0.043748
-0.0063954   -0.027183   -0.029457     0.46815    -0.27274     0.31192   -0.051219
-0.021337   -0.057715   -0.049595     0.39182    -0.69206      0.3051   -0.053817
-0.0405   -0.082725   -0.059989     0.27781     -1.0364     0.29405   -0.046347
-0.056416   -0.092794   -0.051219     0.11476     -1.2228     0.28106   -0.031081
-0.061613   -0.087922   -0.027833   -0.092794     -1.2196     0.27359   -0.017439
-0.054792   -0.070707   0.0036737    -0.31366     -1.0412     0.27716   -0.012242
-0.039201   -0.045697    0.042326    -0.50368    -0.74826     0.28658   -0.017764
-0.0099683   -0.012242    0.086824    -0.62515    -0.43449     0.29535   -0.024909
0.024786    0.024786      0.1349    -0.65211    -0.20875     0.29697   -0.022961
0.056617    0.054344     0.17322    -0.58618    -0.13859     0.28756  -0.0089938
0.076106    0.070259     0.18816    -0.45853      -0.212     0.26482   0.0069217
0.078055    0.066686       0.169    -0.31951    -0.36303     0.23396    0.017965
0.063113    0.048497     0.11898    -0.21395    -0.50108     0.19856    0.023812
0.040702    0.025111    0.049147    -0.15581    -0.54135     0.16315    0.024461
0.01764   0.0059473   -0.017764    -0.11845    -0.44261     0.13067     0.01894
0.00075039  -0.0047713   -0.063561   -0.069408    -0.23149     0.10534    0.010819
-0.0083442  -0.0063954   -0.080451   0.0065969     0.04395    0.088773   0.0062721
-0.0089938  -0.0024977   -0.072656    0.095919     0.34894    0.084551    0.009845
-0.0050961   0.0049729   -0.052518     0.16998     0.67148    0.095269    0.019264
-0.0034721    0.013093   -0.029782     0.20376     0.98557     0.11995    0.028359
-0.0063954    0.021863   -0.011267     0.19531      1.2103     0.14302    0.032582
-0.011267    0.028684   0.0020496     0.15666      1.1902     0.15049    0.032257
-0.016464    0.032582    0.010819     0.10242     0.75658      0.1336    0.024786
-0.021337    0.029983     0.01894    0.045899   -0.095717    0.090072    0.010495
-0.027508    0.019589    0.030633  -0.0057458     -1.1013    0.031282  -0.0089938
-0.038876   0.0020496    0.042326   -0.050244     -1.8916   -0.030431    -0.02426
-0.062587   -0.019388    0.047523   -0.081426     -2.2086   -0.080776    -0.03303
-0.10091   -0.040825    0.042001   -0.094418     -1.9767    -0.11326   -0.037252
-0.14606   -0.057065     0.02706   -0.089221     -1.3066    -0.12657   -0.036602
-0.18439   -0.061613   0.0091954   -0.069408    -0.43839     -0.1243   -0.030756
-0.20323   -0.056091  -0.0083442   -0.043099     0.35804    -0.11326   -0.020362
-0.19381   -0.045372   -0.021661   -0.018738     0.89754    -0.10189  -0.0050961
-0.15613    -0.03173   -0.029457 -0.00054884      1.1434    -0.10059    0.011469
-0.10189   -0.022311   -0.029782    0.011794      1.1239    -0.11358    0.021863
-0.047971   -0.016789   -0.025559    0.017316     0.87448    -0.14801    0.022837
-0.010618   -0.014191   -0.019712    0.015367     0.43209    -0.19706    0.014392
0.0065969   -0.012242   -0.017439   0.0078962    -0.12592    -0.24838 -0.00087364
0.009845   -0.013541   -0.021661  -0.0015233     -0.6729      -0.288   -0.018738
0.012119   -0.017439   -0.030106  -0.0099683     -1.0838    -0.30977   -0.035303
0.017316   -0.020687   -0.037577   -0.015165     -1.2712    -0.31691   -0.050569
0.023812   -0.019388   -0.039526   -0.019388     -1.2004    -0.31366   -0.061613
0.028034   -0.014191   -0.037252   -0.026533    -0.91001     -0.2958   -0.068434
0.031282  -0.0089938   -0.034329     -0.0405    -0.49523    -0.26072   -0.068109
0.033881  -0.0057458   -0.029782   -0.058689   -0.069733    -0.20485   -0.057715
0.033231  -0.0044465   -0.027183   -0.076554     0.27619    -0.13242   -0.039201
0.023487  -0.0044465   -0.032055   -0.095717     0.50128    -0.04862    -0.01614
0.0056225  -0.0034721   -0.048296    -0.11845     0.60619     0.03453   0.0043233
-0.019063  -0.0011985   -0.073306    -0.14704     0.62081     0.11346    0.016666
-0.045697 -0.00087364    -0.10514    -0.18017     0.58735      0.1768    0.022512
-0.072656  -0.0024977    -0.13599     -0.2133     0.53993      0.2174    0.022512
-0.097991  -0.0041217    -0.15678    -0.24123     0.49478     0.23234    0.020564
-0.11975  -0.0028225    -0.16198    -0.27858     0.45808     0.22422    0.015692
-0.13112  -0.0021729    -0.15321    -0.35816      0.4269     0.20311    0.008221
-0.1308  -0.0018481    -0.13957    -0.49588     0.39864     0.18004  -0.0037969
-0.12333  -0.0044465    -0.13015     -0.6729     0.37395     0.16608   -0.015815
-0.10968  -0.0080194    -0.13177    -0.86649     0.35836     0.16738   -0.025559
-0.093444   -0.011917    -0.14379     -1.0796     0.36226     0.18199   -0.026858
-0.070707   -0.015815    -0.15158     -1.2969     0.39929     0.20181    -0.01549
-0.042449   -0.012892    -0.13599     -1.3904     0.47627     0.21772   0.0039985
-0.0096434  0.00010078   -0.087922     -1.2101     0.57891     0.22389    0.023812
0.022512    0.022512    -0.01614    -0.76287     0.66888      0.2161    0.036479
0.054668    0.047523    0.061489    -0.27046     0.71695     0.19141    0.034855
0.084876    0.064413      0.1206   0.0078962     0.71305     0.15341    0.020239
0.10534    0.065712     0.14042   -0.015815     0.66661     0.10306  -0.0044465
0.10826    0.048172     0.10469    -0.22207     0.59937    0.047847   -0.030756
0.089748    0.014717    0.026735    -0.42605     0.55162  -0.0060706   -0.053492
0.050771   -0.024909   -0.062912    -0.52544     0.55812   -0.051544   -0.067784
0.0014   -0.059339    -0.12755    -0.49978     0.62048   -0.086948   -0.078503
-0.044723   -0.079477    -0.14119    -0.32308     0.69714    -0.11261   -0.084674
-0.078503   -0.082725    -0.09929    0.035505     0.73806    -0.12333   -0.089221
-0.090196   -0.067784   -0.018088     0.53993     0.70916    -0.11683   -0.093769
-0.078503   -0.039526    0.079029      1.0612     0.61074   -0.093769   -0.094743
-0.048296  -0.0080194     0.16543      1.4513     0.47887   -0.060638   -0.091495
-0.015165    0.015692     0.22584      1.6066     0.35934   -0.019388   -0.081101
-0.0021729    0.024137     0.25507      1.4994     0.28918    0.029658    -0.06616
-0.028157    0.013743     0.24988      1.1538     0.27814    0.082602   -0.055766
-0.092145   -0.016464     0.20213     0.62146     0.31354     0.13782   -0.055116
-0.1675   -0.059339     0.11313  -0.0028225     0.37428     0.18654   -0.062912
-0.22304    -0.10026  -0.0060706    -0.58423     0.43502     0.21675   -0.072331
-0.24156    -0.13015    -0.13892     -1.0139     0.46815     0.21837   -0.076879
-0.22044    -0.14476    -0.26689     -1.1997     0.44898     0.19369   -0.067459
-0.16198    -0.13859    -0.36661     -1.0344      0.3785     0.16121   -0.035628
-0.070707    -0.10806    -0.40656    -0.48646     0.28626     0.14951    0.028684
0.0433   -0.047321    -0.37148     0.29113     0.16738     0.17192     0.12678
0.16056    0.033556    -0.26722      1.0414   -0.025559     0.21415     0.24306
0.26255     0.11541    -0.12333      1.6157    -0.30749     0.24728     0.34862
0.3353      0.1781    0.024137      1.9876    -0.61573     0.24143      0.4152
0.37006     0.20733     0.14724      2.1994    -0.82848     0.17874     0.42527
0.36486      0.2044     0.22974      2.3007     -0.8457    0.061489     0.38013
0.32458      0.1768     0.27002      2.3069    -0.66835   -0.092145     0.29535
0.26612     0.13587     0.26904      2.2117     -0.3861    -0.25033     0.19336
0.20635    0.092996     0.23494      2.0123    -0.11066    -0.37895    0.098842
0.15731    0.053044     0.18784      1.7209    0.078704    -0.45528    0.025111
0.1258    0.018615     0.14367      1.3643     0.14626    -0.47152   -0.028482
0.10469   -0.013216     0.10436     0.97712    0.092346    -0.43644    -0.06616
0.083901   -0.041799    0.063763     0.60392   -0.057065    -0.37408   -0.090196
0.054668   -0.062912    0.026085     0.28658     -0.2578    -0.30554   -0.098965
0.021213   -0.067459   0.0065969    0.047198    -0.46307     -0.2474   -0.095068
-0.0054209   -0.053817    0.012443     -0.1178     -0.6362    -0.20453   -0.080776
-0.020362   -0.025234    0.037129    -0.23084    -0.76417    -0.18082   -0.059014
-0.020687   0.0043233    0.061814    -0.31886    -0.88403    -0.17692   -0.035628
-0.015165    0.024137    0.065062    -0.39746     -1.0393    -0.19608   -0.019712
-0.012567    0.026735    0.039402    -0.47119     -1.2251    -0.23636   -0.017439
-0.019063    0.014717   -0.011917    -0.54298     -1.3943    -0.28151   -0.025884
-0.035303  -0.0076946   -0.082076    -0.61866     -1.4869    -0.31204   -0.040175
-0.055766   -0.034978    -0.15548    -0.69791     -1.4632    -0.31821   -0.053168
-0.071032   -0.061937    -0.21525     -0.7658     -1.3287    -0.30457   -0.063561
-0.077203     -0.0824    -0.24513     -0.8038     -1.1345    -0.28476   -0.069408
-0.071682    -0.09117    -0.23376    -0.79633    -0.95386    -0.27014    -0.07428
-0.052193   -0.089221    -0.17887    -0.74241    -0.84537    -0.26494   -0.079802
-0.017764   -0.080127   -0.090196    -0.65828    -0.81257    -0.26819   -0.083375
0.028034   -0.070058    0.012768    -0.57773    -0.81192    -0.27728     -0.0837
0.075131   -0.063886     0.10891    -0.53388    -0.79373    -0.28086   -0.075579
0.10794   -0.057715     0.17647     -0.5446    -0.72422    -0.26429    -0.05804
0.11931    -0.04862      0.2083    -0.59787    -0.59495    -0.22369   -0.031406
0.10566   -0.034004     0.20603    -0.66186    -0.41728     -0.1701  -0.0037969
0.067336   -0.016789     0.17939     -0.7148     -0.2172    -0.11391    0.016991
0.0078962  -0.0050961     0.13717    -0.74891   -0.018088   -0.061613    0.026085
-0.06551  -0.0050961    0.087474     -0.7645       0.169   -0.012892    0.023487
-0.13989   -0.014191    0.039078    -0.76417     0.34245    0.024786    0.014068
-0.19576   -0.026533  -0.0024977     -0.7528      0.5055    0.046873   0.0023744
-0.2172   -0.038227   -0.036278    -0.73461     0.67148    0.055968   -0.007045
-0.20453   -0.044073   -0.062912    -0.71025     0.84622    0.055643   -0.011267
-0.1701   -0.043099   -0.081426    -0.68687      1.0112    0.053044    -0.01614
-0.13177   -0.037252   -0.087922    -0.66608      1.1275    0.049472   -0.027833
-0.10091   -0.029132   -0.085324    -0.64594      1.1736    0.042651   -0.043423
-0.082076   -0.019712   -0.078827    -0.61833      1.1558    0.028684   -0.059989
-0.073306   -0.008669   -0.070058    -0.58195      1.0892    0.009845   -0.073955
-0.065835   0.0017248   -0.060638    -0.54103     0.99044  -0.0073698   -0.084999
-0.053492   0.0078962   -0.046671    -0.50822     0.87058    -0.01614   -0.093119
-0.032705    0.011794   -0.026858    -0.48419     0.74359   -0.015165   -0.098965
-0.0073698    0.013093  0.00010078    -0.47509     0.62568  -0.0083442    -0.10774
0.018615    0.015692    0.037778    -0.49783     0.52694  0.00042559     -0.1243
0.040052    0.019589    0.083576    -0.57936     0.43957    0.008221    -0.14834
0.050446    0.023162     0.12905    -0.71415     0.33952    0.017965     -0.1727
0.044924    0.026735     0.16283    -0.84407     0.19044    0.030308    -0.18894
0.020239    0.029333     0.18427    -0.89344   -0.020037    0.046223    -0.18147
-0.018413    0.027709     0.19044    -0.83043    -0.26851     0.06831    -0.14476
-0.056741    0.023162     0.17485    -0.68427    -0.50335    0.097218   -0.081101
-0.078503    0.017316     0.13587    -0.49491     -0.6677     0.13749      0.0014
-0.070707    0.017965    0.073182    -0.27793    -0.71155     0.18881    0.094295
-0.037902    0.021538   -0.015165    -0.07493     -0.6245     0.24566     0.18102
0.0091954    0.028359    -0.12592    0.040052    -0.45755     0.28983      0.2476
0.048172    0.034206    -0.24318   0.0085458    -0.29385     0.30282     0.27911
0.057592    0.036479     -0.3442    -0.17659    -0.20972     0.26839     0.26872
0.038103    0.030957    -0.40234    -0.41403    -0.22824     0.18589     0.22617
0.0036737    0.021538    -0.39779    -0.54655    -0.31009    0.082927     0.16673
-0.025559    0.013418    -0.33185    -0.48289    -0.37408  0.00010078     0.10794
-0.043423    0.013093    -0.22824    -0.23798    -0.34614   -0.041799    0.059541
-0.053168    0.020888    -0.12073     0.13749    -0.19641   -0.047646    0.021863
-0.054467    0.030633   -0.031081     0.60457    0.046223   -0.030756  -0.0067202
-0.042449    0.036804    0.031607      1.0882     0.31062  -0.0057458   -0.023935
-0.019712    0.036154    0.064088      1.4617     0.52661    0.021863   -0.028807
0.0088706    0.034206    0.071558      1.6001     0.65621     0.05207   -0.021337
0.039078    0.035505    0.063763      1.4734     0.69941     0.08585  -0.0054209
0.063113    0.039727    0.045899      1.1548     0.68577     0.11508    0.012443
0.072208    0.044924    0.024786     0.76924     0.66108      0.1284    0.021213
0.058241    0.047523   0.0072465     0.42852     0.66108      0.1206    0.016991
0.021538    0.045249  -0.0011985     0.18719     0.69129    0.094295 -0.00054884
-0.030756    0.034855 -0.00054884    0.036479     0.72994    0.058566   -0.027508
-0.0824     0.01829   0.0036737    -0.06616     0.74001    0.028034   -0.060963
-0.11715  -0.0011985   0.0049729    -0.15905     0.68642    0.012443   -0.093119
-0.12365   -0.015815    0.003024    -0.24286     0.54318    0.016341    -0.11521
-0.10416   -0.019063  0.00042559    -0.29255     0.30769    0.034206    -0.11748
-0.065186   -0.008669      0.0014    -0.27826   0.0065969    0.063763   -0.094743
-0.018413    0.010819    0.008221    -0.18894    -0.32925     0.10501   -0.054142
0.021538    0.029333    0.013093   -0.057715    -0.66413     0.15016   -0.013866
0.051745    0.039727   0.0052977    0.080653    -0.93924     0.18264    0.018615
0.070909    0.041676    -0.01549     0.22584     -1.0887     0.18979    0.041027
0.0852    0.038753   -0.034329     0.38987     -1.0861     0.16478    0.053044
0.096244    0.034855   -0.040825     0.55682    -0.95029     0.11736    0.059541
0.10177    0.030633   -0.035628     0.68674    -0.73364    0.070584    0.068635
0.098842    0.022512    -0.03173     0.74391    -0.50497    0.054019    0.079029
0.089748   0.0072465   -0.040175     0.70331    -0.30749     0.08585      0.0865
0.079029   -0.010293   -0.059014     0.52629    -0.14541     0.15861    0.091696
0.069285   -0.023935   -0.078827     0.16998   0.0033489     0.24013    0.091047
0.059541   -0.031406   -0.089546    -0.32146     0.16413      0.2895    0.081952
0.045574   -0.034654   -0.090845    -0.80899      0.3392     0.28203    0.064737
0.025111   -0.039201    -0.09182      -1.177     0.51914     0.21837    0.037454
-0.00087364   -0.053168    -0.10416      -1.418     0.70104     0.12678   0.0049729
-0.027183   -0.070058    -0.11358     -1.5668     0.87968    0.038103   -0.023285
-0.04115    -0.07428   -0.080776     -1.5544      1.0317   -0.024909   -0.035628
-0.028482   -0.052193    0.023162     -1.1874      1.0658   -0.057065   -0.030106
0.0062721  -0.0076946     0.18134    -0.33218     0.81764   -0.070382    -0.01614
0.041676    0.038428     0.33075      0.8524      0.1703   -0.081101   -0.010943
0.055968    0.067661     0.41066      1.9538    -0.74533    -0.10254   -0.020687
0.04395    0.071234     0.40221      2.6086      -1.584    -0.13794   -0.039851
0.013743    0.053369     0.32946       2.619     -2.0355    -0.18082   -0.059664
-0.020362    0.023812     0.23201      2.0571     -1.9656     -0.2146   -0.072331
-0.045047  -0.0041217     0.14269      1.2574     -1.4495    -0.22661    -0.07493
-0.057065   -0.022311    0.081952     0.63932    -0.70018    -0.22142   -0.068758
-0.056416   -0.025234    0.055318      0.4623    0.035505    -0.21655   -0.056741
-0.047321   -0.013216    0.055318     0.66466     0.56819    -0.22532   -0.046996
-0.036927   0.0056225    0.065062     0.98167     0.82998    -0.25715   -0.043748
-0.032055    0.015692    0.069285      1.1645     0.86149    -0.31009   -0.046347
-0.035628    0.011469    0.062139      1.0859     0.75788    -0.37278   -0.052843
-0.041799  -0.0067202    0.041027       0.753     0.61139      -0.428   -0.061288
-0.04927    -0.03173    0.013093     0.27456     0.46912     -0.4686    -0.06681
-0.053168   -0.050569  -0.0050961    -0.19121     0.34017    -0.49133   -0.063561
-0.050244   -0.051544   0.0075714    -0.51797     0.20895    -0.49718   -0.055441
-0.036602    -0.03173    0.055643    -0.65569    0.038753    -0.48549   -0.044723
-0.016789 -0.00087364      0.1232    -0.66283    -0.18959     -0.4569   -0.032055
-0.0021729    0.026085     0.17874    -0.65536    -0.47412    -0.41598   -0.021661
-0.0015233    0.037454     0.19141    -0.73266    -0.80445    -0.37408   -0.019712
-0.017764    0.029983     0.14789    -0.93047     -1.1426    -0.34484   -0.035628
-0.049595   0.0043233    0.057267     -1.2312     -1.4213    -0.33315   -0.073306
-0.090845   -0.033354   -0.064211     -1.6265      -1.569    -0.33445     -0.1269
-0.1321   -0.074605    -0.19186     -2.1241     -1.5502     -0.3299    -0.18374
-0.16425    -0.10968    -0.30847     -2.6714      -1.366    -0.30327    -0.23181
-0.18147    -0.13307    -0.40558     -3.1187     -1.0597    -0.24643    -0.25682
-0.1753    -0.13664    -0.46925     -3.1963    -0.68264    -0.15808    -0.25162
-0.13924    -0.11391    -0.47607      -2.663    -0.27599   -0.046996    -0.20875
-0.07428   -0.058365    -0.40851     -1.5554     0.11768    0.076106    -0.12917
0.016666    0.024786    -0.26689    -0.17335     0.43989     0.19304   -0.021337
0.11346     0.11963   -0.077853      1.1493     0.64939     0.28171    0.096244
0.19628     0.20116     0.10696      2.2809     0.73741      0.3366     0.20473
0.24501     0.24598     0.23006      3.2443     0.72929     0.36648     0.28431
0.2567     0.24078     0.25475      4.0069     0.64842     0.38402     0.31841
0.23136     0.18979     0.18427      4.4552     0.51037     0.40449     0.30834
0.17939     0.11118    0.048497      4.4367     0.33043     0.44314     0.26092
0.11801    0.028359    -0.10871      3.9017     0.12678     0.50355     0.19304
0.064088   -0.037577     -0.2448      2.9812   -0.064211     0.57079     0.11931
0.022188   -0.078503    -0.33088      1.9015    -0.19706     0.61886    0.050121
-0.0034721   -0.097341    -0.35654     0.86344    -0.23376      0.6351  -0.0041217
-0.018413    -0.10026     -0.3351   -0.047971    -0.16653     0.62243    -0.03173
-0.029782   -0.091495    -0.29158    -0.85382   -0.022311     0.59612   -0.031081
-0.038876   -0.074605    -0.25033     -1.5716     0.14269     0.56559   -0.007045
-0.044398   -0.054467    -0.21947     -2.1267     0.27749     0.52337     0.02706
-0.043748   -0.033679    -0.19186     -2.4181     0.35771     0.45418    0.056292
-0.034329   -0.011917    -0.14996     -2.4061      0.3785     0.34537     0.06831
-0.016464   0.0075714   -0.083375     -2.1297     0.34635     0.19758    0.063113
0.0072465    0.029333    0.010819     -1.6015     0.30412    0.026735    0.048172
0.031932    0.054993      0.1297    -0.75345     0.31581    -0.14216    0.035505
0.05207    0.085525     0.26157     0.44769     0.41488      -0.288    0.033231
0.062789     0.11378      0.3811        1.78     0.56527    -0.40006    0.041351
0.058891     0.13067     0.45581      2.8928     0.69064    -0.47996    0.052395
0.0433     0.12613     0.46263      3.4804     0.72864    -0.53226    0.062139
0.020239    0.096244     0.40741      3.4187     0.66791    -0.56214    0.063763
-0.0067202    0.048822     0.31419      2.8051     0.54903    -0.57643    0.059865
-0.030106  -0.0041217     0.21577      1.8866      0.4269    -0.58748    0.051745
-0.046022   -0.047646      0.1336     0.94074     0.33985    -0.60502     0.04395
-0.052193   -0.076554    0.080653     0.19693     0.30315    -0.64042    0.035505
-0.053817   -0.089546    0.056617    -0.24318     0.30055    -0.69076     0.01894
-0.059339   -0.092469    0.042975    -0.42442      0.2973    -0.74826   -0.010293
-0.071032   -0.089871   0.0088706    -0.49653     0.24825    -0.79893   -0.050894
-0.085648   -0.087272   -0.065835    -0.59332      0.1323    -0.82134    -0.09182
-0.097666   -0.084349    -0.17594    -0.74176   -0.007045    -0.79048    -0.11748
-0.09929   -0.076229    -0.28313    -0.88695   -0.086298    -0.68752    -0.11748
-0.086948   -0.060313    -0.34972    -0.98277   -0.056416    -0.51894   -0.089546
-0.063886   -0.035303    -0.35784     -1.0237    0.076106    -0.31009   -0.045372
-0.03303  -0.0047713    -0.31139    -0.99836      0.2463   -0.092145   0.0065969
0.0023744    0.023162    -0.22597    -0.87688     0.36486     0.10177    0.057917
0.034206    0.036804    -0.13145    -0.67972     0.37623     0.25637    0.094945
0.049796    0.030633   -0.060963    -0.52836      0.2619     0.36421     0.10859
0.0433   0.0046481   -0.031406    -0.60079    0.034206     0.42495    0.097543
0.015367   -0.033679   -0.043748    -0.98796    -0.29223     0.44996    0.073507
-0.022311   -0.076879   -0.087922     -1.6181    -0.72162     0.45451    0.044924
-0.062912    -0.11488    -0.15029     -2.3278     -1.2277     0.44704    0.019914
-0.097666    -0.14054     -0.2107      -2.981     -1.7415     0.42657  -0.0044465
-0.11456    -0.14964     -0.2513     -3.5114     -2.1599     0.38954   -0.028482
-0.10676    -0.13762    -0.25552     -3.8414     -2.3281     0.33887   -0.052843
-0.075255    -0.10481     -0.2159     -3.8024     -2.1027     0.28106   -0.070058
-0.024585   -0.054142    -0.13502     -3.2002     -1.4658     0.22487   -0.073631
0.034206   0.0069217   -0.025559     -1.9874    -0.56961     0.18459   -0.060963
0.094295    0.072858     0.09462    -0.36628     0.31939     0.16933   -0.037252
0.14659     0.13587     0.21285      1.2181     0.95503     0.17777   -0.010618
0.18199     0.18881     0.31354      2.3777      1.2428     0.19174   0.0052977
0.18492     0.21675     0.36908      3.0228      1.2198     0.18102 -0.00022403
0.14951     0.20148     0.36031       3.141      1.0034     0.12937   -0.027833
0.0865     0.13847      0.2947      2.8142      0.7267    0.044599    -0.06616
0.021538     0.05142     0.20798      2.2474     0.49901   -0.045372   -0.096367
-0.023285   -0.026533     0.14269      1.6803     0.37298    -0.11391    -0.10968
-0.042124   -0.074605     0.11443      1.2552     0.33595    -0.14574    -0.10676
-0.050894    -0.09117    0.098842     0.96413      0.3431    -0.13957   -0.098316
-0.061613   -0.088572    0.064413     0.73092     0.36161   -0.097341   -0.093444
-0.079152   -0.078503   0.0010752     0.51947     0.38662    -0.01614   -0.089546
-0.097017    -0.06616   -0.076229     0.32718     0.42203     0.10501   -0.080451
-0.10026   -0.048296    -0.13307     0.17257     0.46587     0.25378   -0.054142
-0.075579    -0.02426    -0.14444    0.074157     0.50907     0.39604   -0.007045
-0.031081  -0.0037969    -0.11293   -0.010618     0.53636     0.49283    0.048497
0.013093   0.0065969   -0.054792    -0.15743     0.53701     0.52077    0.091696
0.037129   0.0049729    0.013418    -0.38057     0.50355     0.48017     0.10371
0.032906  -0.0041217      0.0852    -0.60891     0.44606     0.38565    0.082602
0.015042   -0.011267     0.15536    -0.74468      0.3785     0.26677     0.03453
0.0039985   -0.011267     0.21285    -0.72974     0.30542     0.15406   -0.022311
0.0056225  -0.0041217     0.24403    -0.61281     0.21577    0.063763   -0.075904
0.0085458   0.0046481     0.23591    -0.51959     0.10534   0.0046481    -0.11553
-0.0011985   0.0095202     0.18362    -0.58585   -0.013866   -0.021012    -0.13567
-0.025559   0.0033489      0.0852    -0.83368    -0.13015    -0.01614     -0.1308
-0.059014   -0.014516   -0.044073     -1.1325    -0.24838    0.013093    -0.10156
-0.086623   -0.036927    -0.16295     -1.2615    -0.36401    0.058891    -0.04927
-0.095717   -0.051868    -0.23019     -1.0295    -0.44489     0.11151    0.012443
-0.087597   -0.046671    -0.23311    -0.39584    -0.44976     0.15633    0.067011
-0.073955   -0.025559    -0.18666     0.45873    -0.36173     0.18492     0.10664
-0.059339  -0.0034721    -0.12755      1.1769    -0.17757     0.19563     0.13197
-0.043099    0.012119   -0.086298      1.4439    0.074157     0.19499     0.14626
-0.024585    0.016666   -0.078827       1.161      0.3051     0.18589     0.15211
-0.0041217    0.011794   -0.096367     0.49673     0.40384      0.1664     0.14854
0.014717  -0.0018481    -0.12787    -0.27664     0.31224     0.13295     0.12775
0.026085   -0.024585    -0.16685    -0.95483    0.056292    0.081952     0.08585
0.027385   -0.053492    -0.20225     -1.4628    -0.26787    0.017965    0.030308
0.016666   -0.076229    -0.20778     -1.7441    -0.54233   -0.045697   -0.021337
0.0010752   -0.073631    -0.14899     -1.6954    -0.66738   -0.093119   -0.055766
-0.0060706   -0.036602    -0.01549     -1.2209    -0.60469    -0.11813   -0.069408
-0.0044465    0.021213     0.15536    -0.38902    -0.38739    -0.12885   -0.069083
-0.0050961    0.072858     0.29827     0.50972   -0.087272    -0.14087   -0.067784
-0.020687    0.097543     0.36031      1.1116     0.20505    -0.16685   -0.079802
-0.050244    0.089748     0.32491      1.2587     0.39929    -0.21265    -0.10384
-0.079152    0.060515     0.22259      1.0603     0.41488    -0.26689    -0.12625
-0.095393    0.027385    0.095919      0.7962     0.22844    -0.31139    -0.12885
-0.090196      0.0014    -0.01614     0.69259   -0.082725    -0.33315    -0.10384
-0.069408   -0.012242   -0.097666     0.75268    -0.37668     -0.3312   -0.059339
-0.040175   -0.019712    -0.14834     0.79978    -0.53843    -0.31171   -0.010943
-0.013866   -0.026209    -0.17724     0.65686    -0.52284    -0.28216    0.023487
0.00075039    -0.03238    -0.19186     0.32913    -0.35459    -0.25065    0.033556
-0.00022403   -0.039851    -0.19641 -0.00054884    -0.11553    -0.21979     0.01764
-0.013541   -0.046996    -0.19446    -0.15451    0.099167    -0.19738   -0.016789
-0.029457   -0.051868    -0.18829    -0.11163     0.21415    -0.18666   -0.056091
-0.039201   -0.053492    -0.17465    0.015042     0.20895    -0.18147   -0.085973
-0.034329   -0.044073    -0.14379     0.10306    0.098193    -0.17627   -0.094418
-0.013866   -0.021661    -0.09117    0.097218   -0.086623    -0.16425   -0.083375
0.015042     0.01017    -0.02426    0.013093    -0.33737    -0.14411   -0.062587
0.039078     0.03583    0.042001    -0.10351    -0.66088    -0.11943   -0.042774
0.045899    0.045899    0.092996    -0.20972     -1.0334   -0.097991    -0.03303
0.029983     0.03583     0.12613    -0.27339      -1.382   -0.090196    -0.03303
0.003024    0.013093     0.14496    -0.27014     -1.6135    -0.10059   -0.041475
-0.023285    -0.01484     0.15406    -0.22174     -1.6584     -0.1243   -0.052843
-0.039851   -0.041799     0.16023    -0.18407     -1.5044    -0.14704   -0.066485
-0.046347   -0.062587     0.16965    -0.19283     -1.1945    -0.15613   -0.081751
-0.044073   -0.074605     0.18557    -0.25617    -0.80672    -0.14249   -0.096692
-0.0405   -0.077528     0.20603    -0.38934    -0.42475    -0.10579    -0.10709
-0.039851   -0.072006     0.21675    -0.65634    -0.11358   -0.054467    -0.11066
-0.037577   -0.065186     0.20376     -1.1046     0.10144  0.00075039   -0.098965
-0.03173   -0.061937     0.16608     -1.6759     0.22194    0.054019   -0.071357
-0.027183   -0.063886     0.10664     -2.2096     0.25702    0.098193   -0.032055
-0.027833   -0.067784    0.034855     -2.4934     0.23591     0.12872    0.016341
-0.027508   -0.060638   -0.038227     -2.3622     0.21512     0.14886    0.077405
-0.016789   -0.029132   -0.093444      -1.849     0.25735       0.169     0.14724
0.012443    0.023162    -0.12625     -1.2062     0.38078     0.19336     0.21123
0.057592    0.079354    -0.14606    -0.70603     0.54903     0.21447     0.25605
0.10794     0.11866     -0.1727    -0.48289     0.69844     0.22162     0.27326
0.14691     0.12743    -0.22272    -0.53486     0.76437     0.20603     0.26287
0.1625     0.10371    -0.29547    -0.75865     0.73644     0.17582     0.23624
0.15438    0.059216    -0.36726    -0.92787     0.65946     0.14626     0.20083
0.12872   0.0091954    -0.41565    -0.79405     0.58475     0.12158     0.16283
0.092996   -0.036602    -0.42897    -0.27599     0.53766    0.091372     0.11768
0.056617   -0.072656    -0.40039     0.51362     0.51167    0.045574    0.072208
0.028034   -0.091495    -0.31951      1.3636      0.5042   -0.018088    0.030308
0.010495   -0.079477    -0.18277      2.0639     0.52499   -0.091495  -0.0054209
0.0020496   -0.029132   0.0078962      2.4677     0.57566    -0.16458   -0.035628
0.0065969    0.053044     0.22974      2.5005     0.64517    -0.22337   -0.059339
0.026735     0.14464     0.43859      2.1802     0.73027    -0.26332   -0.071357
0.056942      0.2174     0.57696      1.6888     0.83161    -0.28183   -0.072331
0.083576      0.2502     0.60911      1.3149      0.9638    -0.27339   -0.068109
0.091047     0.23818     0.53214      1.2626      1.1334    -0.22564   -0.058689
0.075781     0.19304     0.37753      1.5247      1.3062    -0.14054   -0.035303
0.044275     0.13165     0.19011      1.9194      1.3799   -0.028157   0.0010752
0.012119    0.069285    0.016666       2.215      1.1863    0.081627    0.042001
-0.0063954    0.013093    -0.11228      2.2435     0.58086     0.15796    0.073507
-0.0031473   -0.028157    -0.18471      1.9571    -0.35556     0.18687    0.092021
0.013743   -0.053817    -0.20453      1.4328     -1.2884     0.17842     0.10404
0.030957   -0.064211    -0.18601     0.83453     -1.8835     0.15276     0.11054
0.036804   -0.059339    -0.14444     0.34147      -1.979      0.1206     0.10501
0.024461   -0.041475    -0.09117    0.085525     -1.6226    0.085525    0.084226
-0.0011985   -0.018088   -0.034004    0.082277     -1.0097    0.050121    0.051096
-0.036927    0.003024     0.01017     0.22259    -0.36823    0.016991    0.016991
-0.073955    0.017965    0.026735      0.3457       0.131   -0.010943   -0.008669
-0.10546    0.027709   0.0091954     0.34537     0.42235   -0.030756   -0.026858
-0.12852     0.03518   -0.023935     0.22617     0.52109   -0.046022   -0.040175
-0.13112      0.0433   -0.054142    0.073507     0.47789   -0.059339   -0.051868
-0.11228     0.05207   -0.062587   -0.018738     0.33173   -0.071357   -0.062262
-0.079477    0.055318   -0.041799  -0.0060706     0.10274   -0.082725   -0.071032
-0.045047    0.047847  -0.0034721    0.084551     -0.2055    -0.09117   -0.079802
-0.020362    0.029983    0.033231     0.18037    -0.58715   -0.095717   -0.086948
-0.008669   0.0065969    0.053694     0.21058     -1.0169    -0.09994   -0.092145
-0.007045   -0.018088    0.050446     0.13847      -1.418    -0.10676   -0.094418
-0.0099683   -0.039526    0.020564   -0.018738     -1.6824    -0.11423   -0.092145
-0.0089938   -0.051868   -0.025559     -0.2081     -1.7285    -0.11358   -0.081426
-0.0037969   -0.052843   -0.077203    -0.36336     -1.5405    -0.10124   -0.059989
0.0039985   -0.043099    -0.12235    -0.44521     -1.1708   -0.075904    -0.03173
0.013418   -0.030106    -0.14931    -0.44976     -0.7161    -0.04862  -0.0063954
0.022512   -0.019712    -0.15158    -0.40006    -0.27696   -0.025559   0.0085458
0.02641    -0.01484    -0.12982     -0.3325    0.071883  -0.0063954    0.011469
0.023487   -0.016789   -0.094743    -0.27793     0.29762     0.01829   0.0049729
0.012443   -0.021661   -0.058365    -0.24805     0.41423     0.06019  -0.0011985
-0.0037969   -0.025234   -0.030106    -0.24415     0.46198     0.13587  -0.0054209
-0.01614   -0.025884   -0.015165    -0.26072     0.48147     0.25605  -0.0028225
-0.019063   -0.021337  -0.0063954     -0.2945     0.49186     0.40708   0.0078962
-0.013866   -0.013541      0.0014    -0.33737     0.49576     0.54903     0.01894
-0.0034721  -0.0011985    0.008221    -0.37992     0.48699     0.64517    0.023487
0.0033489     0.01017   0.0095202    -0.41046     0.46815     0.67927    0.014717
0.0017248    0.014392   0.0026992    -0.42085     0.45126     0.65166  -0.0083442
-0.0089938    0.011144  -0.0080194    -0.40786     0.45126     0.57436   -0.041475
-0.022961   0.0072465   -0.016464    -0.38415     0.47659     0.46295   -0.071032
-0.034978    0.003024   -0.022311    -0.36401     0.52239     0.33725   -0.087272
-0.044723  -0.0011985    -0.02361    -0.35329     0.57696     0.21577   -0.091495
-0.050894   -0.008669   -0.022961    -0.35069     0.62016     0.10177   -0.088247
-0.054142   -0.014191   -0.019712    -0.35102     0.63607  -0.0083442   -0.077853
-0.054142   -0.015165   -0.013541    -0.34907     0.62438    -0.12268   -0.065186
-0.051868   -0.010618  -0.0080194    -0.34322       0.588    -0.24545   -0.052518
-0.049595  -0.0057458  -0.0044465    -0.33705     0.53084    -0.37408   -0.045372
-0.04927  -0.0054209  -0.0021729    -0.33672     0.45093    -0.50075   -0.046671
-0.048945   -0.010293   0.0010752    -0.33348     0.34407    -0.62353   -0.047646
-0.04862   -0.021986   0.0062721    -0.30912     0.20246    -0.75118   -0.043748
-0.04927   -0.039201   0.0085458    -0.27079    0.029333    -0.89507   -0.036927
-0.048296   -0.057715  0.00010078    -0.25617    -0.14964     -1.0562   -0.032055
-0.048945   -0.072331   -0.020362    -0.32178    -0.29288     -1.2303   -0.030756
-0.049595   -0.079152   -0.044073    -0.52544     -0.3744     -1.4014   -0.031081
-0.046671   -0.076879   -0.060313    -0.85577    -0.38317     -1.5479    -0.03173
-0.033354    -0.06551   -0.062912     -1.2176    -0.33283     -1.6476    -0.03238
-0.011592   -0.046996   -0.057065     -1.5002    -0.26429     -1.6873   -0.035628
0.0091954   -0.027833   -0.053492     -1.6512    -0.22791     -1.6636   -0.044723
0.016991    -0.01484   -0.061613     -1.7045    -0.23571     -1.5817   -0.059339
0.011794   -0.010618   -0.084999      -1.699    -0.25942      -1.443   -0.078178
0.00010078  -0.0096434    -0.11521     -1.5674    -0.24708      -1.242   -0.095068
-0.0089938  -0.0031473    -0.13404     -1.2088    -0.16847    -0.96783    -0.10156
-0.008669    0.015692    -0.11553     -0.5865   -0.034978    -0.62938   -0.093769
0.0020496    0.045574    -0.04992     0.22649     0.10242    -0.26494   -0.073306
0.017316    0.076106     0.05272     0.98687     0.18914    0.075456    -0.04862
0.027709     0.09462     0.16121      1.4734     0.19044     0.33823   -0.027833
0.028359    0.094945     0.25248      1.6027    0.099167     0.50648   -0.011267
0.017965    0.077405     0.31549      1.4429   -0.054792      0.5919   0.0020496
0.0014    0.048172     0.34894      1.1548    -0.21622      0.6325    0.016666
-0.012892    0.016341     0.35512     0.89397    -0.33737     0.65978    0.037454
-0.017439  -0.0089938      0.3366     0.72767    -0.37798     0.68447    0.061814
-0.012892   -0.021661     0.29373     0.62536    -0.30522     0.70136    0.083576
-0.0037969   -0.024909     0.22941     0.53051     -0.1243     0.69941     0.10112
0.0039985   -0.027183     0.14886     0.42982     0.11898     0.67765     0.11183
0.011794    -0.03303    0.064737     0.36194     0.37883     0.64257     0.11833
0.022837   -0.040175  -0.0057458     0.36259     0.63542     0.60327     0.12125
0.034855   -0.041475   -0.047971     0.42852     0.86734     0.56332     0.11995
0.045574   -0.036602   -0.061613     0.52791      1.0323     0.52272     0.10826
0.053694    -0.03303   -0.064861     0.62276      1.0866     0.48439    0.083576
0.057592   -0.030431   -0.076229      0.6835       1.009     0.45126     0.05207
0.060515   -0.029132    -0.10221     0.69649     0.81569     0.42657    0.023162
0.057592    -0.02426    -0.13112     0.66726     0.55357     0.40903      0.0014
0.042001    -0.01484    -0.15029     0.61009     0.28236     0.39864   -0.011592
0.014717      0.0014    -0.15288     0.53538    0.080653     0.39734   -0.016789
-0.01484    0.019264    -0.13859     0.44898    0.029333     0.41131   -0.012567
-0.034978    0.034206    -0.11358     0.35544     0.14334     0.44249  -0.0021729
-0.042124    0.041676   -0.086298     0.25443     0.36324     0.48504    0.008221
-0.037902    0.041351   -0.065186     0.14204     0.57404     0.53311    0.016991
-0.025559    0.033881   -0.053168   0.0078962     0.64744     0.57566    0.019264
-0.011917    0.022188   -0.050894    -0.19608     0.51784      0.5997    0.012768
-0.0034721    0.008221   -0.061937    -0.50043     0.19628      0.5945  -0.0021729
-0.0050961   -0.007045   -0.085324    -0.85447     -0.2487     0.56137   -0.022311
-0.021337    -0.02361    -0.11586     -1.1702    -0.70668      0.5107    -0.04115
-0.048945   -0.041475    -0.14087     -1.3894     -1.0688       0.461   -0.045697
-0.079477    -0.05739    -0.15061     -1.5161     -1.2563     0.42462    -0.03303
-0.10351   -0.064536    -0.14281       -1.52     -1.2374     0.40968  -0.0057458
-0.11098   -0.057715     -0.1178     -1.3063     -1.0448     0.41456    0.029983
-0.092794   -0.037252   -0.077853    -0.80185    -0.75475     0.43047    0.065712
-0.04862  -0.0083442   -0.023285   -0.026533    -0.45236     0.44671    0.096893
0.012119    0.020564    0.036479      0.8001    -0.20518     0.45093      0.1206
0.073832    0.042975     0.08585       1.399   -0.068758     0.43339     0.13425
0.12125    0.053044     0.10924       1.642   -0.096042     0.39377     0.13684
0.14529    0.051096     0.10079      1.5842    -0.32081     0.32881     0.12775
0.14789    0.038428    0.070909      1.3744    -0.71318     0.23754     0.10761
0.13684    0.021863    0.032582      1.1392     -1.1621     0.11801    0.076755
0.11281   0.0043233  -0.0044465     0.93425     -1.5401   -0.022961    0.032582
0.073832   -0.010293   -0.033354     0.75625     -1.7467    -0.17692    -0.02426
0.021863   -0.021337    -0.04992     0.58573     -1.7308    -0.33055   -0.082725
-0.039526   -0.031406   -0.052193     0.41683     -1.5002    -0.46405    -0.12852
-0.09929   -0.039526   -0.048296     0.26092      -1.114    -0.55759    -0.15516
-0.14119   -0.044398   -0.047971     0.12807    -0.65536    -0.60209    -0.16133
-0.161   -0.046022   -0.059664    0.025111    -0.21102    -0.59527    -0.15516
