0.021213    0.009845  -0.0037969     0.16283    -0.48451 -0.00087364    0.045899
0.012768  -0.0041217  -0.0063954     0.13847     -0.5839  0.00010078    0.054993
0.0052977   -0.008669   -0.012242     0.11963    -0.57383   0.0062721    0.054019
-0.0060706  -0.0047713   -0.017114     0.10794    -0.48029   0.0088706    0.040377
-0.022636      0.0014   -0.017439    0.098842    -0.35232   0.0023744    0.016016
-0.042124   0.0039985   -0.008669    0.093321    -0.23474   -0.019063   -0.013541
-0.063886   0.0010752    0.010819    0.098842    -0.14444   -0.055116   -0.044398
-0.084674  -0.0028225     0.03518     0.11248   -0.085648   -0.097341   -0.072006
-0.10124  -0.0031473    0.058566     0.10144   -0.057065    -0.13599   -0.095393
-0.11098  -0.0024977    0.072208    0.038103   -0.056091     -0.1597    -0.11033
-0.11033  -0.0028225    0.073832   -0.064211   -0.065835    -0.16165    -0.11456
-0.096367   -0.007045    0.063438    -0.15678   -0.068109    -0.13957    -0.10676
-0.072006   -0.014191    0.040052    -0.21395   -0.046347    -0.10026   -0.087922
-0.042774   -0.023935  -0.0021729    -0.26234   0.0085458   -0.054792   -0.062587
-0.015165   -0.032705    -0.06551    -0.32633     0.10079   -0.012567   -0.029457
0.0075714   -0.037902    -0.14509    -0.40591     0.22552    0.021863     0.01017
0.023162    -0.04115    -0.21882    -0.47477     0.36616     0.05142    0.054019
0.029009   -0.045372    -0.26234    -0.50368     0.49511    0.076106    0.092021
0.028684    -0.04927    -0.26267    -0.47152     0.59125    0.093645     0.11768
0.030308    -0.04862    -0.22077    -0.38772     0.64225     0.10566     0.12613
0.039402   -0.047971    -0.15191    -0.28183     0.64647     0.11118     0.11898
0.057267   -0.046671   -0.077853    -0.18569     0.61366     0.10859    0.098842
0.075781   -0.044398   -0.017439    -0.11813     0.56072    0.098193    0.074806
0.084226   -0.040825    0.024461    -0.08305     0.50648    0.083901    0.055643
0.079029    -0.03238    0.050121   -0.071032     0.46523     0.06961    0.045899
0.061165   -0.024909    0.061165   -0.069408     0.43762    0.059865    0.042001
0.031282   -0.020687    0.059216   -0.070058     0.41196    0.055643     0.03583
-0.0073698    -0.01484    0.049796   -0.072656     0.37688    0.053694    0.020239
-0.04927  -0.0093186    0.045574   -0.078178     0.32361    0.048822 -0.00054884
-0.085973   -0.007045    0.052395   -0.080451     0.23786    0.042975   -0.018738
-0.10709  -0.0099683    0.067986   -0.079802    0.099492    0.038428   -0.029132
-0.10936   -0.014191    0.084876   -0.078178    -0.10903    0.037778   -0.027508
-0.097666   -0.020037    0.092996   -0.074605    -0.38512    0.039727   -0.017439
-0.079477   -0.028157    0.083251   -0.069408     -0.6664    0.045899  -0.0031473
-0.061613   -0.034004    0.062464   -0.063561    -0.85739    0.048822    0.011794
-0.051868   -0.034329    0.035505   -0.061288    -0.88955    0.044599    0.022512
-0.052843   -0.031406    0.013093   -0.063237    -0.75215    0.032906     0.02641
-0.060963   -0.029132 -0.00087364   -0.076879    -0.48808    0.016341    0.023162
-0.067459    -0.03173  -0.0060706   -0.094093    -0.15808 -0.00022403    0.010495
-0.067459   -0.037577  -0.0044465   -0.090196     0.17062   -0.010618  -0.0063954
-0.057715   -0.038876   0.0052977   -0.045372     0.45093  -0.0083442   -0.021012
-0.040175    -0.03238    0.023487    0.032906     0.65654   0.0020496   -0.026209
-0.021012   -0.018413    0.048172     0.11898     0.77899    0.015042   -0.021661
-0.0076946  -0.0018481    0.073507     0.18232     0.82674     0.02706   -0.012892
-0.0047713    0.011144    0.089423     0.20765     0.81602    0.036804  -0.0037969
-0.012567    0.019264    0.093321     0.19856     0.76665    0.041027      0.0014
-0.025884    0.023812    0.088448     0.16705     0.69421    0.045249   0.0023744
-0.037902    0.029333    0.075781     0.12905       0.588    0.051096   0.0023744
-0.044398    0.030308    0.054993    0.095919      0.4308    0.054668  0.00042559
-0.045372    0.026735    0.030633    0.070909     0.23526    0.055318  0.00010078
-0.040825    0.017316   0.0072465    0.053369    0.041351    0.050771   0.0026992
-0.03303   0.0046481   -0.012242    0.042001   -0.098316    0.042001   0.0052977
-0.026209  -0.0076946   -0.030106    0.032257    -0.15678    0.028359   0.0052977
-0.021337    -0.01484   -0.046347    0.023812    -0.13664    0.011469 -0.00022403
-0.017439   -0.017439   -0.061613    0.022188   -0.064211  -0.0047713   -0.011917
-0.013866   -0.014191   -0.070058    0.028684    0.021538   -0.018088   -0.025884
-0.012892  -0.0089938   -0.066485    0.037454    0.097218   -0.028482   -0.037902
-0.01484  -0.0044465   -0.051219    0.039727     0.18459   -0.036602   -0.044398
-0.01614  -0.0024977   -0.028482    0.033556     0.30867   -0.041799   -0.043423
-0.014516  -0.0037969  -0.0047713    0.023162     0.46035   -0.043748   -0.034329
-0.0099683  -0.0060706    0.015042    0.012768     0.58735   -0.041799   -0.024585
-0.0024977  -0.0096434    0.030308   0.0043233     0.64744   -0.038227    -0.01614
0.009845   -0.015165    0.042001  -0.0011985     0.62113   -0.032055   -0.011592
0.021538   -0.020037    0.046223  -0.0054209      0.5146   -0.028807   -0.010293
0.029009   -0.023935    0.039078   -0.010943     0.34017   -0.032055   -0.013541
0.031282   -0.029132    0.026085   -0.021986     0.12385   -0.043099   -0.021012
0.032582   -0.034654    0.014392   -0.039526   -0.070382   -0.059339    -0.02426
0.039727   -0.035953   0.0088706    -0.05804    -0.17757   -0.078827   -0.022311
0.050771   -0.031081    0.011144   -0.069408    -0.16133   -0.089546    -0.01484
0.059541   -0.022636    0.014717   -0.070058   -0.042774   -0.089871  -0.0093186
0.056617   -0.015165    0.014717   -0.061613     0.11443     -0.0837   -0.008669
0.038753   -0.012892   0.0095202   -0.051219     0.23883   -0.077853   -0.013216
0.012443   -0.010943   0.0033489   -0.043099     0.28918   -0.073631   -0.015165
-0.014191  -0.0057458  -0.0041217   -0.037577     0.26352   -0.068758   -0.017764
-0.034654    0.003024   -0.016464   -0.035303     0.18816   -0.059664   -0.020037
-0.045372    0.010495   -0.036278   -0.035953    0.096244   -0.041475   -0.024585
-0.044723    0.012443   -0.061937   -0.036927   0.0056225   -0.017439   -0.029457
-0.036278    0.009845   -0.089546   -0.032055   -0.073631   0.0052977   -0.033679
-0.03303   0.0056225    -0.11813   -0.021986    -0.14606    0.024461    -0.03173
-0.038876  0.00075039    -0.14346   -0.007045    -0.21687    0.042001   -0.022636
-0.048296  -0.0034721    -0.16035   0.0069217    -0.28833    0.051745  -0.0099683
-0.054792  -0.0057458    -0.16458    0.014717    -0.36531    0.052395   0.0017248
-0.05804  -0.0044465    -0.15841   0.0088706    -0.46015    0.042975    0.010495
-0.057065   0.0010752    -0.14087  -0.0080194    -0.60372     0.02706    0.012768
-0.055441   0.0091954    -0.11683   -0.024909    -0.80672   0.0088706   0.0085458
-0.050894    0.020239   -0.089546   -0.033354     -1.0438  -0.0073698    0.003024
-0.043423    0.030957   -0.061613   -0.029132     -1.2709   -0.021661  -0.0015233
-0.030106    0.039727   -0.034654   -0.021337     -1.4453   -0.033679  -0.0057458
-0.010943    0.041027   -0.010943    -0.01484     -1.5219   -0.046996  -0.0050961
0.011469     0.03453   0.0059473   -0.008669     -1.4687   -0.062262  -0.0011985
0.029658    0.021213    0.013418  -0.0034721     -1.2676   -0.079152   0.0059473
0.039727   0.0072465    0.013743   0.0033489    -0.93177   -0.097017    0.011144
0.037129  -0.0037969    0.011794    0.016666    -0.51602    -0.12008    0.010819
0.028034  -0.0096434   0.0046481    0.039402    -0.10416    -0.14834   0.0023744
0.01017   -0.010943  -0.0063954    0.064737     0.21512    -0.17692  -0.0076946
-0.017114  -0.0080194   -0.022961    0.084876     0.38695    -0.19543   -0.017764
-0.052518  -0.0037969   -0.044073    0.092346      0.4165    -0.19738   -0.027508
-0.088896  -0.0021729   -0.064861    0.087149     0.34862    -0.18147   -0.034978
-0.1191 -0.00087364   -0.076879    0.072208     0.24436    -0.14476   -0.035303
-0.13307   0.0020496   -0.080127     0.05142     0.15373   -0.070382   -0.020037
-0.12657   0.0069217   -0.078503    0.025436     0.10306    0.057592   0.0075714
-0.10189    0.010819   -0.078178  -0.0063954    0.097868     0.23916    0.037129
-0.066485    0.015042   -0.080776   -0.042774     0.12548     0.44379    0.055318
-0.026209    0.017316   -0.081751   -0.070707     0.17647     0.63055    0.062139
0.016991    0.017965    -0.07428   -0.073955     0.23559     0.76275     0.06084
0.057592    0.017965   -0.050244   -0.044723     0.28788     0.81537    0.057267
0.085525    0.020888  -0.0080194    0.014068     0.32231     0.77866    0.054668
0.097543    0.027385    0.053369      0.0865     0.33595     0.66791    0.054993
0.097218     0.03453      0.1232     0.15763     0.33725     0.51232     0.06019
0.088448    0.039078     0.18459      0.2148     0.33368     0.34245    0.068635
0.074482    0.038428     0.22812     0.24403     0.32816     0.18037    0.081303
0.054344    0.033231     0.24728     0.23981     0.32653    0.039402    0.097543
0.027385    0.024461     0.23981     0.20311     0.34115   -0.068109     0.11411
-0.0018481    0.014392     0.20895     0.14204     0.38013    -0.13989     0.12515
-0.022961   0.0062721     0.15926    0.067661     0.43534    -0.18407     0.13425
-0.031406   0.0072465    0.099492  -0.0044465     0.49088    -0.20485     0.14107
-0.027833     0.01829    0.040052   -0.064211     0.52629    -0.20843     0.14334
-0.016464    0.036479   -0.010293    -0.10189     0.52921    -0.20972     0.13944
-0.0050961    0.054344   -0.046347    -0.11358     0.49024    -0.22434     0.13035
0.00010078     0.06831   -0.067459    -0.09929     0.39572    -0.27014     0.11703
0.00042559    0.075781   -0.068109   -0.071032     0.22909    -0.35654    0.099167
0.0020496    0.080003   -0.048296   -0.041475   -0.023935    -0.48938    0.079354
0.0095202    0.081627    -0.01484   -0.017439    -0.37148    -0.66575    0.055968
0.019589    0.082277    0.019264  0.00042559    -0.80087    -0.86421    0.028684
0.033556    0.079029    0.041351    0.017965     -1.2605     -1.0503  -0.0018481
0.047523     0.06896    0.048497    0.039727     -1.6723     -1.1932   -0.030106
0.056617    0.051745    0.042651    0.059216     -1.9504     -1.2712   -0.053492
0.054668    0.030957    0.027709     0.06084     -2.0348     -1.2777   -0.068434
0.041351    0.009845   0.0033489    0.028034     -1.9189     -1.2101   -0.076229
0.025111  -0.0034721   -0.026533   -0.044723     -1.6389     -1.0705   -0.078503
0.014392  -0.0089938   -0.061613    -0.15905     -1.2553    -0.87396   -0.075904
0.012443  -0.0089938   -0.094093    -0.29547    -0.83108    -0.64789   -0.070382
0.017316  -0.0063954    -0.11878    -0.41533    -0.42247    -0.42345   -0.061288
0.024137  -0.0080194     -0.1295    -0.49491   -0.062912    -0.21914   -0.053168
0.028034   -0.012892    -0.12235    -0.52934     0.24143   -0.034329   -0.051219
0.025436   -0.019712   -0.095393    -0.51764     0.51005     0.13847   -0.057715
0.017965   -0.023285   -0.050894    -0.44748     0.77217     0.29697   -0.075255
0.012119   -0.020037   0.0069217    -0.30327      1.0382     0.43664   -0.098641
0.015042  -0.0047713    0.067986   -0.081426      1.2701     0.55032    -0.11878
0.020888    0.020564     0.11833     0.17939      1.3513     0.63023    -0.13177
0.026735    0.044924     0.14659     0.40936      1.1275     0.67473     -0.1321
0.030633     0.06019     0.14691     0.54935     0.53116     0.69259    -0.12268
0.028034    0.057267     0.12515     0.57144    -0.28865     0.69162    -0.10579
0.020564    0.040377    0.087474     0.48569     -1.0383      0.6835   -0.090196
0.012119    0.014717    0.036804     0.34732     -1.4843     0.67278   -0.079152
0.0062721  -0.0067202   -0.018413     0.22779     -1.5434     0.64679   -0.076554
0.0088706   -0.019388    -0.06681     0.18167     -1.2991      0.5893   -0.080127
0.017316   -0.025234   -0.098316      0.2161    -0.92138     0.49186   -0.082076
0.027385   -0.026858    -0.10806     0.30704    -0.56929     0.35934   -0.076554
0.030957   -0.025234    -0.10059     0.42008    -0.32276     0.21155   -0.065186
0.025761   -0.025884   -0.082725     0.52531    -0.18471    0.077405   -0.052843
0.013743   -0.028482   -0.060638      0.5984    -0.11196   -0.024585   -0.043099
0.00010078   -0.031081   -0.037902     0.62568   -0.059664   -0.087597   -0.038551
-0.0076946   -0.035953   -0.018413     0.59158  -0.0080194     -0.1204   -0.039526
-0.008669   -0.043423  -0.0031473     0.47562    0.047523    -0.13957   -0.048296
-0.0018481   -0.050894   0.0052977     0.26937     0.10729     -0.1623   -0.061613
0.0075714   -0.053168    0.011144  -0.0018481     0.18167    -0.19381   -0.072656
0.01829   -0.045697    0.015042    -0.27696     0.27391    -0.22856   -0.074605
0.029009   -0.027833    0.016341    -0.49166     0.36518    -0.25975   -0.067134
0.036804  -0.0073698    0.013743    -0.60274     0.41878    -0.28768    -0.04927
0.041676   0.0046481 -0.00087364    -0.59949     0.41456    -0.31366   -0.027833
0.048497   0.0075714   -0.034978    -0.49426     0.35706    -0.33607   -0.010293
0.054993   0.0010752   -0.081426    -0.33023     0.27489    -0.35394    0.003024
0.055968   -0.011267    -0.12885    -0.16718     0.20635    -0.37115    0.011144
0.05207   -0.024909    -0.16393   -0.042124     0.18524    -0.38674    0.010819
0.041676   -0.034654    -0.17594    0.045899     0.22357    -0.39227   0.0036737
0.028034   -0.035303    -0.16523     0.12288     0.30997    -0.37473  -0.0080194
0.013418   -0.028157    -0.13859      0.2135      0.4165    -0.32503   -0.021986
0.00042559   -0.020037    -0.10189     0.31516     0.51395    -0.24578   -0.034978
-0.010618   -0.018413   -0.062587     0.40643     0.58378    -0.14996   -0.045047
-0.023935   -0.020362   -0.020037     0.45938     0.62406   -0.051868   -0.048296
-0.036927   -0.017114     0.02641     0.45028     0.64354    0.038753     -0.0405
-0.047321  -0.0050961    0.076431     0.36908     0.65199     0.12515   -0.019388
-0.050894    0.013093     0.11833     0.22909     0.65329     0.20863     0.01017
-0.046022    0.029333     0.13977    0.064088     0.65296     0.29178    0.040377
-0.0405    0.033231     0.13295   -0.085973     0.65849     0.36713    0.064737
-0.037252    0.025436     0.10371    -0.19381     0.66693      0.4217    0.083576
-0.039526   0.0095202    0.061814    -0.26624     0.67148     0.44476     0.09397
-0.043748   -0.010293    0.017965     -0.3286     0.66661     0.43794    0.092671
-0.047321   -0.029132   -0.020687    -0.41176     0.64809     0.41033    0.080653
-0.04992   -0.044723   -0.050244    -0.54363     0.61691     0.37395    0.065387
-0.050244   -0.053492   -0.061288     -0.7213     0.57728     0.33693    0.055968
-0.046671   -0.051544   -0.054142    -0.90839     0.53376     0.30769    0.052395
-0.037252     -0.0405   -0.034654     -1.0477     0.49121     0.28983     0.05142
-0.022961   -0.022311   -0.012892     -1.0984     0.44704     0.27976    0.048172
-0.007045  -0.0031473   0.0036737     -1.0237     0.39052     0.26937    0.037129
0.0078962    0.010819    0.016016    -0.79795     0.32393     0.25702    0.017965
0.01829    0.020239    0.032582    -0.41403     0.26547     0.24695  -0.0018481
0.022837    0.026735    0.063763      0.0865     0.23039     0.24176    -0.01614
0.023162    0.031282     0.10891     0.61951     0.21902     0.23981   -0.019063
0.015692    0.035505     0.15568      1.0755     0.22097     0.23624   -0.012892
0.0014    0.038103     0.18816      1.3555        0.22     0.22714  -0.0076946
-0.010618    0.033881     0.19661      1.4091     0.20798     0.21512  -0.0093186
-0.018413    0.022188     0.18134      1.2146     0.18524     0.20051   -0.018413
-0.025884   0.0039985     0.14919     0.79198     0.17257     0.18297   -0.030106
-0.040825    -0.01549     0.10599     0.21967     0.19888     0.15958   -0.037577
-0.064536    -0.03238    0.055968     -0.3796     0.27099       0.131   -0.042449
-0.093119   -0.043099    0.003024     -0.9269     0.36746    0.097868   -0.046022
-0.11488   -0.050244   -0.059989     -1.4521     0.45191    0.065387    -0.04862
-0.12398   -0.056741    -0.13892     -2.0001     0.50777    0.043625    -0.04927
-0.1178   -0.058365    -0.22304     -2.4912     0.53279    0.042001   -0.041799
-0.095717   -0.045697    -0.28378     -2.7098     0.52954    0.062139   -0.025559
-0.055766   -0.017439    -0.29353     -2.4463     0.50193    0.099817  -0.0047713
-0.0037969    0.023812    -0.24156     -1.6671     0.45613     0.14302    0.018615
0.049472    0.064737    -0.13632    -0.53356     0.38922     0.17452    0.044599
0.090397    0.097543  -0.0037969     0.71305     0.30477     0.18394    0.070259
0.10729     0.11411     0.12288      1.8421     0.22065     0.16868    0.090072
0.097868     0.11021     0.21025      2.7308     0.16056     0.13652    0.095594
0.06831    0.088124     0.23494      3.2732     0.13587    0.091372    0.082602
0.031607     0.05207     0.19758      3.4025     0.13944    0.037778    0.056942
-0.00087364   0.0069217     0.11801      3.1316     0.15958   -0.021012     0.02706
-0.025884     -0.0405    0.025761      2.5576     0.18102   -0.084024  -0.0028225
-0.044723   -0.080776   -0.051868      1.8463     0.18719    -0.14184   -0.026858
-0.058365    -0.10968    -0.09929      1.1717     0.15991    -0.18959   -0.039851
-0.064861    -0.12365    -0.11456     0.65329    0.081303    -0.21752   -0.040175
-0.061613     -0.1204    -0.11066     0.32458   -0.054792    -0.21655    -0.02361
-0.04927    -0.10676    -0.10514     0.14107    -0.24221    -0.18634   0.0056225
-0.028157   -0.089871    -0.11163     0.02641    -0.47932    -0.13697    0.033556
-0.0076946   -0.072981    -0.13502   -0.081751    -0.76644   -0.086298    0.048172
0.0020496   -0.054792    -0.17075    -0.20355     -1.0948   -0.050569    0.045574
-0.0015233   -0.037902    -0.20615    -0.32308     -1.4401   -0.036927     0.03583
-0.017439   -0.023285    -0.22467     -0.4124     -1.7435   -0.043423    0.031932
-0.034329   -0.013216    -0.21655    -0.44911     -1.9189   -0.063237    0.038753
-0.042774  -0.0057458    -0.17724    -0.43059     -1.8926     -0.0824     0.05207
-0.045047   0.0043233    -0.11326    -0.37213     -1.6412   -0.093444    0.063113
-0.044073    0.014392   -0.041475    -0.29807     -1.2046   -0.092794     0.06961
-0.046022    0.024786    0.017316    -0.23733    -0.68167   -0.084024    0.073832
-0.049595    0.031607    0.048497    -0.20778    -0.19186   -0.071682    0.076755
-0.051544    0.030633    0.050771    -0.21427     0.18557   -0.063561    0.074157
-0.050894    0.021863    0.032906    -0.25455     0.42592   -0.056091    0.061165
-0.045697   0.0091954   0.0039985    -0.33055     0.52499   -0.050244    0.040702
-0.034654  -0.0037969   -0.028157    -0.44651     0.47789   -0.044073    0.020564
-0.023285    -0.01484    -0.05739     -0.5917     0.30445   -0.044073   0.0052977
-0.013866   -0.021986   -0.078503    -0.74631    0.061814   -0.054467  -0.0057458
-0.007045   -0.024585   -0.086948    -0.88435    -0.17854   -0.072656   -0.014516
-0.0034721   -0.025884   -0.084674    -0.97595    -0.35589   -0.088896   -0.022636
-0.0034721   -0.026858   -0.079802     -1.0149    -0.45073   -0.090845   -0.026533
-0.0044465   -0.025884   -0.079477     -1.0149    -0.50303   -0.073631   -0.029457
-0.0067202    -0.02426   -0.081101    -0.98407    -0.59072   -0.047646   -0.034004
-0.010943   -0.020037    -0.07428    -0.90611    -0.77846   -0.031081   -0.040825
-0.015815   -0.012892   -0.054792     -0.7502     -1.0779   -0.038551   -0.050894
-0.019063  -0.0031473   -0.025234    -0.50692     -1.4352   -0.075904   -0.064536
-0.019063   0.0049729     0.01017    -0.20355     -1.7578    -0.13469   -0.081751
-0.018738    0.010819      0.0433     0.10177     -1.9647    -0.19868   -0.096692
-0.018413    0.014717    0.066037     0.34667     -2.0092    -0.25292    -0.10903
-0.022311     0.01829    0.074806     0.49706     -1.8692     -0.2906    -0.11748
-0.032055     0.01894    0.072208     0.54805     -1.5431    -0.31691    -0.12235
-0.044723     0.01764    0.066362     0.51525     -1.0604     -0.3364    -0.12463
-0.057715    0.013093    0.060515     0.42657    -0.48191    -0.35426    -0.12365
-0.072331   0.0046481    0.055318     0.31289     0.10599    -0.36888    -0.12105
-0.084349  -0.0067202     0.05207     0.19174     0.61236    -0.36985    -0.11748
-0.093769   -0.021337    0.049472    0.070584     0.97095    -0.35264    -0.11228
-0.09994   -0.034329    0.048172   -0.044073      1.1535    -0.31854    -0.10416
-0.099615   -0.042449    0.045249    -0.13957      1.1727    -0.26787   -0.092794
-0.09182   -0.047321    0.038428    -0.20583       1.071    -0.20908   -0.079477
-0.075579   -0.047646    0.024461    -0.24058     0.90372    -0.15158   -0.063561
-0.049595   -0.043423   0.0049729     -0.2461     0.72507    -0.10254   -0.041475
-0.015165   -0.034654   -0.012242    -0.23474     0.57079   -0.063237   -0.016789
0.021538   -0.026533   -0.022636    -0.21882     0.45126   -0.036927   0.0062721
0.050121   -0.019712   -0.024909    -0.20778     0.36518    -0.02426    0.022188
0.063763    -0.01549   -0.025234    -0.20323     0.30542   -0.025884    0.029333
0.064413   -0.010293   -0.025559    -0.20355     0.25735     -0.0405    0.027709
0.055643  -0.0011985    -0.02426    -0.20063     0.21545   -0.060638    0.016666
0.043625    0.011794   -0.014191    -0.19056     0.18329   -0.075255      0.0014
0.033881    0.021213     0.01764    -0.17497      0.1638   -0.081426  -0.0099683
0.026085    0.020239    0.069934    -0.15613     0.15536   -0.081426   -0.013866
0.019914    0.011144      0.1323    -0.13729     0.15341   -0.078827   -0.010943
0.01764   0.0033489     0.18979     -0.1204     0.14496   -0.074605  -0.0050961
0.022188      0.0014     0.23396    -0.10774     0.10599   -0.068109 -0.00022403
0.029983   0.0078962     0.25767   -0.096367   0.0075714   -0.060313   0.0046481
0.038753     0.01829      0.2554   -0.084024    -0.14346   -0.054792    0.010819
0.045249    0.028034     0.22454   -0.068109    -0.30424   -0.059014    0.017965
0.046873    0.031932     0.17225    -0.04992    -0.41305   -0.073306    0.024786
0.047198    0.033881     0.11021   -0.032055    -0.42572   -0.091495    0.029009
0.050446     0.03518    0.053369   -0.014191     -0.3416    -0.10416    0.031607
0.055968    0.034206     0.01017   0.0072465    -0.19024    -0.10449    0.031607
0.058241     0.02641   -0.015165    0.031607   -0.019063   -0.091495    0.030308
0.05272    0.014068    -0.03173    0.061165     0.12775   -0.066485    0.029983
0.0433  0.00042559   -0.045047     0.10177     0.22519   -0.034978    0.029333
0.033881  -0.0093186   -0.058365     0.15309     0.27521  -0.0047713    0.030633
0.030957   -0.013866   -0.072006     0.20765      0.2895    0.014717    0.030957
0.037454   -0.015815   -0.089546     0.25215     0.27651    0.015042    0.026735
0.047198   -0.018738    -0.11033     0.26514     0.23721  -0.0011985    0.012768
0.051745   -0.019712    -0.12852     0.23234      0.1781   -0.024909  -0.0096434
0.049796    -0.01549     -0.1295     0.16835     0.12093   -0.045047   -0.030431
0.039402  -0.0015233    -0.10059    0.095269    0.091696   -0.055441   -0.042774
0.021863    0.019914   -0.049595    0.017316     0.10599   -0.049595   -0.044723
-0.0021729    0.042651   0.0033489   -0.066485     0.16088   -0.027833   -0.042774
-0.029132    0.060515    0.042975    -0.11975     0.24306   0.0026992   -0.042449
-0.052193    0.071558    0.064413   -0.089871     0.33563    0.033556   -0.040825
-0.06551    0.076106    0.072858    0.024461      0.4178     0.05272   -0.034978
-0.062587    0.076106    0.071883     0.15796     0.46977    0.056942   -0.027508
-0.044073     0.06896    0.061165     0.24338     0.48276    0.050771   -0.017114
-0.021012    0.055643    0.042975     0.24695      0.4636    0.044924  -0.0057458
0.00010078    0.037778    0.023162      0.1781     0.42365    0.047198   0.0052977
0.011794    0.021538   0.0059473    0.073507     0.37818     0.06019    0.014392
0.014717   0.0085458   -0.010618   -0.031406     0.34277    0.081952    0.022512
0.012119  -0.0015233   -0.025884    -0.11066     0.32036     0.10664    0.027709
0.0095202   -0.011267   -0.040825    -0.15223     0.30347     0.12678    0.032906
0.009845   -0.019388   -0.056091    -0.16815     0.28983      0.1362    0.037778
0.013093   -0.029132   -0.071682    -0.17724     0.27749     0.13652    0.042651
0.014717     -0.0405   -0.086948    -0.18699     0.26937     0.12775    0.048822
0.011794   -0.050569    -0.10449    -0.18699     0.26677     0.11443    0.059541
0.0062721   -0.056416    -0.12365     -0.1636     0.26547     0.10112    0.075456
0.0039985   -0.054142    -0.14054    -0.11748     0.26157    0.091372    0.094295
0.0091954   -0.048296    -0.15288   -0.052843     0.24695    0.092671     0.11703
0.025436   -0.039526    -0.15548     0.02706      0.2148     0.10599     0.13944
0.049147   -0.027183    -0.14119     0.11346     0.16056     0.12158     0.15373
0.073182   -0.013541    -0.10936     0.19628    0.092346     0.12678     0.15633
0.089423 -0.00087364   -0.063886     0.26384     0.02641     0.11183     0.14302
0.095919    0.011144   -0.016464     0.30217   -0.021012    0.075781     0.11606
0.095594    0.020564    0.024461     0.30639   -0.053168    0.022837    0.082602
0.087799    0.027385    0.054993     0.28236   -0.084349   -0.034329    0.054668
0.078055    0.031282    0.075131     0.24078    -0.13145   -0.084999    0.039727
0.066686    0.037778      0.0852     0.19141    -0.20518    -0.12333    0.033556
0.050446    0.045249    0.088124     0.14691    -0.30294    -0.14476    0.026735
0.02641    0.049472    0.082277     0.11866    -0.39746    -0.14931    0.014717
-0.0028225    0.045574    0.070259     0.11021    -0.45528    -0.13729  -0.0063954
-0.03238    0.032906    0.055318     0.11703    -0.45983    -0.10774   -0.028807
-0.059664    0.014068    0.035505     0.11995    -0.41305   -0.069408   -0.047971
-0.081101  -0.0037969   0.0072465    0.099817    -0.33445   -0.034654   -0.060313
-0.095393   -0.013866   -0.029132    0.048822     -0.2435  -0.0028225   -0.061937
-0.097341    -0.01549   -0.072331   -0.021661    -0.15516    0.029983   -0.047321
-0.084349   -0.010943    -0.11683   -0.096367    -0.07428    0.063438   -0.021012
-0.059339  -0.0041217    -0.15646    -0.15386    0.003024    0.097868     0.01017
-0.028807 -0.00087364    -0.18601    -0.18601    0.091372     0.12872    0.042651
0.00042559  -0.0050961    -0.20355    -0.19673     0.19791     0.15244    0.070584
0.022188   -0.015165    -0.20972    -0.19641     0.31386     0.17192    0.092671
0.038103   -0.025234    -0.21232    -0.20031     0.41683     0.18687     0.10501
0.05272   -0.035628    -0.21785    -0.20648     0.48764     0.19726     0.10729
0.067986   -0.045047    -0.22077    -0.18829     0.51947     0.19986     0.10079
0.080328    -0.04927    -0.20713    -0.11228     0.51979     0.19369      0.0852
0.0865     -0.0405    -0.16523    0.028034     0.51135     0.18004    0.065062
0.083901   -0.017439   -0.097991     0.20083     0.52337     0.16868    0.043625
0.074157    0.012443   -0.021661     0.35414     0.57598     0.16283    0.026085
0.056292    0.039402    0.047198     0.44898     0.67408     0.16023    0.013418
0.031282     0.05272    0.095919     0.47205     0.79458     0.15796   0.0036737
0.0039985    0.049472     0.11833     0.43209     0.86831     0.15373  -0.0054209
-0.01484     0.03453     0.11086     0.35122      0.7647     0.14626   -0.012892
-0.019388    0.012443    0.081627     0.25767     0.33595      0.1336   -0.019063
-0.0083442  -0.0073698    0.041351     0.17777    -0.42962     0.10826   -0.022311
0.014717   -0.015815   0.0049729     0.12743     -1.3215     0.06961   -0.019063
0.040052   -0.010618   -0.014516     0.11151     -2.0517    0.022188   -0.010618
0.061814      0.0014   -0.017439      0.1219     -2.4174   -0.028482  -0.0037969
0.066037    0.013093  -0.0073698     0.14529     -2.3603   -0.076229  -0.0054209
0.042326    0.017316   0.0049729     0.16835     -1.9647    -0.11196   -0.018088
-0.0099683    0.012443   0.0088706     0.17615     -1.3969    -0.12203   -0.037577
-0.075579   0.0010752   0.0033489     0.16933    -0.81841    -0.10384   -0.061288
-0.1295   -0.013866  -0.0021729     0.15049    -0.33283    -0.06616   -0.079802
-0.15321   -0.025234  -0.0041217     0.12288    0.024137   -0.020687   -0.087272
-0.14476   -0.031081 -0.00022403    0.094945     0.28236     0.01764   -0.085648
-0.11358   -0.029132     0.01017    0.074806     0.51005    0.041351   -0.081101
-0.072006   -0.019063    0.026085    0.067986     0.75235    0.048822   -0.075904
-0.035953  -0.0067202    0.044599    0.070584     0.99758    0.035505   -0.070382
-0.016464   0.0049729    0.058891    0.071558      1.1928   0.0039985    -0.06616
-0.017764    0.015042     0.06831    0.073507       1.286   -0.041475    -0.06616
-0.029132    0.019914    0.079029    0.079029      1.2444   -0.095393   -0.069083
-0.043423     0.01894    0.096244    0.092021      1.0632    -0.15191   -0.072006
-0.055441    0.015367     0.11671     0.10989     0.77866    -0.20128   -0.076554
-0.061937    0.010819     0.13522     0.12775     0.46295    -0.24188    -0.08305
-0.060313    0.003024     0.14399     0.14009     0.18524    -0.26916   -0.088572
-0.051219   -0.007045     0.13912     0.14107   -0.019388    -0.27728   -0.090196
-0.042449   -0.015815     0.12093     0.12775    -0.18504    -0.26137   -0.087272
-0.036927   -0.021661    0.094945     0.10306    -0.39811    -0.22304   -0.082725
-0.037252   -0.021661    0.071234    0.069934    -0.74014    -0.17789   -0.079802
-0.043099    -0.01614    0.053044    0.031607     -1.2212    -0.14574   -0.081101
-0.046671  -0.0076946    0.040702  -0.0031473      -1.749    -0.13892   -0.080451
-0.047321   0.0017248     0.03453   -0.029132     -2.1907    -0.15841   -0.071682
-0.046996   0.0088706    0.037129   -0.047646     -2.4444    -0.19381   -0.058689
-0.044723    0.012768    0.046548   -0.060638     -2.4691    -0.22694    -0.04927
-0.0405    0.012768    0.058891   -0.069408     -2.2716    -0.24286   -0.044723
-0.034004    0.008221    0.067661   -0.077203     -1.8893    -0.23961   -0.045697
-0.021661   0.0033489    0.071558   -0.084999     -1.3829    -0.22467   -0.049595
-0.0067202  0.00075039    0.073182   -0.090521    -0.82394    -0.20063   -0.053817
0.0046481  -0.0028225    0.070584   -0.089546     -0.2893     -0.1727    -0.05804
0.0069217  -0.0076946    0.058891   -0.080451     0.15244    -0.14541   -0.062912
0.0020496    -0.01484    0.036804   -0.071682     0.46685      -0.123   -0.070382
-0.0063954   -0.021986   0.0049729   -0.071682     0.66141    -0.10319   -0.077203
-0.0096434   -0.026533   -0.027508   -0.082725     0.76015   -0.084349   -0.080776
-0.0083442   -0.024909   -0.053817    -0.10059      0.7988   -0.065186    -0.07493
-0.0076946   -0.022636   -0.070707    -0.11975     0.80335   -0.046996   -0.057065
-0.011917   -0.022311   -0.080451    -0.13697     0.79426   -0.036278   -0.030106
-0.020037   -0.025884   -0.089546    -0.15158     0.78159   -0.037577  -0.0028225
-0.026209   -0.034329   -0.098641    -0.16718     0.76924   -0.052843    0.011469
-0.026209   -0.045372    -0.11163    -0.18536      0.7608   -0.079802   0.0078962
-0.020037   -0.059989    -0.12755    -0.20258     0.75528    -0.11098  -0.0073698
-0.012567   -0.072656    -0.14379     -0.2172     0.73904    -0.14866   -0.026533
-0.0073698   -0.079802    -0.15873    -0.22109     0.68285    -0.19576   -0.044073
-0.0054209   -0.080776    -0.16945    -0.22207     0.56721    -0.24838   -0.056416
-0.0057458   -0.074605    -0.17757    -0.23831     0.39961     -0.2958   -0.067459
-0.010618   -0.063561    -0.18536    -0.28021      0.2122    -0.32795   -0.076554
-0.015165   -0.046022    -0.18666     -0.3416    0.055643     -0.3338   -0.080451
-0.0057458   -0.020687     -0.1636    -0.39779   -0.016789    -0.30327   -0.073631
0.026085    0.015367    -0.10156    -0.40916    0.015367    -0.23019   -0.053492
0.067661    0.057917  -0.0099683    -0.34257      0.1258    -0.12495   -0.020687
0.097868    0.092346    0.080653    -0.19803      0.2619   -0.010943    0.016341
0.098517     0.10989     0.13652   -0.014191     0.37038    0.088773    0.047523
0.066037     0.10696     0.14496     0.15373      0.4282     0.16608    0.065712
0.012443    0.088124     0.11606     0.26547     0.43989     0.22812    0.070584
-0.045372    0.058891    0.070584     0.31192      0.4217     0.28431    0.067011
-0.093444    0.030957    0.029658     0.30022     0.39507      0.3457    0.062464
-0.11813    0.012443   0.0059473     0.25605      0.3772      0.4178    0.061165
-0.12105   0.0078962   0.0033489      0.2057     0.38207     0.49478    0.062139
-0.11033    0.014392    0.016666      0.1638     0.40579     0.56299    0.066037
-0.096367    0.025761     0.03583       0.131     0.41683     0.60197    0.070909
-0.085324     0.03583    0.049147    0.096893     0.37136     0.59742    0.071558
-0.075255    0.039078    0.048497    0.055968     0.23883     0.54675    0.071558
-0.064861    0.035505    0.030633    0.010495    0.021213     0.46263    0.071558
-0.054142    0.028034  0.00042559   -0.036927    -0.22824     0.36551    0.066037
-0.043423    0.019264    -0.03238   -0.076879    -0.41825     0.26969    0.056292
-0.032705    0.013093   -0.059664    -0.10741    -0.47314     0.18459    0.045899
-0.024585     0.01017   -0.082076    -0.13015    -0.36498     0.11248    0.038753
-0.021337    0.008221   -0.098316    -0.14541    -0.12755     0.05142     0.03518
-0.020687   0.0065969    -0.10676    -0.15386      0.1625  0.00042559    0.029983
-0.020037   0.0065969    -0.10514      -0.161     0.42495   -0.039526    0.024461
-0.019712   0.0065969   -0.096367    -0.16458     0.60229   -0.070707     0.02641
-0.022961   0.0091954     -0.0824    -0.16393     0.67115   -0.095717    0.035505
-0.03303    0.012768   -0.063561    -0.16035      0.6403    -0.11683    0.044924
-0.046671    0.015367   -0.037252    -0.15938     0.52921    -0.13632    0.047847
-0.058365    0.011469  -0.0024977    -0.15548     0.34635    -0.15483    0.042326
-0.064536 -0.00087364    0.030308    -0.14314     0.11703     -0.1753    0.034206
-0.064536   -0.016464    0.056617     -0.1217    -0.10806    -0.19836    0.026735
-0.056741   -0.025884    0.072858   -0.095717    -0.25877    -0.22012     0.01894
-0.039851   -0.024909    0.078379   -0.069408    -0.27858    -0.23831    0.012443
-0.016464   -0.017439    0.070909    -0.04927    -0.16035     -0.2474    0.011794
0.0052977   -0.010293     0.05142   -0.042449     0.04395     -0.2461    0.012119
0.017965  -0.0089938    0.031282   -0.056741     0.23429    -0.23701    0.010495
0.021863   -0.010293    0.015692    -0.10741     0.30672    -0.23019   0.0026992
0.017965   -0.011917   0.0059473    -0.19024     0.19076    -0.22661  -0.0080194
0.0075714   -0.011592  -0.0011985    -0.28216    -0.11098    -0.22109   -0.017114
-0.0018481   -0.010943  -0.0028225    -0.36076    -0.51147    -0.20615   -0.026209
-0.0028225   -0.010943 -0.00054884    -0.41955     -0.8837    -0.18569   -0.035303
0.003024  -0.0089938   0.0039985    -0.44651     -1.1202    -0.15743   -0.045697
0.016991   0.0020496     0.01017    -0.41825     -1.1663    -0.11618   -0.053168
0.03518    0.023162    0.020888    -0.29742     -1.0312   -0.059339   -0.051868
0.055318    0.049147    0.041351   -0.056416    -0.77424    0.009845   -0.037902
0.069934    0.072858    0.067986     0.28236    -0.47932    0.079679   -0.014516
0.076431    0.089748     0.09462     0.63413    -0.22239     0.14042    0.011794
0.072533    0.096569     0.11248     0.90339   -0.039201     0.18849     0.03453
0.057592    0.093321     0.11801       1.021    0.081303     0.22649    0.050446
0.039727    0.078055     0.11216      0.9336     0.17615     0.26027    0.061165
0.025111    0.051745    0.098193      0.6325     0.26579     0.28691    0.065387
0.015692    0.021538    0.078379     0.18329     0.34829     0.30022    0.061489
0.0075714  -0.0060706    0.049147     -0.2958     0.41683      0.2973    0.047523
-0.0021729   -0.028482    0.013418    -0.71513      0.4636     0.27229     0.02706
-0.0096434   -0.047646   -0.026209     -1.0627     0.48049     0.22747   0.0095202
-0.0089938   -0.060313   -0.069408     -1.3514     0.45905     0.17777   0.0020496
0.0020496   -0.063561    -0.11033     -1.5232     0.39669     0.14237   0.0052977
0.022837   -0.056416    -0.13989     -1.4261     0.30607     0.12905    0.020239
0.048497   -0.041799    -0.15223    -0.91488     0.21252     0.13782    0.042326
0.069285   -0.022961    -0.14411  -0.0050961     0.13262     0.15731    0.062789
0.075131  -0.0067202    -0.12138       1.057    0.065712       0.169    0.073507
0.067986   0.0059473   -0.089221      1.9587   0.0046481     0.16023    0.075456
0.057267    0.015042   -0.050244      2.4972    -0.05804     0.12515    0.070584
0.053694     0.01894  -0.0060706      2.6161    -0.12138    0.067661    0.060515
0.061165     0.01894    0.039078      2.3878    -0.17822   0.0033489    0.047847
0.073507    0.015367    0.070259      1.9548    -0.22564   -0.057065    0.036479
0.080328   0.0075714    0.076106      1.4549    -0.25357    -0.11163    0.025111
0.079679  -0.0044465    0.059541     0.99239    -0.25617    -0.15548   0.0095202
0.072533    -0.01614    0.032257     0.62438    -0.23474    -0.18244   -0.011267
0.056617   -0.024909   0.0046481     0.36843    -0.19933    -0.19121    -0.03173
0.031607   -0.029457   -0.018413     0.20733    -0.16393    -0.18536   -0.050244
-0.00022403    -0.03303   -0.036602     0.10696    -0.14087    -0.17075   -0.064211
-0.032055   -0.040825   -0.054467    0.028359    -0.13859    -0.15126   -0.073306
-0.05739   -0.054142   -0.073306   -0.058365    -0.16165    -0.13177   -0.079802
-0.075255   -0.070058   -0.094093     -0.1675    -0.19608    -0.11488    -0.08305
-0.087272   -0.084999    -0.11358     -0.2984     -0.2172    -0.09929   -0.081426
-0.089871   -0.093444    -0.12592    -0.43254     -0.2081    -0.08305    -0.07428
-0.079802   -0.091495    -0.12268    -0.54525    -0.16555    -0.06551   -0.057715
-0.055766   -0.078503   -0.095717    -0.61703    -0.10189   -0.047971   -0.036927
-0.021337   -0.056416   -0.047971    -0.63977    -0.04115   -0.030431    -0.01614
0.012443   -0.029782   0.0069217    -0.61898   0.0046481   -0.014191  0.00010078
0.036479  -0.0073698    0.052395    -0.57091    0.029009    0.003024    0.009845
0.048822   0.0085458    0.074482    -0.51439    0.038103    0.019589    0.014068
0.048822    0.016016    0.073182    -0.47282    0.039402    0.035505    0.015367
0.038753    0.015367    0.055968    -0.45885    0.038103    0.053044    0.012119
0.025111   0.0088706    0.033556    -0.47607    0.033881    0.074157   0.0088706
0.016016  -0.0018481    0.011794    -0.51862     0.02706    0.095269   0.0062721
0.011144   -0.013541  -0.0034721    -0.57838    0.019589     0.10924   0.0043233
0.011144   -0.022636  -0.0076946    -0.63782    0.013093     0.10924   0.0017248
0.0088706   -0.030756  0.00010078    -0.67452   0.0085458    0.095269   0.0033489
0.00010078   -0.037577    0.020564     -0.6768   0.0052977    0.071883   0.0052977
-0.01484   -0.040175    0.044599    -0.65276  -0.0028225    0.046223      0.0014
-0.029782   -0.036278    0.060515    -0.63165   -0.016789    0.023487  -0.0047713
-0.036278   -0.029132    0.056292    -0.62775    -0.03238   0.0065969  -0.0076946
-0.026858   -0.017439    0.029009    -0.61963   -0.041799  -0.0034721  -0.0067202
-0.0037969  -0.0011985   -0.011267    -0.55337   -0.038876   -0.010943  -0.0024977
0.023162    0.015367   -0.048945    -0.39746   -0.034004   -0.025559   0.0023744
0.041027    0.028359   -0.073631     -0.1688   -0.047321   -0.054467   0.0059473
0.044599    0.031282   -0.084349    0.081303   -0.084999   -0.093769   0.0043233
0.036154    0.024137   -0.084674     0.29048    -0.13632    -0.13112  -0.0015233
0.021538    0.014392   -0.076879     0.41618    -0.17659    -0.15451  -0.0024977
0.012119    0.011144   -0.069408     0.44184    -0.19154    -0.15841   0.0039985
0.0088706    0.013743    -0.06616      0.3837    -0.18082    -0.14541    0.012443
0.0095202    0.016341   -0.072656     0.27586    -0.15418    -0.12657     0.01894
0.010495    0.016016   -0.084999     0.15536    -0.12105    -0.11293    0.023487
0.011144    0.015692   -0.098641    0.048172   -0.094093    -0.10611    0.022837
0.009845     0.01894    -0.10644    -0.03173   -0.079477    -0.10838    0.018615
0.008221    0.023162    -0.10254   -0.081426   -0.080776    -0.11845     0.01017
0.0075714    0.025111   -0.085973    -0.10741   -0.090196    -0.12982  0.00042559
0.0062721    0.022837   -0.061613    -0.11975   -0.085648     -0.1334   -0.010943
0.0046481    0.017965   -0.039526    -0.12917   -0.043423    -0.12787    -0.02426
0.0014    0.011144   -0.023935    -0.13957    0.046223    -0.11748   -0.036278
-0.0028225   0.0056225   -0.012892    -0.14996     0.18004    -0.10579   -0.047321
-0.0073698   0.0043233  -0.0015233    -0.15353     0.34375   -0.090521   -0.053817
-0.013216   0.0046481    0.014717    -0.14704     0.52077   -0.075255   -0.054467
-0.017764    0.003024     0.03453    -0.13112     0.68869   -0.061613   -0.053492
-0.017439  -0.0024977    0.048497    -0.11131     0.82674   -0.055116   -0.054467
-0.0093186  -0.0083442    0.050121   -0.092469     0.92223   -0.054142   -0.054467
0.0049729   -0.010293    0.041027   -0.079477       0.969   -0.054792   -0.050569
0.020888  -0.0067202    0.028684   -0.073631     0.97128   -0.053492   -0.043423
0.033231   0.0017248    0.024137   -0.072331     0.95536   -0.045697   -0.036278
0.041676    0.009845    0.030957   -0.070058     0.95114   -0.032055   -0.032055
0.048497    0.013418    0.042326   -0.063237     0.97907    -0.01614   -0.026209
0.05142    0.011144    0.051096   -0.049595      1.0473  -0.0044465   -0.018738
0.053369   0.0072465     0.05207   -0.034329      1.1382  0.00042559   -0.010943
0.051096   0.0059473    0.043625   -0.020687      1.1876 -0.00087364  -0.0044465
0.044924   0.0065969    0.028034   -0.011917      1.0625   -0.007045 -0.00054884
0.030957   0.0091954    0.008221  -0.0083442     0.59547   -0.016789 -0.00087364
0.009845    0.011469  -0.0099683  -0.0093186    -0.29223   -0.032705  -0.0073698
-0.01484    0.010819   -0.018088   -0.012567     -1.4463   -0.056091   -0.016789
-0.036278   0.0062721   -0.015815   -0.018738     -2.5691     -0.0837    -0.02361
-0.053817 -0.00087364  -0.0057458   -0.028157     -3.3844    -0.11326   -0.026533
-0.064536   -0.010618   0.0010752   -0.036278     -3.7349    -0.13957   -0.024909
-0.062262   -0.018088  -0.0018481   -0.036602     -3.6043    -0.16003   -0.021661
-0.048945   -0.020362   -0.016464   -0.028482     -3.0856    -0.17822   -0.022961
-0.033679   -0.018738   -0.034329   -0.013216     -2.3388    -0.19608   -0.029132
-0.021661   -0.014516    -0.04927   0.0043233     -1.5281    -0.21232   -0.034004
-0.01549  -0.0080194   -0.055766    0.019589    -0.78496    -0.21914   -0.033354
-0.016789  0.00075039    -0.04927    0.036479    -0.20063    -0.21362   -0.029782
-0.024909   0.0091954   -0.030756    0.062464     0.17127    -0.19478   -0.025234
-0.036278    0.013093  -0.0083442    0.099492       0.334    -0.16912   -0.020362
-0.045697    0.012443   0.0046481     0.13392     0.32913    -0.14054   -0.021661
-0.054792   0.0069217   0.0010752     0.15698      0.2135    -0.11358   -0.026209
-0.063561  -0.0011985   -0.017764     0.17745    0.052395   -0.092794   -0.027833
-0.068109   -0.008669   -0.037577     0.20376     -0.0837   -0.072981   -0.026858
-0.06616   -0.014516   -0.049595     0.22129    -0.14119   -0.049595   -0.020687
-0.056091   -0.017114   -0.054142     0.19239    -0.10449   -0.021661   -0.008669
-0.039851   -0.022636   -0.057065     0.06961   0.0020496   0.0020496      0.0014
-0.022961   -0.033679   -0.063561    -0.16685      0.1271    0.013093   0.0059473
-0.010293   -0.046996   -0.066485    -0.50043     0.22812    0.012768 -0.00022403
-0.0034721   -0.052518   -0.053168    -0.87655     0.28626    0.012443   -0.011267
-0.0037969   -0.040825   -0.021661      -1.217     0.30802    0.014392   -0.020687
-0.014191   -0.018413     0.01829     -1.4518     0.30672    0.015692   -0.022961
-0.039851   0.0059473    0.044924     -1.5229     0.29243    0.011144    -0.01614
-0.079477    0.019264    0.044924     -1.3888      0.2593  -0.0028225  -0.0057458
-0.12268    0.020239    0.019264     -1.0334     0.18134   -0.026858  0.00010078
-0.15223    0.017316   -0.017764    -0.48841    0.050771   -0.061613 -0.00054884
-0.15613    0.022188   -0.046671     0.13879    -0.10124   -0.097341  -0.0024977
-0.13372     0.03583   -0.050244     0.70104    -0.23116    -0.12365  0.00075039
-0.096042    0.052395   -0.028482      1.0957     -0.2971    -0.13112   0.0078962
-0.059014    0.063113   0.0043233      1.2737    -0.27858    -0.12105    0.012768
-0.034978    0.064088    0.029333       1.234    -0.18764    -0.10514    0.010819
-0.026209    0.053044    0.039727      1.0349   -0.059014   -0.090196   0.0049729
-0.026209    0.038103    0.046873     0.81309    0.076431   -0.077203   0.0010752
-0.02361     0.02641    0.067661     0.76145      0.2057   -0.055766 -0.00087364
-0.014191    0.024786     0.10112     0.99271     0.32523   -0.023935  -0.0015233
0.0014    0.032257     0.13002      1.4296     0.42852     0.01829 -0.00022403
0.015692    0.039402     0.13392      1.8473     0.50875    0.054019   0.0036737
0.02706    0.039402     0.10469      2.0204     0.56104    0.075131    0.008221
0.039727    0.033231    0.046223       1.859     0.59677    0.084876    0.018615
0.059541    0.025111   -0.018413      1.4699     0.63867    0.096893    0.037129
0.0865    0.017965    -0.06616      1.0466     0.70851     0.11995    0.067986
0.10794    0.012768   -0.084674       0.715     0.81439     0.15763     0.10664
0.10631     0.01017   -0.078503     0.50063     0.94302      0.2083     0.14529
0.074482   0.0075714   -0.057715     0.37298      1.0625     0.26125     0.17062
0.02641   0.0069217   -0.033354     0.28593      1.1415     0.30087     0.17712
-0.013216   0.0065969   -0.016789     0.20473      1.1658     0.32069      0.1664
-0.025559   0.0065969  -0.0083442     0.11898      1.1373     0.32718     0.14789
-0.010943    0.008221  -0.0073698    0.033556      1.0759     0.33205     0.13684
0.020239    0.015042  -0.0054209   -0.040175      1.0057     0.33985     0.14107
0.057592    0.025761  0.00075039   -0.094418     0.93652     0.34407     0.15146
0.090397    0.034206   0.0059473    -0.13275     0.86149     0.33465     0.15244
0.11443    0.038428   0.0072465    -0.15841     0.75788     0.30542      0.1323
0.12613    0.040702   0.0091954    -0.17432     0.59937     0.25962    0.091696
0.12288    0.042975    0.014392    -0.18342     0.37493     0.20798    0.041676
0.098193      0.0433    0.023487    -0.19121     0.11801     0.16023  -0.0080194
0.058241    0.041351     0.03453    -0.20128    -0.10579     0.11866    -0.04927
0.014392    0.038428    0.044599    -0.21297    -0.23831    0.079354   -0.079802
-0.028482    0.033556    0.049472    -0.21914    -0.27339    0.047847    -0.10091
-0.06616    0.026085    0.048497    -0.22239    -0.26819    0.027385    -0.11131
-0.097341    0.016666    0.041351    -0.23116    -0.30424    0.013743    -0.11001
-0.11521   0.0085458    0.031932     -0.2487     -0.4556  -0.0011985    -0.10091
-0.1204  0.00042559    0.025761    -0.27599     -0.7502   -0.022636   -0.092145
-0.11553  -0.0050961    0.023487    -0.30944     -1.1247   -0.046996   -0.092794
-0.10286   -0.010618    0.022837    -0.33997     -1.4323   -0.063886   -0.098965
-0.088896   -0.011917    0.019264    -0.35979     -1.5116   -0.059339    -0.10351
-0.080127   -0.011267    0.011469    -0.36791     -1.2952   -0.027833   -0.099615
-0.077853   -0.011917   0.0036737    -0.36628    -0.86908     0.02706   -0.087272
-0.0824   -0.018413  0.00075039    -0.36238    -0.40753    0.091047   -0.064861
-0.09117   -0.028482 -0.00087364    -0.35946   -0.064211     0.14204    -0.04115
-0.097017   -0.039201  -0.0060706    -0.36336    0.099492     0.15991   -0.021661
-0.093119   -0.048296   -0.011592    -0.37505     0.10696      0.1349   -0.012242
-0.076879   -0.054792   -0.017764    -0.38967    0.023812    0.070909  -0.0099683
-0.057065    -0.05804   -0.021012    -0.39844    -0.07428   -0.020362   -0.011917
-0.037577   -0.055116   -0.021661    -0.39584    -0.13307     -0.1217   -0.016464
-0.022961    -0.04992   -0.025559    -0.38155    -0.14509    -0.22272   -0.026533
-0.015815   -0.046996   -0.036278    -0.36271    -0.13502    -0.31626   -0.038876
-0.013541   -0.046996   -0.054142    -0.34744    -0.12268    -0.39909   -0.048945
-0.012242   -0.047971   -0.079477     -0.3403    -0.11975    -0.47119   -0.056741
-0.0083442   -0.046671    -0.11001     -0.3429    -0.12722    -0.52771    -0.06616
-0.0060706   -0.045697    -0.14249    -0.35524    -0.14606    -0.56117   -0.075255
-0.0060706   -0.046022    -0.17367    -0.37895    -0.17172    -0.57059   -0.080776
-0.0080194   -0.048296    -0.19608    -0.41468    -0.19608    -0.55337   -0.081751
-0.007045   -0.053817     -0.2055    -0.44943    -0.21979     -0.5079   -0.081101
-0.0054209   -0.059664    -0.19998    -0.46243    -0.22921    -0.43969   -0.082076
-0.0050961   -0.061613    -0.17984    -0.43741    -0.20323    -0.35719     -0.0824
-0.0057458   -0.056416    -0.14769    -0.36985    -0.12722    -0.27176   -0.078827
-0.0054209   -0.043423    -0.10514    -0.27404  -0.0050961    -0.19478    -0.06616
-0.0047713   -0.029457    -0.05804    -0.17367     0.14009     -0.1334   -0.047971
-0.0011985   -0.018088   -0.014191   -0.088896     0.27521   -0.090845   -0.031081
0.0026992   -0.012567    0.019264   -0.037577     0.37883   -0.065186   -0.027508
0.0046481   -0.010293    0.042651   -0.020362     0.43729   -0.051544   -0.035628
0.0033489   -0.008669    0.058891   -0.022636     0.44866   -0.039526   -0.046996
0.0043233   -0.008669    0.066362   -0.035628     0.42268   -0.027508   -0.053817
0.013743   -0.012567    0.063113   -0.059014     0.37785  -0.0099683   -0.051868
0.029333   -0.019388    0.046873   -0.098641     0.33205    0.013743   -0.039201
0.047523   -0.031081     0.01894    -0.15126     0.29827    0.045249   -0.020037
0.063113   -0.044723   -0.015815    -0.20453     0.28366    0.085525   0.0046481
0.075456   -0.055116   -0.052843     -0.2435     0.29113     0.13847     0.02706
0.081303   -0.060638   -0.086948    -0.26007     0.31289     0.20083    0.045899
0.07773   -0.059339    -0.11845     -0.2578     0.33205     0.26839    0.057267
0.062789   -0.052843    -0.14314     -0.2448     0.33985     0.33368    0.058566
0.041351   -0.043099    -0.15516    -0.22434     0.33628      0.3824    0.051096
0.019914   -0.033354    -0.15581    -0.19901     0.32296     0.39799     0.03518
0.0052977   -0.026209    -0.15223    -0.17042     0.30087     0.37785    0.014392
-0.0037969   -0.020687    -0.14704     -0.1308     0.27456     0.32913  -0.0050961
-0.0050961   -0.014516    -0.13502   -0.069408     0.24695     0.26579   -0.015815
-0.0067202  -0.0067202    -0.10936    0.011794     0.22617     0.20408   -0.017764
-0.0093186   0.0026992   -0.066485     0.10079     0.21447     0.15341    -0.01484
-0.0080194    0.014717   -0.007045     0.19141     0.20376     0.11638   -0.008669
-0.0060706    0.025111    0.067336     0.28008     0.18362    0.090072  -0.0011985
-0.0041217    0.032582     0.14464     0.35414     0.15179    0.068635   0.0088706
-0.0044465    0.035505     0.20798     0.39734     0.11151    0.047198    0.021863
-0.0099683    0.038103     0.24436     0.40221     0.06896    0.029658    0.032906
-0.020037    0.038103     0.24923     0.37201     0.02706    0.013743    0.036804
-0.03173    0.032906     0.22617     0.32296   -0.016789 -0.00054884    0.032906
-0.042774    0.023487     0.18719     0.26579   -0.069408   -0.016789    0.022188
-0.045697    0.016991     0.14561     0.20928    -0.12787   -0.040825   0.0085458
-0.039201    0.015042     0.11248     0.16056    -0.18277   -0.073631  -0.0015233
-0.025234    0.016341    0.089423     0.12483    -0.22044    -0.11423  -0.0044465
-0.0096434    0.021863    0.072858     0.10631    -0.23538    -0.14964  -0.0050961
-0.00054884    0.027385     0.06084     0.10177    -0.23051     -0.1636   -0.007045
-0.0037969    0.030308    0.052395     0.10501    -0.21492    -0.14541   -0.013541
-0.019388    0.030308    0.048822     0.11054    -0.19901   -0.092794   -0.019712
-0.035303    0.031932    0.051096     0.11086    -0.18666   -0.018088   -0.024585
-0.044073    0.036804    0.053369     0.10729    -0.18407    0.055968   -0.025234
-0.042124    0.044275    0.057592     0.10047    -0.19186     0.10891   -0.020037
-0.026209    0.051745    0.063763    0.093321    -0.20745     0.12743   -0.014516
0.003024    0.054993    0.066686    0.084226    -0.22012     0.11443  -0.0089938
0.037129     0.05207    0.062789    0.064413    -0.22532    0.078704   0.0017248
0.063438    0.044275    0.047847    0.025436    -0.22207    0.036154    0.019264
0.074806    0.035505    0.021863   -0.021337    -0.21135  -0.0063954    0.040052
0.073832    0.029658  -0.0096434   -0.059989    -0.19316   -0.046671    0.056292
0.065712    0.023812   -0.034978   -0.076229    -0.17627   -0.081426    0.063113
0.058566    0.021213   -0.043423   -0.071032     -0.1714    -0.10806    0.060515
0.056292    0.019589   -0.038227   -0.057715    -0.18471    -0.12495    0.050121
0.056942    0.016666   -0.027508   -0.035953     -0.2107     -0.1321    0.034206
0.06019    0.015042   -0.012242   0.0049729    -0.23149    -0.13047    0.022188
0.065062    0.017965    0.009845    0.072208    -0.23214    -0.12268    0.018615
0.066037    0.024137    0.036479     0.15731     -0.2055    -0.11033    0.021213
0.055968    0.031607    0.061489     0.24176    -0.15938    -0.09929    0.026085
0.033556    0.036154     0.07773     0.30477    -0.10871   -0.090845    0.029009
0.0036737    0.038428    0.084876     0.33563    -0.06616    -0.09117     0.02706
-0.023285    0.036479    0.084226     0.33985   -0.041799    -0.10221    0.017965
-0.038551    0.031282    0.081627     0.32946   -0.032705    -0.12495    0.003024
-0.041475    0.023812    0.081303     0.31646   -0.036602    -0.15223   -0.011592
-0.033679    0.015042    0.081303     0.30412   -0.038551    -0.17594   -0.021337
-0.022636   0.0046481    0.078379     0.28788   -0.018738    -0.18569   -0.022311
-0.011267  -0.0076946    0.069285     0.25995    0.031607    -0.17367   -0.018413
-0.0057458    -0.01484    0.053694        0.22    0.094295    -0.13957    -0.01484
-0.0024977    -0.01484    0.038428     0.17874     0.14432   -0.085973   -0.012567
0.0049729  -0.0089938    0.028359     0.14496       0.169   -0.019063   -0.010293
0.01829 -0.00054884    0.021538     0.11898     0.17095    0.050771   -0.007045
0.033231   0.0049729    0.014392    0.097868     0.15698     0.10989 -0.00054884
0.044924   0.0059473   0.0075714    0.074157     0.14009     0.15016    0.009845
0.051745   0.0026992   0.0026992    0.045899     0.14529     0.16868    0.022188
0.055643  -0.0041217  -0.0018481    0.015042     0.20148     0.17322    0.029983
0.054668   -0.012242  -0.0037969   -0.007045     0.31646     0.16673    0.027709
0.047198   -0.018413  -0.0034721   -0.013866     0.45613     0.15146    0.017316
0.030633   -0.022636  -0.0024977  -0.0076946     0.52921     0.13392   0.0033489
0.0065969   -0.022311  -0.0011985   0.0078962     0.39084     0.11866  -0.0096434
-0.018088   -0.018088  -0.0028225     0.03583   -0.087272     0.10112   -0.019388
-0.037252   -0.012892   -0.010293    0.081627    -0.85284    0.071883   -0.031406
-0.046996  -0.0093186   -0.022961     0.14789     -1.6431    0.029333   -0.045372
-0.052193  -0.0076946   -0.036927     0.22129      -2.167   -0.020037   -0.057065
-0.054467  -0.0057458   -0.046671     0.28236      -2.256   -0.064861   -0.063237
-0.052843  -0.0028225   -0.047971     0.31451     -1.9254   -0.097017   -0.063561
-0.044073   0.0017248   -0.046996     0.30769     -1.3258    -0.12073   -0.061937
-0.033679      0.0014   -0.049595     0.26449    -0.65796    -0.14379   -0.063237
-0.02361  -0.0054209    -0.05739     0.19401   -0.084349    -0.16815   -0.070382
-0.015815   -0.017764   -0.068758     0.10794     0.32328    -0.18959   -0.078827
-0.013216   -0.034654     -0.0837    0.018615     0.57858    -0.19608   -0.081426
-0.015815   -0.052843    -0.10546   -0.073306     0.72377    -0.17919    -0.07428
-0.020037   -0.071357    -0.13599    -0.17432     0.79426    -0.13989   -0.055116
-0.024585   -0.088247    -0.18407    -0.29417      0.8027   -0.088572   -0.022961
-0.022961    -0.10189    -0.25065    -0.44424     0.75495   -0.029132    0.019264
-0.0099683    -0.10644    -0.31724    -0.63197     0.66758    0.031282    0.066686
0.015692   -0.095717    -0.36368    -0.84505     0.56267    0.090072     0.11183
0.048497   -0.071357    -0.37603     -1.0347     0.44801     0.14107     0.14691
0.075131   -0.039851    -0.35232     -1.1406     0.31614     0.17745      0.1664
0.084226   -0.015165      -0.301     -1.1244     0.14594     0.19239     0.17192
0.076755  -0.0031473    -0.23766    -0.98569   -0.072981     0.17745      0.1638
0.056292  -0.0044465      -0.174    -0.74891    -0.31301     0.13295     0.14529
0.030957   -0.014191    -0.11488    -0.46632    -0.52641    0.065387     0.11833
0.010495   -0.021661   -0.052518    -0.19089     -0.6768   -0.014191    0.084226
-0.00054884   -0.018413    0.024137    0.056942    -0.73169   -0.094743    0.048172
-0.0034721  -0.0018481     0.11833     0.29762    -0.68232    -0.16295    0.016666
-0.00022403    0.024786        0.22     0.55812    -0.54233    -0.20518  -0.0050961
0.0043233    0.053694     0.30639     0.84395    -0.34647     -0.2159   -0.016789
0.01017     0.07708     0.35934      1.1093    -0.13632    -0.19966   -0.021661
0.014392    0.086824     0.36518      1.2766    0.061814     -0.1662   -0.021337
0.019914    0.080653     0.32361      1.2922     0.23916    -0.12138   -0.017114
0.025761    0.060515     0.24468      1.1522     0.39539   -0.068758  -0.0096434
0.033556    0.033881     0.14821     0.90144     0.52824   -0.018738  0.00042559
0.038428   0.0088706    0.053694     0.60847     0.63672    0.026735    0.012443
0.039078  -0.0073698   -0.027833     0.33952     0.72182    0.065712    0.026735
0.032582   -0.015165   -0.086298     0.14432     0.78516     0.10242    0.042651
0.019589   -0.017114     -0.1204    0.031932     0.82933     0.13522    0.058241
-0.0011985   -0.015815    -0.13307    -0.01614     0.85597     0.15568    0.065387
-0.027833   -0.012242     -0.1334   -0.026858     0.86311     0.15666    0.057917
-0.056091  -0.0031473    -0.12333   -0.021986     0.84785     0.13814    0.041027
-0.078503   0.0075714    -0.10611   -0.018413     0.79198     0.10891    0.026085
-0.090845    0.015367   -0.086298   -0.024585     0.66596    0.080978     0.01829
-0.089546     0.01829   -0.071682   -0.039526     0.44639    0.062139    0.015042
-0.080776    0.015367   -0.065835   -0.059339     0.13295    0.056942    0.015367
-0.066485    0.008221   -0.070707   -0.082076    -0.23214    0.065062    0.017965
-0.04927  -0.0018481    -0.08305    -0.10774    -0.58553    0.076431    0.020888
-0.03238   -0.010618   -0.096042    -0.13502    -0.88045    0.077405    0.017965
-0.01614   -0.012892    -0.10351    -0.16328      -1.115     0.06084   0.0069217
-0.0063954  -0.0089938    -0.09994    -0.18861      -1.318    0.029333   -0.010943
-0.0050961  -0.0063954   -0.089871     -0.2068     -1.4999   -0.010293   -0.032705
-0.013541  -0.0076946    -0.07428    -0.21752     -1.6386   -0.050894   -0.056091
-0.025559   -0.010618   -0.052193    -0.22272     -1.6899   -0.088572   -0.077853
-0.034654   -0.012567    -0.02426    -0.22629     -1.6161    -0.12592   -0.097017
-0.038876    -0.01549   0.0062721    -0.22824     -1.4138    -0.16133    -0.11131
-0.043423   -0.022311    0.036479    -0.23181     -1.1137    -0.18796    -0.11748
-0.052518    -0.03173    0.061814    -0.23733    -0.76644    -0.19316    -0.11651
-0.06616   -0.038551    0.074806    -0.23831    -0.43254    -0.17302    -0.10968
-0.081426   -0.039526    0.072208    -0.22597    -0.16263     -0.1334   -0.097666
-0.095717    -0.03303    0.057592    -0.19511    0.011144   -0.087597   -0.079152
-0.10774   -0.021661    0.040052    -0.15288    0.083251   -0.051219   -0.057065
-0.11651   -0.007045    0.027385    -0.11423    0.058241   -0.033354   -0.035628
-0.12138   0.0026992    0.022188    -0.10449   -0.064536   -0.035303   -0.017764
-0.1204  0.00010078    0.016016    -0.15126    -0.26949   -0.051868  -0.0050961
-0.11228   -0.015165   0.0033489    -0.25033    -0.48646    -0.07428   0.0036737
-0.095068   -0.036927   -0.016789    -0.36498    -0.61866   -0.089221   0.0059473
-0.069733   -0.053168   -0.037252    -0.45301    -0.59332   -0.088247   0.0020496
-0.040825   -0.058365   -0.051219    -0.48159    -0.40948   -0.070058  -0.0041217
-0.017114   -0.054467    -0.04927    -0.44424    -0.13469   -0.042449   -0.008669
-0.0037969   -0.042449   -0.034654    -0.35816     0.14367   -0.013541   -0.008669
-0.007045   -0.025884   -0.017114    -0.26429     0.35966   0.0091954  -0.0063954
-0.019063   -0.007045  -0.0076946    -0.20128     0.48764    0.022512  -0.0060706
-0.030756    0.010495   -0.012242     -0.2016     0.54545    0.027709   -0.010293
-0.032055    0.026085   -0.029457    -0.27469      0.5539    0.032257   -0.013541
-0.020362    0.041027   -0.048945    -0.39324     0.52174     0.03518   -0.011917
-0.00022403    0.054668   -0.056741    -0.49101     0.44379    0.031932  -0.0060706
0.019264    0.064413   -0.046347    -0.50822     0.33335     0.01829 -0.00054884
0.029983    0.066037   -0.019388      -0.415     0.22194  -0.0047713   0.0010752
0.030957    0.059541     0.01017    -0.23116     0.14951   -0.034654  -0.0057458
0.023812    0.050121    0.034855   -0.010618     0.13847    -0.06551   -0.021337
0.014392    0.041027    0.054019     0.18719     0.19726   -0.086298   -0.041475
0.0091954     0.03518    0.067336     0.32101     0.31776   -0.088572   -0.056741
0.0095202    0.029333    0.075131     0.37201     0.48829   -0.075255   -0.061288
0.015042    0.021863    0.079679     0.35219     0.69746   -0.055766   -0.054792
0.01764    0.015692    0.080653     0.29243     0.92158    -0.04115   -0.042449
0.013093    0.012443    0.075456     0.22389      1.1048   -0.035953    -0.03238
0.0014    0.012119    0.064413      0.1625       1.183   -0.039526   -0.027508
-0.011267    0.012768    0.048497     0.11573      1.1392   -0.050244   -0.028482
-0.020037    0.015367    0.030633    0.088448       1.006   -0.061288   -0.032705
-0.021012    0.016016    0.015367    0.080653     0.83486    -0.06551    -0.03303
-0.01484    0.015367    0.011469    0.092996      0.6822   -0.057065   -0.024585
-0.0047713    0.013743    0.019264     0.11411     0.58443   -0.038876   -0.010293
0.0023744    0.011794    0.033881     0.13067      0.5487    -0.01549   0.0091954
0.0039985     0.01017    0.042001      0.1336     0.55942   0.0088706    0.031607
0.003024    0.011144      0.0433      0.1258       0.588    0.032582    0.049472
0.0039985    0.012768    0.039402     0.10989     0.60262    0.053044    0.055968
0.0062721    0.010819    0.030308    0.086824      0.5945    0.067336    0.050771
0.0075714   0.0049729    0.023812    0.061165     0.58216    0.075131    0.036479
0.0065969  -0.0015233    0.025436    0.038428     0.57891    0.079679    0.017316
0.003024   -0.008669    0.030957    0.025436     0.57339    0.084226   0.0017248
-0.0018481   -0.014516    0.038753    0.024137      0.5422    0.086175  -0.0076946
-0.0047713   -0.018738    0.044599    0.037129     0.47984    0.084226  -0.0080194
-0.00022403   -0.022636    0.040702    0.064088     0.38825    0.081303  -0.0047713
0.0065969   -0.027183    0.013093    0.087799     0.27976    0.072533  -0.0080194
0.0072465   -0.034004   -0.037252    0.077405     0.15601    0.053044   -0.022961
-0.0024977   -0.044398    -0.10221    0.012119    0.015367    0.022837   -0.040825
-0.018738   -0.054467    -0.17497   -0.095717    -0.13372   -0.012567   -0.055766
-0.030756   -0.058689     -0.2448    -0.20875    -0.27566   -0.051219   -0.063886
-0.03303   -0.055116    -0.29515    -0.27761    -0.39389   -0.088572   -0.067784
-0.025884   -0.046671    -0.31464    -0.26916    -0.47184    -0.12008   -0.072006
-0.018088   -0.038876    -0.29807    -0.17757    -0.49653    -0.13892   -0.077853
-0.012892   -0.034004    -0.24383    -0.03173    -0.46243    -0.14379   -0.082076
-0.011917   -0.028157    -0.16068     0.11151    -0.36921    -0.13275   -0.075904
-0.0060706   -0.018413   -0.063886     0.19856    -0.22856    -0.11456   -0.054142
0.008221  -0.0015233    0.023487     0.20213   -0.054142   -0.098965   -0.021986
0.031282    0.020239    0.083901     0.13522       0.131   -0.087597     0.01017
0.05142    0.040702     0.10989    0.042975     0.29113     -0.0824    0.037129
0.063113    0.052395     0.10469   -0.026209     0.39539   -0.082725    0.057592
0.066037     0.05272    0.080328   -0.050569     0.43697   -0.083375     0.06961
0.063113    0.041676    0.048172   -0.035303     0.42755   -0.073631    0.074482
0.056617    0.025761    0.017965 -0.00022403     0.38727   -0.048296    0.074482
0.053044    0.011469  -0.0018481    0.037778     0.32296   -0.011267    0.073832
0.05142   0.0072465  -0.0099683    0.072533     0.23331    0.025111    0.074157
0.049147    0.016016  -0.0093186    0.094295     0.12418    0.055318    0.075456
0.043625    0.028359  -0.0076946     0.10144   0.0091954    0.076755    0.072208
0.031932     0.03518  -0.0093186    0.097218   -0.094093    0.089098    0.060515
0.019264     0.03453   -0.013541    0.083576    -0.17042    0.091047      0.0433
0.009845    0.028034   -0.020037    0.055968    -0.21655    0.084551    0.025111
0.0091954    0.020888   -0.025884    0.013418    -0.23863    0.070909   0.0078962
0.016016    0.015692   -0.026209   -0.037902     -0.2461     0.05142  -0.0050961
0.026735    0.012119   -0.020037   -0.084349    -0.24805    0.030633  -0.0057458
0.03453   0.0088706  -0.0083442    -0.11683    -0.24545    0.014392   0.0023744
0.039078   0.0052977   0.0078962    -0.13762    -0.24123   0.0075714    0.015692
0.039727   0.0010752    0.025111    -0.15191    -0.23928   0.0065969    0.027385
0.036479  -0.0024977    0.040377    -0.14444    -0.24578    0.003024    0.032582
0.031282  -0.0031473    0.054993   -0.084674    -0.25942   -0.010293    0.029333
0.024786   0.0023744    0.074806    0.048172    -0.27371   -0.030431    0.018615
0.015367    0.012119     0.10599     0.23136    -0.27826   -0.053817   0.0072465
0.0039985    0.020239     0.14496     0.40579    -0.27079   -0.079152   0.0017248
-0.0089938    0.020564     0.17712     0.51492    -0.25487    -0.10059   0.0052977
-0.018088    0.011794     0.19271     0.53831    -0.23668    -0.11488    0.012768
-0.021012  -0.0021729     0.18946     0.48926    -0.22597    -0.12138     0.01764
-0.022636   -0.013216     0.16835     0.40708    -0.23538    -0.12008    0.013093
-0.028157   -0.019063     0.13684      0.3327    -0.26949    -0.11098   0.0023744
-0.035953   -0.019388     0.10112     0.28398    -0.32341   -0.095068   -0.013866
-0.042774   -0.020037    0.063438     0.22227    -0.38382   -0.077528   -0.032055
-0.049595   -0.025234    0.024461    0.095594    -0.43677   -0.060313   -0.043423
-0.055766   -0.033679    -0.01484   -0.094418    -0.47022   -0.046671   -0.046022
-0.057715   -0.039526   -0.052193     -0.2971    -0.47899   -0.039526   -0.044073
-0.053492     -0.0405   -0.082076    -0.48679     -0.4647    -0.03303   -0.044398
-0.045047   -0.034004   -0.096042    -0.68882    -0.43677    -0.02426   -0.043748
-0.035628   -0.021337    -0.08305    -0.89247    -0.40006   -0.011592   -0.037902
-0.022311  0.00075039   -0.028157    -0.95158    -0.34679     0.01017   -0.026209
-0.0034721    0.033881    0.066686    -0.66933    -0.28443    0.040702   -0.014191
0.01894     0.06896     0.17615   -0.031081    -0.24415     0.06961  -0.0073698
0.037454    0.095594      0.2593     0.72897    -0.25877    0.082277  -0.0093186
0.040702     0.10144     0.28788      1.3211    -0.32698    0.067986   -0.017764
0.027709    0.085525      0.2554      1.5689    -0.41988    0.031932   -0.025884
0.0088706    0.055968     0.17745      1.4559     -0.4975   -0.014191   -0.027833
-0.007045    0.023487    0.082927      1.1096    -0.52122   -0.053817   -0.023935
-0.017114  -0.0028225  -0.0050961     0.71435    -0.47867   -0.077203   -0.018738
-0.018738   -0.019388   -0.069733     0.41391     -0.3861    -0.08305   -0.013866
-0.012892   -0.024909    -0.10806     0.25995    -0.27826   -0.069408   -0.013866
-0.0044465   -0.023285      -0.123     0.20765    -0.18796   -0.034978   -0.020687
0.0049729   -0.014516     -0.1204     0.18037    -0.12592    0.022837   -0.031081
0.015042  -0.0031473    -0.11001     0.12872   -0.089871    0.097543   -0.037902
0.026085   0.0069217    -0.10189    0.031932   -0.067134      0.1768   -0.035953
0.036479    0.014068    -0.10156    -0.11066   -0.040175     0.24695   -0.022311
0.045249     0.01764    -0.11066    -0.29093   0.0026992      0.2986   0.0017248
0.041351    0.015367    -0.12917    -0.50043    0.063113     0.32946    0.025111
0.016991   0.0091954    -0.14639    -0.72097     0.13425     0.34407    0.039078
-0.02426   0.0026992    -0.15126      -0.923     0.20278     0.34635    0.041676
-0.067459  -0.0024977    -0.13859     -1.0692     0.25507      0.3379    0.033556
-0.095717  -0.0050961    -0.11456     -1.1247     0.28106     0.31874    0.017965
-0.09929  -0.0067202   -0.088247     -1.0662     0.27911     0.28658  -0.0015233
-0.081751  -0.0096434   -0.064861    -0.88403     0.25507     0.23851   -0.019712
-0.051219   -0.010618   -0.040825     -0.6245     0.22162     0.17095   -0.032055
-0.018738  -0.0063954  -0.0096434    -0.38025     0.19304    0.085525   -0.037252
0.0065969   0.0026992     0.02706    -0.21362      0.1729   -0.011267   -0.037902
0.01764    0.011794    0.061489    -0.15841     0.14821    -0.10221   -0.037252
0.015692    0.016016    0.080328    -0.24643     0.10177    -0.17562    -0.03238
0.0052977     0.01017    0.078704    -0.48971    0.015367    -0.22597   -0.025234
-0.0047713  -0.0044465    0.054668    -0.84992    -0.11066    -0.25325   -0.017439
-0.0073698   -0.025884   0.0088706     -1.1968    -0.25682    -0.26462   -0.011592
0.0026992   -0.046022   -0.052518     -1.3329    -0.37733    -0.26592  -0.0031473
0.023812   -0.053817    -0.11326     -1.0783     -0.4228    -0.25715    0.013743
0.050446   -0.044398    -0.14606    -0.38187    -0.36303    -0.23766    0.039727
0.067011   -0.022961    -0.13112     0.61691    -0.20778    -0.20908     0.06961
0.071234      0.0014   -0.075579       1.631   0.0010752    -0.18959    0.091696
0.061489    0.016341  -0.0034721      2.4134     0.19953    -0.19836     0.09462
0.044275    0.014068    0.054993      2.8276      0.3353    -0.23928    0.076106
0.028034  -0.0031473    0.075456      2.8584     0.40254     -0.2971    0.047847
0.019589   -0.028482    0.057267      2.5895     0.42657    -0.34744    0.022512
0.020564    -0.04992    0.014392      2.1442     0.44541    -0.36271   0.0072465
0.031282   -0.059664   -0.034654      1.6375     0.49251    -0.33185   0.0056225
0.045249   -0.055116   -0.073306      1.1574     0.60749    -0.25942    0.016341
0.054344   -0.038876   -0.092794     0.75268     0.81732     -0.1649    0.031932
0.046873   -0.019388   -0.092794     0.43697      1.1018   -0.068434    0.044924
0.028034  -0.0050961   -0.081426     0.20343      1.3994    0.014717    0.049796
0.0078962 -0.00054884   -0.060313    0.033881      1.6124    0.075781    0.049472
-0.0093186  -0.0047713   -0.038227   -0.088896      1.6089     0.10761    0.047198
-0.026209    -0.01614   -0.023285    -0.18374      1.2198     0.11086    0.046223
-0.04862   -0.032055   -0.024909    -0.26299     0.32946    0.081952    0.047198
-0.076879   -0.046671   -0.040825    -0.33348    -0.92235    0.021538    0.046223
-0.10611   -0.058365   -0.063237    -0.39389     -2.1553   -0.063561    0.039078
-0.12527   -0.062912   -0.086298    -0.44229     -3.0385    -0.15256     0.02641
-0.12787   -0.064211    -0.10286    -0.47444     -3.3928    -0.21882   0.0085458
-0.11715   -0.060638    -0.10741    -0.49068     -3.2421    -0.25195   -0.014191
-0.10514   -0.052518   -0.098641     -0.4962      -2.766    -0.25845   -0.036927
-0.093769   -0.038551   -0.082076     -0.4962     -2.1881    -0.25747   -0.051544
-0.0837   -0.023285   -0.062587    -0.49458     -1.6866    -0.26072   -0.058365
-0.078827  -0.0093186    -0.04862    -0.49523     -1.3602    -0.27014   -0.060638
-0.080127  0.00042559   -0.038876    -0.49913     -1.2371    -0.27014    -0.06681
-0.086948   0.0033489   -0.030756    -0.50562     -1.2803     -0.2487   -0.077853
-0.094743  -0.0024977   -0.019712    -0.51699     -1.3872    -0.20518   -0.089546
-0.096042   -0.012567   -0.010618    -0.53128     -1.4297    -0.14996   -0.094418
-0.088896   -0.019388   -0.007045    -0.54752     -1.3173   -0.092145   -0.090196
-0.07493   -0.021661  -0.0073698    -0.56344     -1.0308   -0.038227   -0.080776
-0.055766   -0.020037   -0.007045    -0.57741    -0.61541    0.003024   -0.070058
-0.032055   -0.013866  -0.0034721    -0.58845    -0.14964     0.03518   -0.060963
-0.0080194      0.0014   0.0026992    -0.59527     0.27944    0.061814   -0.055116
0.010495    0.022512   0.0062721    -0.59722     0.61269      0.0865   -0.051544
0.024461      0.0433   0.0049729    -0.59592     0.83323     0.10989   -0.047971
0.035505    0.055318  -0.0028225     -0.5878     0.95146     0.12775   -0.045047
0.036804    0.056292   -0.010943    -0.56214     0.99011     0.13522   -0.044723
0.025436    0.045899  -0.0073698    -0.50562     0.98329     0.12418   -0.045372
0.0046481    0.029009   0.0091954    -0.41923     0.95861    0.094945   -0.043099
-0.020037   0.0091954    0.036479    -0.32601     0.93392     0.05207   -0.038227
-0.039201   -0.007045    0.065062    -0.25422     0.91703   0.0095202   -0.031081
-0.047971    -0.01614    0.081627    -0.22272     0.91086   -0.022961   -0.022311
-0.046996   -0.017439    0.079029    -0.23279     0.91119   -0.041799    -0.01484
-0.039201   -0.011267    0.057267    -0.26819     0.91313   -0.045697  -0.0093186
-0.026209  -0.0031473    0.024786    -0.31269     0.91313   -0.038551  -0.0041217
-0.0089938   0.0023744  -0.0037969    -0.34809     0.90664   -0.023935  -0.0018481
0.011469   0.0046481   -0.022636    -0.36368     0.89202  -0.0021729  -0.0015233
0.033231   0.0052977   -0.029132    -0.35329     0.87123    0.028034 -0.00054884
0.054668   0.0088706   -0.026209    -0.31594     0.85272    0.066362  0.00010078
0.07773    0.013093   -0.014191    -0.25357     0.83908     0.10924   0.0023744
0.095919    0.016666   0.0017248    -0.17465     0.82674     0.14756   0.0026992
0.10371    0.019264     0.01894    -0.09182     0.80562     0.17322   0.0017248
0.10014    0.017316    0.034855   -0.028157     0.77607     0.18134   0.0036737
0.087149    0.010819    0.042975 -0.00087364     0.73904     0.17777   0.0056225
0.066686    0.003024    0.035505   -0.015165     0.70201      0.1768   0.0052977
0.039727  -0.0037969    0.012119   -0.059339     0.66823     0.18524   0.0062721
0.0072465   -0.010293   -0.016464    -0.10676     0.63737     0.20408    0.011469
-0.027183   -0.015165   -0.038876    -0.13794     0.60782     0.22747    0.016991
-0.059339   -0.017439   -0.051868    -0.14411     0.58475      0.2489    0.021213
-0.077528   -0.017764   -0.063237     -0.1308     0.56884     0.26417     0.02641
-0.078503   -0.012567   -0.079152    -0.09994     0.55844     0.27099    0.031282
-0.063237  -0.0047713   -0.097341   -0.052843     0.55195     0.26709     0.03518
-0.037577   0.0039985    -0.11098   0.0023744     0.54773     0.26027    0.036804
-0.0083442     0.01017    -0.11423    0.055968     0.54513      0.2593    0.032906
0.016016    0.013093    -0.10741    0.099817     0.54253     0.26937    0.022512
0.03453    0.013418   -0.087922     0.13165     0.53636     0.28918   0.0091954
0.045249    0.012443    -0.05804     0.15763     0.52044     0.31094 -0.00087364
0.050121    0.010495   -0.027508     0.18492     0.49316     0.32296   -0.008669
0.050771   0.0091954 -0.00054884     0.21512     0.45678     0.32004   -0.017114
0.048172   0.0091954     0.02641     0.24046     0.41293      0.2999   -0.023935
0.04395    0.009845    0.054019     0.25637     0.35901     0.26287   -0.023935
0.0433    0.013093    0.080003      0.2593     0.29762     0.21155   -0.019063
0.041676    0.015692    0.098842     0.25183     0.22682     0.14951    -0.01484
0.034206    0.016666     0.10339     0.23429     0.15114    0.081627   -0.011267
0.016991    0.014068    0.096893     0.21155    0.073832     0.01829  -0.0067202
-0.010618    0.010819    0.081303     0.19044  -0.0021729   -0.029782  -0.0015233
-0.043423   0.0072465    0.064088     0.17647   -0.076879   -0.061613   0.0046481
-0.074605   0.0056225    0.047523     0.17062    -0.14964   -0.081426    0.013093
-0.098641   0.0049729    0.024461      0.1664    -0.22369   -0.096692    0.023812
-0.10968   0.0017248  -0.0096434     0.15601    -0.31691    -0.11553    0.034206
-0.10676  -0.0031473   -0.053492      0.1336    -0.44099    -0.13794    0.037454
-0.090521  -0.0060706    -0.10059     0.10209    -0.57156    -0.16263    0.030633
-0.059989  -0.0054209    -0.14314    0.069934    -0.65114    -0.18179    0.024786
-0.016464  -0.0028225    -0.17432    0.050121    -0.61476    -0.19316    0.028034
0.032257  -0.0018481    -0.18666     0.05142    -0.42345    -0.19771    0.040377
0.075131  -0.0044465    -0.17887    0.075781    -0.10774    -0.19641    0.052395
0.10729  -0.0076946    -0.14541     0.10924     0.24533    -0.19836    0.057267
0.12678  -0.0073698   -0.084349      0.1349     0.53149    -0.20453    0.050121
0.13392  -0.0024977   0.0049729     0.14107     0.67927    -0.21622    0.032906
0.12937    0.009845     0.11183     0.12678      0.6705    -0.22986    0.015367
0.11476    0.026735     0.21155    0.092021     0.53993    -0.24221 -0.00054884
0.089098    0.045899     0.28041    0.041351     0.34862    -0.24545   -0.013866
0.055968     0.06019      0.3051   -0.012892     0.14399    -0.23246   -0.022636
0.016991    0.064737     0.28593   -0.050569   -0.046022     -0.2029   -0.022961
-0.022311    0.057592     0.23559   -0.062587    -0.20258    -0.16295   -0.017764
-0.059339    0.045249     0.16998   -0.050894    -0.30554     -0.1243   -0.011917
-0.084999    0.032257     0.10989   -0.030431    -0.34095   -0.095068  -0.0073698
-0.096042    0.019264    0.065712   -0.010293    -0.31204   -0.079152  -0.0031473
-0.085973    0.012119    0.038428   0.0069217    -0.24123   -0.072331  0.00075039
-0.061288    0.010819    0.022188    0.023487    -0.15808    -0.06681   0.0039985
-0.030431    0.014392   0.0088706    0.044599   -0.077853   -0.058365   0.0052977
-0.0028225    0.016991  -0.0034721    0.067986  -0.0044465   -0.051544   0.0039985
0.01829    0.012443   -0.012242    0.086824    0.063438   -0.050244  0.00010078
0.029658   0.0026992    -0.01614     0.10014     0.11476   -0.053168  -0.0037969
0.029983   -0.011917   -0.016789     0.10794     0.12743   -0.056741  -0.0044465
0.022512   -0.027183   -0.017439     0.11411    0.091372    -0.05804  -0.0060706
0.012768    -0.04115   -0.016789     0.11703   0.0052977   -0.054142   -0.012567
0.0033489   -0.053492   -0.018088      0.1206     -0.1295   -0.045697   -0.020687
-0.0057458   -0.063237   -0.021986     0.12288     -0.2854     -0.0405   -0.026209
-0.016464   -0.068109    -0.03173      0.1219    -0.40981   -0.040825   -0.028157
-0.026858   -0.068434   -0.045697     0.11736    -0.45885   -0.045047   -0.026858
-0.034654   -0.065835   -0.062587     0.10826    -0.41663   -0.051219   -0.026209
-0.032055   -0.062262   -0.083375    0.090722    -0.29288   -0.053817   -0.025559
-0.007045   -0.051544    -0.10384    0.071883      -0.123   -0.052193   -0.022636
0.041351    -0.03303      -0.123    0.061489    0.048822   -0.046022   -0.017439
0.094295  -0.0083442    -0.13827    0.060515     0.18427   -0.033354   -0.012892
0.12678    0.014068    -0.14476    0.064737     0.26092   -0.015815  -0.0089938
0.12483    0.028034    -0.14216    0.070909     0.27132   0.0033489  -0.0050961
0.091047    0.031932    -0.12722    0.078704       0.207    0.022188      0.0014
0.037454     0.02706    -0.10091    0.089098    0.054019     0.03583   0.0069217
-0.017764    0.019264   -0.065186    0.099817    -0.18407    0.042326    0.011144
-0.059664    0.012443   -0.028157     0.10696    -0.49133    0.044924    0.011469
-0.079802   0.0078962   0.0039985     0.10631    -0.84765    0.045899   0.0078962
-0.0837   0.0065969    0.029333    0.098842     -1.2137    0.046873   0.0052977
-0.07428   0.0085458    0.048497      0.0865     -1.5265    0.045899   0.0059473
-0.056741    0.011794    0.064737    0.068635     -1.7198    0.042326    0.011794
-0.0405    0.010819    0.080653    0.041351     -1.7555    0.032906    0.017316
-0.030431   0.0072465    0.091696  0.00010078     -1.6395    0.014068    0.016666
-0.03173 -0.00022403    0.092346   -0.055766     -1.4083   -0.015165   0.0033489
-0.047971  -0.0060706    0.086175     -0.1243     -1.1195   -0.046347   -0.016464
-0.071357  -0.0083442    0.075131    -0.20485    -0.83985   -0.067134   -0.036927
-0.094093   -0.012892    0.057917    -0.29547    -0.63197   -0.072006   -0.052193
-0.10514   -0.021012    0.033556    -0.36921    -0.54785   -0.062262   -0.051868
-0.094093   -0.030756    0.011794    -0.39292    -0.59819   -0.050244   -0.034329
-0.063237    -0.03303  -0.0031473    -0.35329    -0.74631   -0.045697  -0.0024977
-0.017114    -0.02426   -0.010293    -0.26689    -0.91748   -0.051868    0.030308
0.03583  -0.0076946   -0.012567     -0.1649     -1.0312   -0.065835    0.051745
0.084551    0.014392    -0.01549   -0.058365     -1.0347   -0.084349    0.058566
0.1219    0.037129   -0.022311    0.064737     -0.9191    -0.10676    0.053044
0.14496    0.055643   -0.026858     0.21805    -0.71902     -0.1321    0.038753
0.15049    0.066037   -0.024585     0.39702    -0.49036    -0.15808    0.018615
0.13425    0.065387   -0.013541     0.57761    -0.28508    -0.17854  -0.0021729
0.092996    0.054019   0.0017248      0.7228    -0.13534    -0.19154   -0.018413
0.031607    0.039078    0.015692       0.804   -0.046347    -0.19641   -0.026209
-0.035628    0.026085    0.019264     0.80855  -0.0024977    -0.19024    -0.02361
-0.092794    0.019914    0.010819     0.74456    0.025436    -0.17335   -0.015815
-0.1269    0.017965  -0.0076946     0.63477    0.057917    -0.14346  -0.0063954
-0.13047    0.015042   -0.029457     0.50615     0.10014    -0.10189   0.0072465
-0.10481   0.0075714    -0.04992     0.38175     0.14367   -0.059664    0.024461
-0.060313  -0.0031473   -0.066485     0.27424     0.17322   -0.021986    0.040052
-0.011592   -0.013866   -0.075255     0.19434     0.16575   0.0059473    0.049147
0.028359   -0.020037   -0.077528     0.14107     0.11801     0.01764    0.048172
0.050771   -0.019388   -0.075579     0.10664    0.056292   0.0095202    0.037129
0.048822   -0.012892   -0.069733    0.081303    0.023487  -0.0096434    0.022188
0.022188  -0.0021729   -0.063561    0.057267    0.065387   -0.030106   0.0072465
-0.018088   0.0062721   -0.062262    0.034206     0.18199   -0.047321  -0.0073698
-0.059339   0.0065969   -0.069083   0.0088706     0.33563   -0.059989   -0.018738
-0.087272  0.00075039   -0.080451    -0.01484     0.48082    -0.06681   -0.028157
-0.093769  -0.0076946   -0.087922   -0.034654     0.58963   -0.063561   -0.038551
-0.077853   -0.017439   -0.085324   -0.044398     0.65589   -0.047321   -0.053168
-0.052843   -0.025884   -0.073631   -0.045372      0.6835   -0.025884   -0.064861
-0.030431   -0.029132   -0.056741   -0.040825      0.6718  -0.0073698   -0.069408
-0.01614   -0.026209   -0.038876   -0.034654      0.6273   0.0069217   -0.065835
-0.0067202   -0.020362   -0.021661   -0.025559     0.56137    0.019589   -0.059989
0.003024   -0.012892  -0.0041217    -0.01484     0.50453    0.031282    -0.05739
0.011144  -0.0057458    0.012443  -0.0021729     0.48049    0.042001   -0.056091
0.015042  0.00075039    0.024137   0.0065969     0.49478    0.049147    -0.04927
0.016666   0.0039985    0.028684   0.0072465     0.53798    0.050121   -0.036278
0.016991   0.0026992    0.025111 -0.00054884     0.60262    0.048172   -0.020362
0.017316  0.00075039    0.018615   -0.013541     0.68837     0.04395  -0.0083442
0.015692  0.00010078    0.011144   -0.029782     0.80075    0.040377  -0.0063954
0.012768  0.00010078   0.0062721   -0.053492     0.96608    0.040377   -0.012892
0.0095202  0.00010078   0.0033489   -0.094093      1.2042    0.041027   -0.019388
0.0046481   0.0020496  -0.0028225    -0.16328       1.515    0.044275   -0.017439
-0.00087364   0.0052977   -0.013216    -0.26169      1.8645    0.049472  -0.0037969
-0.0050961   0.0062721   -0.027833    -0.38642      2.1903    0.055318    0.016666
-0.0073698  0.00010078    -0.04927    -0.52414      2.4014    0.061165    0.036479
-0.0044465  -0.0080194   -0.073306    -0.64627      2.3709    0.063763    0.044599
0.0014   -0.016464    -0.09117    -0.72195      1.9619    0.057917    0.038753
0.0036737   -0.022961    -0.09929    -0.74468      1.1489    0.042326    0.023162
0.0020496   -0.027183   -0.094418    -0.72227     0.10306    0.020888   0.0059473
0.00042559   -0.025234    -0.07493    -0.65016    -0.85057   0.0026992  -0.0083442
0.0023744   -0.015815   -0.040825    -0.50075     -1.4463  -0.0028225   -0.011592
0.0065969 -0.00022403   0.0059473    -0.24643     -1.5989   0.0065969  -0.0034721
0.013093    0.019589    0.055318    0.098193     -1.3842    0.025761    0.010495
0.021213    0.039727    0.095919     0.44963    -0.98342    0.047198    0.022512
0.028034    0.052395     0.11736     0.69941    -0.59365     0.06019    0.029333
0.028034     0.05142     0.11606     0.78841    -0.36173    0.061814    0.026735
0.023162    0.039402     0.09397      0.7254    -0.35296    0.054993    0.021863
0.01894    0.023812    0.064088     0.56267    -0.54038    0.047198     0.01894
0.014068   0.0091954    0.034855     0.36421    -0.82686    0.041027    0.020564
0.0043233  -0.0037969    0.012119     0.18329      -1.088    0.037454    0.021538
-0.0093186   -0.013866  -0.0028225     0.05142     -1.2377    0.033556    0.018615
-0.022961   -0.021337   -0.013216   -0.027508     -1.2556    0.024786    0.011469
-0.035303   -0.024585   -0.018738   -0.062912     -1.1656   0.0059473 -0.00022403
-0.048296   -0.026209   -0.020687   -0.075255     -1.0055   -0.015815   -0.012892
-0.060963   -0.028482   -0.019388   -0.085648    -0.80315   -0.036278   -0.021986
-0.070707   -0.032705   -0.018088    -0.10091     -0.5826   -0.050244   -0.025884
-0.079152   -0.037902   -0.015815     -0.1217    -0.36563   -0.059339   -0.028807
-0.086623   -0.039526   -0.012567    -0.14606    -0.18309   -0.070382   -0.029132
-0.088896   -0.039526  -0.0083442    -0.16912   -0.059339   -0.087272    -0.03173
-0.08305   -0.039201  -0.0041217    -0.18829   -0.021986    -0.11261   -0.037252
-0.071032   -0.038876  -0.0044465    -0.20258   -0.073955    -0.14411   -0.041799
-0.057715   -0.036278   -0.008669     -0.2107    -0.17497    -0.17562   -0.041799
-0.046022   -0.029782   -0.010293    -0.21037    -0.25033    -0.19673   -0.041475
-0.038551   -0.021337  -0.0063954    -0.19673    -0.24156    -0.20096   -0.040175
-0.034329   -0.012567   0.0010752    -0.17789    -0.13112    -0.18829   -0.041475
-0.029782  -0.0047713   0.0088706    -0.16003     0.05207     -0.1649   -0.044073
-0.022311    0.003024    0.015692    -0.14411     0.24306    -0.13762   -0.045697
-0.010293   0.0095202    0.017965    -0.12885     0.37948    -0.10871   -0.042124
0.0036737    0.013093    0.016991    -0.11391     0.42235   -0.080451   -0.031081
0.017965    0.009845    0.015367   -0.097991     0.36973   -0.058689   -0.019712
0.026085    0.003024    0.015367   -0.082725     0.25897     -0.0405   -0.013541
0.028359  -0.0044465    0.014717   -0.071357     0.14659    -0.02361   -0.011267
0.027709   -0.010943    0.011794   -0.067784    0.081303  -0.0031473   -0.007045
0.026085   -0.016464   0.0062721   -0.069733    0.073832    0.019264 -0.00087364
0.027709   -0.019712   0.0052977   -0.073306     0.11313    0.041676   0.0075714
0.031282   -0.021012    0.012768   -0.074605     0.17615    0.058566    0.016666
0.031932   -0.019388    0.028359   -0.067459     0.24241    0.071234    0.023487
0.023162   -0.014516    0.045249   -0.042774     0.29697    0.080328    0.026085
0.0023744  -0.0063954    0.057267    0.003024     0.33173     0.08585    0.021863
-0.029132  0.00075039    0.058566    0.054344      0.3418    0.088448    0.016016
-0.06616   0.0036737    0.048497    0.080328     0.32523     0.08585    0.010819
-0.092794  0.00042559    0.030633    0.054344     0.28918    0.080978    0.011794
-0.096692  -0.0041217   0.0062721   -0.025884     0.24501    0.082927    0.019589
-0.073306  -0.0063954   -0.017114    -0.13112     0.20408    0.095269    0.034855
-0.029132  -0.0024977   -0.037902    -0.21947     0.16023     0.11411     0.05272
0.015042   0.0056225   -0.056416    -0.26332     0.10469      0.1284    0.064088
0.042975    0.012119   -0.072006    -0.25585    0.042651     0.13262    0.066686
0.050771    0.014068   -0.081101    -0.20908   -0.012567     0.12775    0.063113
0.042975    0.011144   -0.082725    -0.14639   -0.037577     0.11248    0.054344
0.028684   0.0046481   -0.079152   -0.088896    -0.01614    0.087149    0.042651
0.014717  -0.0037969   -0.072981   -0.052193    0.050121    0.055968    0.025436
0.0049729   -0.011267   -0.065835   -0.037252     0.13912    0.025436   0.0039985
-0.00022403   -0.018088   -0.058689   -0.036927     0.22324    0.003024   -0.015165
-0.0047713   -0.025559   -0.053168   -0.043748     0.28138  -0.0083442    -0.02426
-0.0054209   -0.032055   -0.054142   -0.051219     0.30704   -0.010293    -0.02361
-0.0031473   -0.032705   -0.062262   -0.054792     0.30477   -0.007045   -0.016464
-0.0018481   -0.025234    -0.07428   -0.050244     0.27879  -0.0093186   -0.008669
-0.0044465    -0.01484   -0.085973   -0.041799     0.23494   -0.019063  -0.0037969
-0.0076946  -0.0057458    -0.09182   -0.036278     0.17972   -0.031406  -0.0031473
-0.0096434 -0.00022403   -0.088247   -0.034329     0.10599   -0.043099  -0.0028225
-0.0080194  -0.0018481   -0.079802   -0.038227  -0.0034721   -0.054792   0.0010752
0.00075039  -0.0067202   -0.071682   -0.053168    -0.14444   -0.061288   0.0023744
0.016016   -0.012892   -0.065835   -0.077528    -0.29255   -0.061613      0.0014
0.030308   -0.018088   -0.061937    -0.10611    -0.41176    -0.05739  -0.0015233
0.037454   -0.021012   -0.056741     -0.1308    -0.47249   -0.047971 -0.00087364
0.032257   -0.018413   -0.046996    -0.14639    -0.46632   -0.032705   0.0075714
0.017965  -0.0096434   -0.028482    -0.14834    -0.40558   -0.008669    0.024137
0.0020496   0.0033489   -0.007045    -0.13567    -0.31594    0.023162    0.042326
-0.010943    0.015692    0.011144    -0.11001    -0.21557    0.059865    0.054993
-0.018738     0.02641    0.023162   -0.079152   -0.097991    0.094295    0.053694
-0.021337    0.033556    0.024461    -0.05739     0.06084     0.12288    0.037129
-0.020687    0.036479    0.014068    -0.05739     0.27944     0.15406    0.013418
-0.020687     0.03518  -0.0057458   -0.079477     0.54383     0.19693  -0.0044465
-0.02361    0.031932   -0.025884    -0.11553     0.80497     0.24825  -0.0089938
-0.024909    0.028034   -0.036602    -0.14769     0.99531     0.28756  -0.0037969
-0.025234    0.023487    -0.03238    -0.15418       1.069      0.2986   0.0010752
-0.029132    0.019589    -0.01614    -0.12398      1.0197     0.27814 -0.00054884
-0.035303     0.01894   0.0059473    -0.07493     0.87968     0.23591   -0.008669
-0.038876    0.022188    0.025111   -0.031081     0.69584     0.18979   -0.018738
-0.033679    0.030633    0.037778  -0.0060706      0.5042     0.15438   -0.026209
-0.018413    0.039078    0.045899    0.012119     0.32198     0.13457   -0.027183
0.00075039    0.042975    0.057592    0.047198     0.15471     0.12158   -0.021337
0.018615    0.038103    0.079679     0.11638  -0.0034721     0.10339   -0.013541
0.031282    0.025436     0.10469     0.21382    -0.16035    0.080653  -0.0073698
0.036154    0.014068     0.12158     0.30997    -0.31529    0.056942   -0.007045
0.033881   0.0065969     0.11833     0.37136    -0.46697    0.033556   -0.011917
0.033231   0.0046481    0.089748     0.38272    -0.63685    0.013418   -0.021337
0.035505   0.0069217    0.041027     0.35024    -0.84797   -0.011592    -0.03173
0.039727    0.014068   -0.011267     0.29308     -1.0922   -0.050894     -0.0405
0.039727    0.023162    -0.04927     0.23851     -1.3271    -0.10514   -0.047646
0.03518    0.031607   -0.061613     0.20798     -1.4813    -0.16685   -0.053492
0.028359    0.034206   -0.047646     0.21025     -1.4982    -0.22824   -0.055116
0.020564    0.028684   -0.017114     0.23656     -1.3573    -0.28151   -0.048945
0.0085458    0.017316    0.015692     0.27359     -1.0831    -0.32633   -0.029782
-0.0057458   0.0059473    0.042975     0.30932    -0.72325    -0.36693  -0.0060706
-0.019063  -0.0011985    0.058241     0.33075    -0.34972    -0.40883    0.015692
-0.027183  0.00010078     0.06019     0.32881   -0.020362    -0.45366     0.02641
-0.029782   0.0072465    0.054668     0.29925     0.24306    -0.50173    0.021863
-0.027833    0.014717     0.04395     0.25085     0.43924    -0.54298   0.0059473
-0.021661     0.01829    0.031932     0.19823     0.54903    -0.56149   -0.017439
-0.013866    0.015692    0.020564     0.15341     0.55617      -0.542   -0.040825
-0.0089938     0.01017    0.016341     0.12223     0.48569    -0.47444   -0.060313
-0.0099683   0.0036737    0.016991     0.10371      0.3785    -0.36303   -0.076554
-0.018738  -0.0037969    0.014717    0.099817      0.2567    -0.23149   -0.090196
-0.031406   -0.011267    0.010819     0.11151     0.11248    -0.11391    -0.10319
-0.042124   -0.020037    0.013093     0.14659   -0.078178   -0.036927    -0.11293
-0.047646   -0.030106    0.020564     0.20018    -0.32731 -0.00087364    -0.11845
-0.04862   -0.036278    0.024786     0.24436    -0.61703 -0.00022403    -0.11326
-0.046671   -0.035953    0.015042     0.24208    -0.89377   -0.025884   -0.097991
-0.040825   -0.029782  -0.0034721     0.17355     -1.0951   -0.064211   -0.072656
-0.029782   -0.016789   -0.016789    0.047198     -1.1828    -0.10481   -0.042449
-0.016464   0.0010752   -0.012567   -0.098316     -1.1491    -0.13827    -0.01549
-0.0037969    0.020888    0.013093    -0.21297     -1.0139    -0.16263  -0.0018481
0.0075714     0.03518     0.05272    -0.25975    -0.80997    -0.17822  -0.0037969
0.015042    0.039727    0.092671    -0.23474    -0.58228    -0.18504   -0.015815
0.01894    0.034855     0.12223    -0.15678    -0.36206    -0.18439   -0.025559
0.024786    0.024786     0.13782   -0.059014    -0.18569    -0.18049   -0.026858
0.031932    0.016016     0.14042    0.029983   -0.062587    -0.17432   -0.022961
0.039078    0.011794      0.1297    0.087474    0.024786    -0.16685   -0.015815
0.037129    0.009845     0.10891     0.10794    0.099167    -0.15711   -0.010293
0.026085   0.0078962    0.080003    0.092996     0.16868    -0.14216  -0.0073698
0.011144   0.0026992    0.045899    0.055643     0.21772    -0.12138  -0.0028225
-0.00087364  -0.0050961   0.0049729   0.0075714     0.23071    -0.10221   0.0059473
-0.0047713   -0.012892   -0.042774   -0.041799     0.21447   -0.091495    0.011794
-0.0018481   -0.021012   -0.088247   -0.086623     0.18654   -0.086948    0.013093
0.003024   -0.030106    -0.12463    -0.11878      0.1768     -0.0837    0.009845
0.0049729   -0.039526    -0.14606     -0.1295     0.20668   -0.076554    0.008221
0.0014   -0.045372    -0.15386    -0.10514     0.28138   -0.059339    0.009845
-0.00087364   -0.046022    -0.15386   -0.046996     0.38532   -0.029132    0.013418
0.00042559   -0.045372    -0.15093    0.030957     0.49186    0.012768     0.01829
0.0075714   -0.042774    -0.14704     0.10306     0.57891     0.06084    0.025111
0.017316   -0.037902    -0.14574     0.15568      0.6338     0.10956    0.032906
0.027709   -0.031081    -0.14379     0.17777     0.65264     0.15016    0.041351
0.036154   -0.026858    -0.14509     0.14724      0.6377     0.17517    0.047847
0.037454   -0.025884    -0.14931    0.033881      0.5971     0.18297    0.049147
0.029658   -0.027183    -0.15061    -0.15418        0.55      0.1781    0.045574
0.019914   -0.021986    -0.13177    -0.33607     0.51882     0.17062    0.041351
0.016016  -0.0080194   -0.083375    -0.41468     0.50128     0.17095    0.038428
0.014392    0.012443   -0.016464    -0.36238      0.4571      0.1781    0.037454
0.010495    0.030957    0.042001    -0.23376     0.32588     0.18167    0.036154
0.0056225    0.041676    0.071234    -0.10189    0.067011     0.17225     0.03453
0.0036737    0.041027     0.06831   -0.017439     -0.2958     0.15114    0.032257
0.0056225    0.029009    0.044599   0.0088706    -0.67225     0.12548    0.029658
0.010495    0.010495    0.013743  -0.0076946    -0.95483     0.10209    0.026085
0.015042  -0.0060706   -0.013866   -0.041799     -1.0679    0.082277    0.020888
0.012443    -0.01614   -0.030756   -0.071682     -1.0003     0.06896    0.015367
0.0052977   -0.019712   -0.035953   -0.084999    -0.79893    0.065712     0.01017
-0.0018481   -0.016789   -0.033679   -0.081101    -0.53843    0.072533   0.0036737
-0.0057458   -0.011267   -0.028157   -0.067134    -0.28833    0.089748  -0.0041217
-0.007045  -0.0076946   -0.021986   -0.051544   -0.094743     0.11606   -0.008669
-0.0034721  -0.0089938    -0.01614     -0.0405    0.030308     0.14789  -0.0076946
0.00010078    -0.01549   -0.012242   -0.030106    0.098842     0.18167   0.0023744
0.003024   -0.020687   -0.010618   -0.019712     0.13392      0.2096    0.016991
0.0052977    -0.02426  -0.0080194  -0.0096434     0.15406     0.22097     0.02641
0.0069217   -0.026209 -0.00022403  -0.0018481     0.17062     0.21382    0.025761
0.009845   -0.026533    0.016991    0.010495     0.18427     0.19401    0.013743
0.012768    -0.02361    0.042651     0.03453     0.19076      0.1703   -0.007045
0.014392   -0.017764    0.074482    0.070584     0.19401     0.15146   -0.035953
0.012119   -0.010943     0.10599     0.11606     0.19109     0.13977   -0.070382
-0.0028225  -0.0041217     0.13197     0.16705     0.18167      0.1323    -0.10384
-0.026533   0.0039985     0.14854     0.21252      0.1664     0.12223    -0.12722
-0.053168    0.012119     0.15373     0.23883     0.15991     0.10469    -0.13892
-0.067459    0.016341     0.14594     0.23591     0.19466    0.086824    -0.14152
-0.067784    0.012443     0.12093     0.19791     0.29827    0.078379    -0.13404
-0.058689  0.00075039    0.076431     0.12743     0.47042    0.087799    -0.11358
-0.043423   -0.011917    0.016341    0.038428     0.68674     0.11541   -0.081751
-0.028157   -0.021337   -0.044723   -0.048296     0.90761     0.15796   -0.044398
-0.013216   -0.021986    -0.10091    -0.11521      1.0827     0.20798   -0.011267
0.0017248   -0.017439    -0.14574    -0.15191      1.1522      0.2528    0.016016
0.01829   -0.008669    -0.17692    -0.15938      1.0846     0.28041    0.038103
0.036804  -0.0015233    -0.19089    -0.14509     0.89527     0.28301    0.058241
0.051096   0.0036737    -0.18829     -0.1204     0.64809     0.25832    0.077405
0.058241   0.0056225    -0.17042   -0.096367     0.41683      0.2122    0.094945
0.059216   0.0059473    -0.14639   -0.078827     0.26157     0.15731     0.10924
0.053694   0.0088706    -0.12138   -0.069408     0.19369     0.10274     0.11801
0.042975    0.013743   -0.097341   -0.064536     0.18557    0.055643     0.12418
0.029333    0.019589   -0.075904   -0.060963     0.19986    0.019264     0.13035
0.019914    0.024137   -0.058689   -0.058365     0.19953  -0.0024977     0.14107
0.016016    0.022512   -0.046996   -0.055116      0.1664   -0.008669     0.15309
0.016666    0.015367   -0.038551   -0.049595     0.11443  0.00042559     0.16283
0.019264   0.0049729   -0.032055   -0.039526    0.069934    0.019914     0.16218
0.018615  -0.0028225   -0.026533   -0.025559    0.062464     0.04395     0.14691
0.012768  -0.0057458   -0.025884   -0.018413    0.095919    0.067661     0.12158
0.00042559  -0.0047713   -0.032055   -0.029782     0.14919    0.080328    0.093321
-0.016789  -0.0021729   -0.044723   -0.057715     0.19466    0.075131    0.069285
-0.035303   0.0026992   -0.056091   -0.090521     0.21512    0.050771    0.052395
-0.04862    0.008221   -0.059989    -0.11586     0.20733    0.013743    0.038753
-0.050894    0.015042   -0.052518    -0.12333     0.19206   -0.025884    0.028034
-0.047321    0.022837   -0.034978    -0.10709     0.19531   -0.059664    0.015042
-0.039851    0.028034   -0.012242   -0.069083     0.22779     -0.0837 -0.00022403
-0.026209    0.026735    0.014068   -0.021986      0.2895    -0.09994   -0.013866
-0.0080194    0.016991    0.039078    0.023162     0.37006    -0.11586    -0.02426
0.0072465   0.0059473    0.057592    0.059865     0.44054    -0.13827    -0.03303
0.014068      0.0014    0.066362    0.084226     0.42527    -0.16912   -0.044398
0.012768    0.009845    0.065062    0.090072     0.20668    -0.20193   -0.056091
0.0059473    0.023487    0.055318    0.078704    -0.31366    -0.23441   -0.064861
-0.0057458    0.031932    0.036479    0.052395     -1.0744    -0.26104   -0.071032
-0.021986    0.027709    0.016016    0.021538     -1.8484    -0.27826   -0.072656
-0.041475    0.012119 -0.00087364  0.00010078      -2.384    -0.28118    -0.06616
-0.060313  -0.0067202  -0.0063954  -0.0050961     -2.5321    -0.27241   -0.055441
-0.072981   -0.020362    0.003024   0.0043233     -2.2882    -0.26169   -0.043748
-0.071682   -0.025234    0.021538    0.021213     -1.7587    -0.25292   -0.032055
-0.054467   -0.018738    0.041027     0.03518     -1.1046    -0.23928   -0.021012
-0.026533  -0.0076946    0.050771    0.040702     -0.4686    -0.21232   -0.016464
0.0023744   0.0020496    0.051096    0.041027    0.050446    -0.16555   -0.017114
0.025111   0.0069217      0.0433    0.044275      0.4178    -0.10546   -0.018088
0.034206   0.0065969    0.032257    0.054019     0.65037   -0.043748   -0.019388
0.022512   0.0026992    0.021213     0.06831     0.77899  0.00042559   -0.025559
-0.0096434  -0.0031473    0.013743    0.078379     0.83226    0.014392   -0.035628
-0.054467  -0.0073698    0.009845    0.081627     0.82641  0.00010078   -0.048945
-0.09929   -0.007045    0.011144    0.080653     0.78419   -0.035628   -0.064211
-0.13047  -0.0057458     0.01894    0.078704     0.72832   -0.078503   -0.075579
-0.13859  -0.0063954    0.030633    0.071883      0.6744    -0.11001   -0.076229
-0.12852  -0.0089938    0.039078    0.057592     0.63705    -0.12268    -0.06551
-0.11163   -0.011917    0.037778    0.041351     0.61074    -0.12268   -0.049595
-0.097341   -0.012892     0.02641    0.027385     0.57891    -0.12463   -0.037902
-0.086623   -0.012892   0.0088706    0.019589     0.52531    -0.14314   -0.032705
-0.075579   -0.013541   -0.007045     0.01894     0.44184    -0.17594   -0.030431
-0.059989   -0.016464   -0.017439    0.023487     0.32328     -0.2146   -0.026858
-0.040825   -0.020687   -0.019712    0.029333     0.15666    -0.24675   -0.020687
-0.024909   -0.025234   -0.013866    0.029983   -0.084349    -0.26754   -0.012892
-0.011267   -0.027508  0.00042559    0.025111    -0.44489    -0.27793  -0.0063954
-0.00087364   -0.024585    0.015692    0.015367    -0.95029    -0.28865  -0.0063954
0.0078962   -0.016789    0.024786      0.0014     -1.5551    -0.30977  -0.0093186
0.014068  -0.0093186    0.024786   -0.012567     -2.1508     -0.3403   -0.008669
0.017316  -0.0067202    0.020888   -0.023285     -2.6185    -0.37213   0.0010752
0.01017  -0.0063954    0.015692   -0.029782     -2.8621    -0.39974    0.015692
-0.0050961  -0.0093186   0.0062721   -0.031081     -2.8355     -0.4189    0.026085
-0.019388   -0.010618  -0.0047713   -0.029457     -2.5529    -0.43254    0.026735
-0.027183   -0.010618    -0.01484   -0.031081     -2.0832    -0.44034    0.018615
-0.028807   -0.010943   -0.021661   -0.040825     -1.5265    -0.43969   0.0078962
-0.027183   -0.010293   -0.023935   -0.057715    -0.98569    -0.42735  -0.0021729
-0.027508   -0.011592    -0.02361    -0.07428     -0.5407    -0.40331   -0.010943
-0.035953   -0.013866   -0.021337   -0.085324    -0.21979    -0.36888   -0.020037
-0.047971    -0.01614   -0.019063   -0.087922  -0.0083442    -0.31918   -0.025234
-0.056091   -0.019388   -0.020362   -0.081751      0.1206     -0.2539   -0.025884
-0.055116   -0.019063   -0.024909   -0.072981     0.19531    -0.17465   -0.018413
-0.045697   -0.017439   -0.027833   -0.067784     0.24273   -0.086948  -0.0044465
-0.029132    -0.01484   -0.027508   -0.070707     0.28496  -0.0063954    0.011144
-0.0083442   -0.012567   -0.024909   -0.078827     0.33465    0.056617    0.021213
0.0088706  -0.0063954   -0.019063   -0.086298     0.39539    0.098842    0.019589
0.017316   0.0017248   -0.010293    -0.09182     0.46133     0.13035   0.0091954
0.017316    0.010495   0.0033489    -0.10449     0.52077     0.15731  -0.0031473
0.014717    0.016991    0.020564    -0.13664     0.55974     0.18394   -0.011917
0.008221    0.019264     0.03583    -0.19738     0.57176     0.20538   -0.015815
-0.00054884     0.01894    0.041351     -0.2854      0.5552        0.22   -0.018413
-0.0076946    0.016666    0.036804    -0.38772     0.51492     0.22844   -0.019063
-0.0073698    0.013418    0.023487    -0.48549      0.4662     0.22877   -0.015815
0.0033489    0.010819   0.0059473    -0.57026      0.4256     0.22649  -0.0054209
0.025111    0.010819   -0.011592      -0.631     0.40156     0.22552   0.0095202
0.049147    0.014068   -0.028807    -0.64692     0.38825     0.22552    0.023812
0.067336    0.020888   -0.042124    -0.58845     0.37623     0.22714    0.030957
0.074157    0.029983   -0.046347    -0.43027     0.36616     0.22779    0.024786
0.067661    0.037778   -0.036602    -0.17172     0.37265     0.22649   0.0085458
0.052395    0.041351   -0.011917     0.15471     0.41585     0.21902  -0.0099683
0.03518    0.038753    0.018615     0.47952       0.512     0.20733   -0.026209
0.01829    0.030633    0.042975      0.7189     0.65654     0.19823   -0.039526
0.0023744     0.01764    0.050121     0.81634     0.81634     0.19369    -0.04862
-0.019712   0.0049729    0.037129     0.76989     0.94756     0.19466   -0.048945
-0.050894  -0.0031473    0.013093     0.62438      1.0154     0.19726    -0.04115
-0.085973  -0.0076946   -0.010618      0.4217      1.0044     0.19953   -0.029457
-0.11196   -0.010618   -0.029457     0.17322     0.92418     0.20018    -0.01614
-0.1204   -0.012567   -0.043423    -0.13015      0.8014     0.19921  -0.0018481
-0.10838    -0.01484   -0.056416     -0.4634     0.67375     0.19271    0.010495
-0.078503   -0.014516   -0.067459    -0.75085     0.57241     0.18622    0.015042
-0.039201  -0.0060706    -0.06616    -0.90319     0.51719     0.18751    0.013743
0.00075039    0.011469   -0.050894    -0.87168      0.5055     0.19661    0.011469
0.037454    0.033231   -0.038551    -0.66446     0.51492       0.207    0.012443
0.067011    0.048497   -0.044723    -0.31561     0.52434     0.21967    0.020888
0.091696    0.056942    -0.06616     0.13977     0.52726     0.23656     0.03518
0.11248     0.06896   -0.080451     0.65751     0.52596     0.25605    0.056617
0.12937    0.087474   -0.064861      1.1762     0.51654     0.27261    0.082277
0.14399     0.10794   -0.018413      1.6193     0.48991     0.27879     0.10339
0.15406     0.11833    0.040702      1.9031     0.44021     0.26417     0.10989
0.15536     0.11216      0.0865      1.9727     0.36973     0.23299    0.096569
0.14691    0.090397     0.10534      1.8359     0.29405     0.19271    0.065712
0.1297    0.061814    0.099167      1.5527     0.23331     0.15016    0.024786
0.10664    0.034206     0.07773      1.2032     0.20408     0.11118   -0.017439
0.082602    0.014068    0.055318     0.85727     0.20635     0.07708   -0.051868
0.06084   0.0017248    0.040377     0.56072     0.22877    0.045249   -0.072981
0.042326  -0.0044465    0.033881      0.3405     0.24695    0.012443   -0.076229
0.028359  -0.0080194    0.032582      0.2057      0.2187   -0.021986   -0.067459
0.016016  -0.0096434    0.030308      0.1336     0.10599   -0.055441   -0.056416
0.00042559   -0.013216    0.019914      0.0865   -0.080451   -0.086948   -0.051219
-0.018738   -0.019712  -0.0037969    0.041676    -0.28605    -0.11196   -0.053817
-0.038876   -0.028482   -0.038876  -0.0044465    -0.44618      -0.123   -0.055441
-0.053168   -0.036602   -0.076229   -0.040825     -0.5105    -0.11748   -0.053492
-0.054467   -0.041799    -0.10449   -0.067784    -0.47347   -0.097666   -0.042774
-0.045697   -0.041475    -0.11715   -0.098641    -0.36888   -0.072006   -0.028157
-0.034329   -0.037252    -0.11748    -0.14476     -0.2526   -0.048945  -0.0096434
-0.02361   -0.033354    -0.11391    -0.21427    -0.17075    -0.03238    0.011144
-0.013866   -0.036927    -0.11001    -0.30262    -0.14411   -0.021986    0.026735
-0.0060706   -0.044723    -0.10514    -0.39584     -0.1688   -0.019388    0.030633
0.00042559   -0.053168   -0.098965    -0.47899    -0.21882    -0.02426    0.023812
0.0062721   -0.060313   -0.095717    -0.54493    -0.26397   -0.034329    0.009845
0.010819    -0.06681   -0.097017    -0.59365    -0.28411    -0.04927  -0.0044465
0.016991    -0.07428   -0.095717    -0.62256    -0.27891    -0.06681   -0.017764
0.023162   -0.080776   -0.089546     -0.6336    -0.25747   -0.077203   -0.025884
0.023487   -0.084024   -0.081426    -0.62548    -0.22889   -0.077203   -0.026533
0.013743   -0.078503   -0.068434    -0.60404    -0.20128   -0.072656   -0.020362
-0.0028225   -0.065186   -0.052843    -0.57448    -0.17594   -0.069408   -0.015815
-0.018413   -0.045372   -0.035303    -0.54298    -0.15646   -0.069083   -0.015165
-0.025234   -0.023285   -0.019712    -0.50692    -0.14346   -0.069408   -0.017439
-0.02426  -0.0060706  -0.0057458      -0.466    -0.13827   -0.067459   -0.019063
-0.022961 -0.00087364   0.0043233    -0.42507    -0.13762   -0.064536   -0.018738
-0.025559   -0.007045   0.0091954    -0.39259    -0.14216   -0.061288   -0.017439
-0.032705   -0.020687    0.013743     -0.3718    -0.15451   -0.058689   -0.015815
-0.039201   -0.034004    0.019914    -0.35849     -0.1727   -0.057715    -0.01484
-0.039851   -0.042774    0.027385    -0.34744    -0.18829   -0.055441   -0.012567
-0.035953   -0.044398    0.031932    -0.33607    -0.19348   -0.056091  -0.0083442
-0.030431    -0.04115    0.032906    -0.32471    -0.19219   -0.059339  -0.0044465
-0.025234   -0.035303    0.029658    -0.31626    -0.19283   -0.072006  -0.0028225
-0.016464   -0.030431    0.025436    -0.31366    -0.20583   -0.092145   -0.008669
0.0010752   -0.025559    0.021538    -0.31301    -0.23474    -0.11131   -0.019712
0.020564   -0.021012    0.019264    -0.30944    -0.26949    -0.12073   -0.029132
0.031282   -0.016464    0.016991    -0.29515     -0.2906     -0.1191   -0.034329
0.02706   -0.012567    0.014392    -0.27306     -0.2867    -0.11586    -0.03238
0.016341  -0.0096434    0.013418     -0.2487    -0.26039    -0.11163   -0.027833
0.0069217   -0.010618    0.013418    -0.22532    -0.21525    -0.10741   -0.020037
0.0039985   -0.014516    0.013743     -0.2068    -0.15256    -0.10026  -0.0099683
0.0085458   -0.018413   0.0095202    -0.18829    -0.07428   -0.092145  0.00042559
0.01764   -0.019063   0.0020496    -0.17237   0.0095202   -0.081751    0.013418
0.025436    -0.01614  -0.0024977    -0.15938    0.083251   -0.069083    0.030957
0.02706  -0.0099683  0.00075039    -0.14671     0.13197   -0.053817    0.048822
0.022188  -0.0041217    0.010819    -0.12625     0.14626   -0.036927    0.062139
0.016666  -0.0047713    0.019589   -0.096692     0.12353    -0.02426    0.065712
0.010495   -0.012242    0.017316   -0.059664    0.064088   -0.021012     0.06084
0.0056225   -0.020687    0.003024   -0.017764   -0.039526   -0.030756    0.050121
-0.0024977   -0.027508   -0.013541    0.021213    -0.18179   -0.046671     0.03518
-0.017114   -0.029132   -0.021661    0.053694    -0.33023    -0.05739    0.016666
-0.036278   -0.028157   -0.019063    0.074157    -0.44554   -0.058689  -0.0031473
-0.052843   -0.027833  -0.0093186    0.081627    -0.49783   -0.055766   -0.021012
-0.059014   -0.026533  0.00075039    0.080003    -0.47737   -0.052843   -0.034004
-0.051544   -0.024909   0.0059473    0.075131    -0.39551   -0.053168   -0.040825
-0.038551    -0.02426   0.0065969    0.072208    -0.28346   -0.049595   -0.042449
-0.022636   -0.024909   0.0065969    0.071234    -0.17627    -0.03238   -0.042124
-0.0057458   -0.021337   0.0052977    0.068635   -0.098641 -0.00087364   -0.041475
0.012119    -0.01549   0.0017248    0.064413   -0.056091    0.036154   -0.044398
0.028034   -0.010293   -0.007045    0.061165   -0.042124    0.063113   -0.053168
0.03583  -0.0083442   -0.014191    0.057917   -0.040175    0.076106   -0.064861
0.030633  -0.0067202    -0.01484    0.055318   -0.033679    0.077405   -0.071357
0.0065969 -0.00054884  -0.0099683     0.05272   -0.019063    0.076106    -0.06551
-0.03173    0.009845  0.00010078     0.05142   0.0026992    0.083576   -0.046671
-0.075255    0.023812   0.0095202    0.050771    0.031282     0.10729   -0.025559
-0.10709    0.034206    0.015042    0.051745    0.070259     0.14432 -0.00087364
-0.1204    0.040052    0.014392    0.054993      0.1219     0.18004    0.032582
-0.11196    0.040052    0.009845    0.062464     0.18167     0.19953     0.06896
-0.089221     0.03583   0.0065969    0.072533     0.23851     0.19239    0.097218
-0.060638    0.027385   0.0062721    0.078704     0.27489     0.15796     0.10696
-0.035303    0.016341    0.011794    0.081627     0.27976     0.10274    0.099167
-0.017114    0.009845    0.023487    0.088448      0.2515    0.040702    0.079354
-0.0021729   0.0062721     0.03453    0.097868     0.19921    -0.01484    0.058891
0.012119   0.0046481    0.041676     0.10566     0.14561   -0.059989    0.045574
0.02706   0.0023744    0.044924     0.11151     0.10794   -0.095393    0.040052
0.039727  0.00042559    0.042326     0.11411    0.095594    -0.12527    0.038428
0.049472   0.0026992    0.032257     0.11443     0.11021    -0.15646    0.036154
0.054993   0.0095202     0.01829     0.11313     0.13977    -0.19446    0.029658
0.058241     0.01894     0.01017     0.11086     0.17095    -0.24318     0.01829
0.057917    0.026085    0.012443     0.10631     0.18946    -0.30165   0.0023744
0.055968    0.028359    0.017316     0.10209     0.19011    -0.36596   -0.018413
0.050121    0.026735    0.016341    0.097543     0.19888    -0.43189   -0.039526
0.037778    0.023162   0.0095202    0.097868     0.25865    -0.49068   -0.055766
0.017965    0.017316  -0.0011985     0.10306      0.3798    -0.53193   -0.063561
-0.007045   0.0091954   -0.012242     0.11313     0.53343    -0.53908   -0.060963
-0.033679   0.0039985   -0.020687      0.1297     0.66985     -0.4988   -0.050894
-0.055116   0.0072465   -0.022311     0.15049     0.74196    -0.41305   -0.037577
-0.064536    0.016666   -0.015815      0.1716     0.71468    -0.30035    -0.02361
-0.060313    0.026735  -0.0054209     0.18622     0.55162    -0.18861   -0.011267
-0.04992    0.032257   0.0052977     0.18297     0.23039    -0.10059  -0.0047713
-0.038227    0.032257    0.017965     0.15893    -0.23506    -0.04862  -0.0067202
-0.028807    0.029658    0.031282     0.12288    -0.77521   -0.027508  -0.0093186
-0.021337     0.02641    0.041676    0.085525     -1.3043   -0.026858   -0.011267
-0.01549    0.025111    0.048822    0.058891     -1.7639   -0.036927   -0.012892
-0.01549    0.024137    0.053369    0.044275     -2.1066    -0.04927   -0.020687
-0.018413    0.020888    0.059865    0.040052      -2.296   -0.057715   -0.032705
-0.022311    0.013743    0.069934    0.042975     -2.3193   -0.061288   -0.043099
-0.022636   0.0017248    0.076755    0.049147     -2.1878   -0.059664   -0.047971
-0.018413  -0.0093186    0.077405    0.056617     -1.9432   -0.047971    -0.04927
-0.010293   -0.013216    0.074482    0.062139     -1.6288   -0.029457    -0.04992
-0.0015233  -0.0063954    0.072533    0.060515     -1.2712  -0.0076946   -0.051219
0.0039985   0.0088706    0.067661    0.049796     -0.8798    0.015042   -0.051544
0.0036737    0.026085    0.055643    0.029658    -0.46243    0.038753   -0.047321
-0.00054884    0.036804    0.032906    0.003024   -0.052518    0.066686   -0.037902
-0.007045    0.040377  -0.0041217   -0.027833     0.28723     0.09462   -0.026209
-0.013541    0.039727   -0.058365   -0.060313     0.49251     0.11736   -0.018413
-0.0099683    0.036479    -0.12982   -0.092794     0.53084     0.13555   -0.016789
0.0091954     0.03453    -0.20875    -0.12073     0.42592     0.15406   -0.013216
0.041027    0.036154    -0.27891    -0.13664     0.25507     0.16933  -0.0011985
0.071558    0.038753    -0.32048    -0.12885     0.10664      0.1742    0.014068
0.086824    0.042975    -0.32438   -0.093119    0.042651     0.16445    0.029658
0.0865    0.046223    -0.29677    -0.03173    0.081952     0.14724    0.037129
0.071234    0.044599    -0.24643    0.048172     0.20895     0.12743     0.03518
0.043625    0.034206    -0.18569     0.13165     0.37753     0.11216    0.026085
0.0049729     0.01829    -0.12463     0.20018     0.53798     0.10047    0.015367
-0.035953   0.0072465   -0.075904     0.23948     0.65556    0.093645    0.012443
-0.070058   0.0046481    -0.04927     0.24955      0.7202    0.093645    0.015042
-0.087272    0.010495   -0.038227     0.23689     0.74359     0.10144    0.016341
-0.086948    0.021213   -0.031081     0.20863     0.74683     0.11118     0.01764
-0.078827    0.032906   -0.024585     0.17517     0.74261     0.11963    0.020888
-0.072331    0.036154   -0.014191     0.14074     0.72377     0.12483    0.023812
-0.07493    0.032582 -0.00022403     0.11118     0.68674     0.12515    0.023487
-0.084349    0.022837    0.016666    0.091372     0.66271     0.11833    0.016341
