0.051096  -0.0015233    -0.10286    -0.31886    -0.27696     0.18427    0.041676
0.031607    -0.01549    -0.14769    -0.25227    -0.11586     0.18459    0.025436
0.019914   -0.021986     -0.1753    -0.18147     0.13327     0.20181    0.015692
0.015367   -0.021337    -0.17822    -0.11326     0.44054     0.24825    0.011794
0.016666   -0.016789    -0.16653   -0.061288       0.753     0.32686    0.012119
0.01894   -0.013866    -0.14476   -0.036602      1.0141     0.43047   0.0091954
0.020239   -0.016464    -0.11358    -0.04992      1.1779        0.55 -0.00022403
0.01894   -0.026209   -0.070707   -0.092469      1.2259     0.66141   -0.017114
0.011144   -0.036927   -0.018088    -0.14866      1.1701     0.73482   -0.036602
0.00010078   -0.043423    0.040377     -0.2029      1.0418     0.74683   -0.050569
-0.011267   -0.045372    0.097218    -0.23961      0.8813     0.69519   -0.055766
-0.016789   -0.043099     0.14139    -0.24675     0.71598     0.58151   -0.054142
-0.01484   -0.038227     0.16738    -0.21882      0.5539     0.41748   -0.046347
-0.0054209   -0.030756      0.1729    -0.16393     0.39442     0.22292   -0.035303
0.010819   -0.021986     0.15731   -0.094743     0.21707    0.022188   -0.026858
0.031607   -0.013216     0.12255   -0.027183    0.010495    -0.16328   -0.023285
0.051745  -0.0031473    0.076431    0.022188    -0.23993    -0.31236   -0.022961
0.065062   0.0062721    0.028034    0.040052    -0.57611    -0.42117   -0.026533
0.066686   0.0095202   -0.012892   0.0039985     -1.0351     -0.4988   -0.034004
0.054668   0.0043233   -0.046022    -0.13469     -1.6096    -0.55954   -0.045372
0.033556  -0.0099683   -0.071357    -0.38804      -2.232    -0.61379   -0.058689
0.0049729   -0.026533   -0.095393    -0.70765     -2.7919    -0.66413    -0.06616
-0.02361   -0.039526    -0.11293     -1.0208      -3.169    -0.69986    -0.06616
-0.048296   -0.047971    -0.11845     -1.2923     -3.2597    -0.70603   -0.061613
-0.068758    -0.04927    -0.11456     -1.5116      -3.005      -0.669   -0.057715
-0.084024   -0.047646    -0.10709     -1.6298     -2.4278    -0.59137   -0.057065
-0.09182   -0.046996   -0.096692     -1.5304     -1.6538    -0.48776   -0.062262
-0.087597   -0.050569   -0.078178     -1.0958    -0.90221    -0.37408   -0.069733
-0.072656   -0.049595   -0.045697    -0.32438    -0.46015    -0.27241    -0.07428
-0.055766   -0.042449  -0.0015233     0.61171    -0.52381    -0.19998   -0.075255
-0.045047   -0.030431    0.041027      1.4335    -0.99998     -0.1675   -0.077853
-0.046022   -0.022961    0.063438       1.947       -1.57    -0.17465     -0.0837
-0.056741   -0.024909    0.062464      2.0837     -1.9049    -0.20972   -0.087272
-0.068109   -0.037252    0.050121      1.8931     -1.8286    -0.25585   -0.087597
-0.071682    -0.04927    0.045899      1.4884     -1.3589     -0.2958   -0.080451
-0.061288   -0.053168    0.063113      1.0018    -0.66738    -0.32081   -0.064536
-0.040175   -0.046347    0.099167     0.56039    0.028034    -0.32795   -0.041799
-0.020037   -0.029782     0.13944     0.24533     0.55487    -0.32406   -0.010293
-0.0083442   -0.012242     0.16088    0.079354       0.842    -0.32568    0.029009
-0.0076946  0.00075039     0.14919      0.0433     0.91281    -0.34127    0.066362
-0.010293    0.010819     0.10631    0.099817      0.8498    -0.36531    0.097868
-0.0089938     0.01894    0.050121     0.21382     0.74651    -0.38512     0.12028
0.0014    0.031282  0.00075039     0.36681     0.67635    -0.39454     0.13035
0.01764    0.044599   -0.031406      0.5422     0.66531    -0.39487     0.12483
0.029333    0.053369   -0.045047     0.70786     0.68382    -0.39487     0.10112
0.032257     0.05142   -0.039851     0.82674      0.6796    -0.39909    0.063763
0.026085    0.037778   -0.019712     0.87253     0.63445    -0.39876    0.021213
0.019264    0.016341   0.0049729     0.84233     0.57469      -0.377   -0.015815
0.012768  -0.0073698    0.022188     0.75365      0.5526    -0.31951   -0.041475
0.0062721   -0.027183    0.030308     0.63737     0.60717    -0.22986   -0.057065
0.0046481   -0.038227    0.036479     0.52986     0.73027     -0.1204   -0.063886
0.0091954   -0.041475    0.045574     0.46555        0.88  -0.0073698   -0.062587
0.013418   -0.038876    0.058566     0.45938      1.0073    0.094945   -0.053817
0.016991   -0.032705    0.074482      0.5016      1.0824     0.17387   -0.035953
0.019589   -0.021661    0.093321     0.55617      1.0892     0.22324  -0.0073698
0.027709  -0.0063954     0.11476     0.57793       1.033      0.2476    0.033881
0.042975    0.014068      0.1349     0.52824     0.92808     0.25962    0.083576
0.064088    0.037129     0.15081      0.3733     0.80432     0.26255      0.1271
0.082277    0.054344     0.15536     0.11021     0.69421      0.2567     0.15114
0.093645    0.059216     0.14237      -0.212     0.61301     0.24176     0.14789
0.099817    0.051096     0.11736     -0.5105     0.56137     0.22747     0.12158
0.095594    0.035505    0.091047    -0.70895     0.52402     0.24566    0.083251
0.078704     0.01829    0.072533    -0.77976     0.48341     0.32263    0.045249
0.052395   0.0059473    0.061489    -0.73689     0.42592     0.45126    0.014068
0.026735   0.0020496    0.053694    -0.62905     0.35576      0.5971  -0.0050961
0.0085458   0.0026992      0.0433    -0.51829     0.29275     0.71175   -0.012892
0.00010078   0.0023744    0.022837    -0.44781     0.25118     0.75593   -0.014191
-0.0050961  0.00042559  -0.0063954    -0.42702     0.23364     0.72377   -0.016789
-0.0096434  -0.0054209   -0.032705    -0.42735     0.23364     0.63348   -0.020362
-0.012892   -0.012567   -0.041475    -0.41565     0.23948     0.50745   -0.021661
-0.011592   -0.016464   -0.030106    -0.37473     0.24501     0.36129   -0.017114
-0.0060706   -0.015815  -0.0021729    -0.30652     0.24728     0.20311  -0.0034721
-0.00087364   -0.011592    0.037129    -0.23084     0.24566    0.039078    0.012768
0.0036737  -0.0057458    0.073832    -0.18504     0.24338    -0.11553    0.029333
0.0020496  -0.0024977    0.088124    -0.22597     0.27132    -0.24221    0.043625
-0.0041217  -0.0063954    0.049147    -0.38252     0.36291    -0.32828    0.053369
-0.013216   -0.020037   -0.071032    -0.62515     0.51687     -0.3718    0.054668
-0.020687   -0.039201    -0.27469    -0.88922     0.69389    -0.39194    0.047523
-0.025884    -0.05739    -0.51667     -1.1325      0.8433    -0.39974    0.035505
-0.032705   -0.069733     -0.7174      -1.329      0.9284    -0.40104    0.022512
-0.038551   -0.068758    -0.79081     -1.4027     0.93879    -0.39779    0.016341
-0.039526   -0.054142    -0.69336     -1.2306     0.90242    -0.38869    0.015042
-0.034004   -0.034978    -0.45366    -0.76547      0.8511    -0.37635    0.015042
-0.024585   -0.016789    -0.15905     -0.1243     0.79815    -0.37083    0.009845
-0.021012   -0.010943    0.092996     0.47789     0.72377    -0.36823   -0.007045
-0.031081   -0.020362     0.24078     0.87188     0.59385    -0.35719   -0.036927
-0.053168   -0.039201     0.27814      1.0015     0.39084    -0.32471   -0.070707
-0.083375   -0.060638     0.23039     0.90079     0.13522    -0.26851    -0.10254
-0.11488   -0.077853     0.14204     0.66466    -0.12463    -0.19381    -0.12722
-0.13859   -0.085648    0.063113     0.40773    -0.33543    -0.11066    -0.13989
-0.14834   -0.081101    0.021538      0.2135    -0.46762    -0.03238    -0.14152
-0.14184   -0.067459     0.02706     0.11736    -0.52446    0.037129    -0.13275
-0.1204   -0.047971    0.066037     0.10306    -0.53811     0.10242    -0.11456
-0.089221   -0.028482     0.11801     0.12353    -0.54785     0.16543   -0.089221
-0.052518   -0.012242     0.16218     0.12807    -0.56961     0.22324   -0.060313
-0.024585 -0.00054884     0.18589    0.084226    -0.58748     0.26547    -0.03303
-0.012567   0.0078962     0.18329 -0.00022403    -0.56441     0.28691   -0.010943
-0.012892    0.014392     0.16348   -0.082725    -0.48191     0.27749   0.0036737
-0.014516     0.01894     0.13392     -0.1308    -0.34874     0.23461    0.011469
-0.0093186    0.020888     0.10404    -0.14379    -0.19738       0.169    0.012443
0.008221    0.023162    0.066686    -0.15418   -0.067459    0.098193    0.014717
0.034206    0.029983   0.0072465    -0.21167    0.021213    0.042326    0.024786
0.063113    0.042326   -0.084674     -0.3429    0.066037    0.013093    0.044599
0.089423    0.055318    -0.19543    -0.52771    0.047847     0.01829    0.063763
0.10501    0.059216    -0.29515    -0.69109   -0.062262    0.054344    0.077405
0.10177    0.049147    -0.35296    -0.74371     -0.2578     0.10501    0.076755
0.082602    0.028684    -0.35784    -0.63847    -0.50043     0.14886    0.058241
0.054993   0.0023744    -0.31789    -0.41176    -0.72357      0.1664     0.02706
0.02641   -0.021661    -0.25227    -0.15678     -0.8457     0.15503  -0.0076946
0.0010752   -0.037902    -0.18114    0.040052    -0.80445      0.1245   -0.035953
-0.018738   -0.038876    -0.11651     0.14626    -0.60307      0.0865   -0.052518
-0.028482    -0.02361   -0.062912     0.18297    -0.31951    0.047847   -0.052193
-0.029132  -0.0044465   -0.019712     0.19434   -0.072006   0.0056225   -0.040825
-0.026858   0.0075714    0.020888     0.21837    0.054668   -0.034654   -0.022961
-0.02361   0.0085458    0.061489     0.26839    0.047198   -0.062262  -0.0018481
-0.021661   0.0010752    0.096893     0.33465   -0.051868   -0.068758    0.020564
-0.023285  -0.0093186     0.11995     0.38825    -0.18439   -0.059989    0.036804
-0.029782   -0.020037     0.12678     0.40773    -0.30912   -0.051544    0.047198
-0.0405   -0.026209     0.11995     0.38857    -0.40363   -0.052193    0.048172
-0.047971   -0.026209     0.10242     0.33823     -0.4556   -0.063237    0.039078
-0.045372   -0.024909    0.082602     0.27619     -0.4634     -0.0824    0.024461
-0.03238   -0.020687    0.069285     0.22097    -0.43612    -0.10968     0.01017
-0.01484    -0.01549    0.061489     0.18037    -0.39584    -0.14022  -0.0041217
0.0014  -0.0099683    0.053694     0.15698    -0.36498    -0.15613   -0.021986
0.008221  -0.0080194    0.042975     0.14042    -0.36661    -0.12592   -0.041799
0.0020496  -0.0096434    0.029333     0.12515    -0.41695   -0.020362   -0.059989
-0.010293   -0.014516    0.010495     0.10729    -0.52284     0.16543   -0.071032
-0.021986   -0.018738   -0.013216    0.089098    -0.69759     0.40449   -0.071682
-0.026209   -0.024585   -0.036278    0.071558    -0.97107     0.64127   -0.059664
-0.025234   -0.027508   -0.050244    0.054668     -1.3427     0.81439   -0.043099
-0.018738   -0.024585   -0.050244    0.037129     -1.7467      0.8826   -0.029782
-0.010293   -0.017764   -0.038876    0.020888     -2.0709     0.82544   -0.021337
-0.0054209   -0.010618   -0.022961   0.0095202     -2.1901     0.65296   -0.021661
-0.0060706  -0.0054209  -0.0063954   0.0017248     -2.0147     0.40449   -0.025234
-0.0099683  -0.0015233    0.013093  -0.0044465     -1.5531     0.13425   -0.025884
-0.01484   0.0039985     0.03583   -0.010943    -0.91033    -0.10611   -0.020037
-0.017114   0.0085458    0.055318   -0.022636     -0.2435    -0.28281  -0.0073698
-0.014516    0.013743    0.059541   -0.037252     0.29503    -0.38415   0.0095202
-0.0096434     0.01764    0.031607   -0.048296     0.62308    -0.42215    0.029658
-0.0054209    0.021863   -0.027508    -0.04927     0.74651    -0.43352    0.050121
-0.0044465    0.025111    -0.10091   -0.037902     0.72734    -0.45625    0.063438
-0.0096434    0.026085    -0.15841   -0.015165     0.64289    -0.51277    0.062464
-0.019063    0.025111    -0.17952    0.012768     0.55617    -0.60631    0.048172
-0.034004    0.023487    -0.16263    0.044599     0.49641    -0.73396    0.023162
-0.051219    0.017965     -0.1191    0.080003      0.4688     -0.8837  -0.0076946
-0.067134   0.0065969   -0.069733     0.10696     0.45581      -1.039   -0.037577
-0.077203  -0.0060706    -0.03173     0.10404     0.44996     -1.1669   -0.062262
-0.076229   -0.010618  -0.0037969    0.069285      0.4662     -1.2176   -0.081101
-0.061288  -0.0031473    0.025111    0.016991     0.51817     -1.1517   -0.092469
-0.037252    0.013743    0.057267   -0.029457     0.59677     -0.9688   -0.097666
-0.011917    0.032582     0.08585   -0.052518     0.67505    -0.71123   -0.097666
0.0085458      0.0433     0.10014    -0.04862     0.72734    -0.43677   -0.089546
0.025761    0.048172     0.10599   -0.024585     0.74521    -0.19089   -0.072981
0.044924    0.053694     0.11378 -0.00054884     0.73709   0.0043233   -0.052518
0.063763    0.061489     0.12743    0.011794     0.71857     0.15179   -0.027183
0.078704    0.074157     0.14367   0.0085458     0.69486     0.26384 -0.00022403
0.087474      0.0852     0.15179  -0.0024977     0.66466     0.35284    0.023812
0.087799    0.088124     0.13977   -0.012567     0.62276     0.43047    0.046548
0.080328    0.080328     0.10859   -0.013866     0.55877      0.5003     0.06961
0.068635    0.065387    0.070909  -0.0044465     0.46945      0.5513    0.095269
0.05272    0.045574    0.039402   0.0088706     0.35544     0.56657     0.11703
0.033231    0.024461    0.022837    0.020239     0.21252     0.52986     0.12353
0.009845   0.0033489    0.018615    0.026735    0.051745     0.43112     0.10989
-0.017114   -0.015815    0.024137    0.026735    -0.10936     0.26742    0.075781
-0.044723   -0.033679    0.037129    0.022837    -0.25942    0.049796    0.032257
-0.064211   -0.048296    0.054668    0.012768    -0.40331    -0.19381  -0.0083442
-0.072656    -0.05804    0.071234  -0.0021729    -0.53908    -0.42442   -0.035628
-0.071357   -0.057715    0.078704   -0.022961    -0.64886    -0.60242   -0.052518
-0.062587   -0.047646    0.073832   -0.043099    -0.69921    -0.70441   -0.063561
-0.04992   -0.032055    0.059865   -0.054467    -0.66381    -0.71642   -0.071032
-0.034978   -0.017439    0.040377   -0.052843      -0.542     -0.6388   -0.076879
-0.023285  -0.0041217    0.023487   -0.040825    -0.36141    -0.48549   -0.075579
-0.014516    0.009845    0.012443    -0.03173    -0.15321    -0.28378   -0.062262
-0.0076946    0.024137   0.0088706   -0.045697    0.055968   -0.067784   -0.037577
-0.0021729    0.034206   0.0065969   -0.094418     0.24468     0.12807   -0.012892
0.0026992    0.036804  -0.0015233    -0.17367     0.40254     0.27879   0.0052977
0.0052977    0.033231   -0.015165    -0.26592     0.52629     0.37201   0.0095202
0.00042559    0.023812    -0.03173    -0.34744     0.62211     0.41098   0.0020496
-0.010293    0.012119   -0.045047    -0.40656     0.69681     0.41196  -0.0096434
-0.021661   0.0065969   -0.050894    -0.43904      0.7582     0.40676   -0.010293
-0.02426   0.0085458   -0.044398    -0.42897     0.80043     0.41943    0.014068
-0.010293     0.01764    -0.02426    -0.36726     0.81277      0.4636    0.059865
0.016016    0.029009   0.0043233    -0.25455     0.79068     0.52791     0.10956
0.044924     0.03583    0.031932    -0.10026     0.74229     0.58378     0.14204
0.064737    0.038428    0.049147    0.080003     0.67603     0.60229     0.14659
0.071234    0.038753    0.054019     0.26352     0.59547     0.57176     0.12385
0.062789    0.037778     0.05207     0.44054     0.50128     0.49706    0.083576
0.047198     0.03453    0.051096     0.60424     0.39377     0.39799    0.035505
0.028034    0.026085    0.057267     0.73709     0.28236     0.28983   -0.014516
0.0085458    0.014392    0.067661     0.82121     0.17387     0.18199   -0.063886
-0.008669   0.0020496    0.072208     0.83908    0.055968    0.086175    -0.10936
-0.022636   -0.008669     0.06019     0.77217   -0.095068    0.013743    -0.14801
-0.034004   -0.017764    0.024137     0.62795    -0.30197   -0.025559    -0.16977
-0.044398   -0.021661   -0.021337     0.44476    -0.56539   -0.035628    -0.17107
-0.055441   -0.021986   -0.060313     0.26287    -0.84505   -0.028482    -0.15061
-0.061288   -0.017764   -0.087597     0.10859     -1.0672  -0.0037969    -0.11033
-0.056741  -0.0093186    -0.11423  -0.0099683     -1.1578    0.048172   -0.052193
-0.041799 -0.00087364    -0.15093    -0.10059     -1.0948     0.13392    0.019914
-0.026858  -0.0018481    -0.20193    -0.16782    -0.91131     0.23689    0.095594
-0.021012   -0.016789    -0.26007    -0.20843     -0.6729     0.33011     0.15991
-0.024585   -0.038551    -0.30879    -0.20713    -0.44781     0.39344     0.20051
-0.033679   -0.054142    -0.32925     -0.1334    -0.27046      0.4269      0.2109
-0.0405   -0.052518    -0.31659  0.00075039    -0.14736     0.43762     0.19271
-0.043099   -0.036602    -0.28248     0.11898   -0.069408     0.42755     0.15211
-0.043423   -0.016464    -0.24545     0.13197   -0.027833     0.39572    0.099167
-0.044398  -0.0024977    -0.21622    0.022188   -0.011267     0.34797    0.046873
-0.044073    0.003024    -0.19608    -0.15938  -0.0060706     0.30055   0.0059473
-0.037902    0.003024    -0.18049    -0.35232 -0.00054884     0.27814   -0.013866
-0.027183  0.00075039    -0.16685    -0.52544  0.00010078     0.29405   -0.010618
-0.013541  -0.0011985    -0.15711    -0.65406   -0.024585     0.34537   0.0075714
-0.0034721  -0.0011985    -0.15743    -0.70083   -0.088247     0.40936    0.025436
0.0049729  0.00010078    -0.16328    -0.62256    -0.16165     0.45743    0.034855
0.015042   0.0072465     -0.1649    -0.39487    -0.18894      0.4675    0.033881
0.022512    0.019589    -0.13957   -0.042124    -0.12008     0.43145    0.029658
0.021213    0.033556   -0.072006     0.36616    0.051096     0.35349    0.026085
0.010819    0.043625    0.030957     0.73449     0.27424     0.24598    0.023162
-0.0054209    0.047523     0.14984      0.9716     0.48504     0.12028    0.019589
-0.022961    0.047523     0.25443      1.0281     0.63055    -0.01549    0.012443
-0.034654    0.045899     0.31874     0.91996     0.68642    -0.14704   0.0033489
-0.033354    0.046223      0.3314     0.70656     0.66336    -0.25487  -0.0024977
-0.022961    0.048822     0.29795     0.46198     0.58346    -0.31626  -0.0037969
-0.012242    0.050121     0.23656     0.24598     0.46652    -0.31431  -0.0024977
-0.0067202    0.046223     0.16673    0.084551     0.32458    -0.25033   0.0010752
-0.0060706    0.038428     0.10599   -0.021012     0.17582    -0.14606   0.0062721
-0.0080194    0.027385    0.063113     -0.0837    0.046873   -0.044398    0.012443
-0.007045     0.01764    0.038753     -0.1217    -0.04115   0.0010752    0.012768
-0.00022403    0.013418    0.029658    -0.14964   -0.090196   -0.041799   0.0033489
0.01017    0.014068    0.023812    -0.17172    -0.13047    -0.17497   -0.016789
0.017965    0.013418    0.019264    -0.18861    -0.20096    -0.37115   -0.041475
0.01894    0.010819    0.012768    -0.19738    -0.31918    -0.58553    -0.06616
0.015367   0.0052977   0.0046481    -0.20128     -0.4634    -0.77392   -0.085324
0.011469 -0.00022403  -0.0047713    -0.20615    -0.56766    -0.89734   -0.093444
0.011144  -0.0041217   -0.012567    -0.21687    -0.54265    -0.92852   -0.087597
0.014717  -0.0054209   -0.016789    -0.23279    -0.33835    -0.86616   -0.069083
0.022837  -0.0031473   -0.019712    -0.24415   0.0065969    -0.73429   -0.044398
0.033881 -0.00022403   -0.024909    -0.24415     0.38825    -0.57578   -0.020687
0.049472   0.0026992   -0.026858    -0.22337     0.69259    -0.43514  -0.0037969
0.066037   0.0023744   -0.021012    -0.18114     0.84168    -0.34777   0.0059473
0.078704  -0.0018481   -0.007045    -0.12592     0.82154    -0.33055    0.008221
0.082927   -0.007045    0.008221   -0.073306     0.67083    -0.37115   0.0033489
0.079354   -0.010293    0.023487   -0.034329     0.45581    -0.43904  -0.0080194
0.065062   -0.012242    0.039402   -0.011592     0.23851    -0.50822    -0.02361
0.041676   -0.014191    0.056617   -0.007045    0.065062    -0.56701   -0.043423
0.015367   -0.017114    0.070909   -0.016789   -0.041475    -0.60502   -0.062912
-0.0044465   -0.021012    0.080328   -0.036278    -0.07428    -0.61508   -0.076554
-0.01549   -0.025234    0.089423   -0.059989   -0.046996     -0.5878   -0.078827
-0.015165   -0.030756     0.10144     -0.0824    0.014068    -0.51667   -0.068434
-0.0050961   -0.036602     0.11541   -0.095068    0.084226    -0.40656   -0.052193
0.0065969   -0.039526     0.12613   -0.097341     0.15081    -0.27858     -0.0405
0.013418   -0.039526      0.1297    -0.09182     0.21188    -0.15678   -0.037577
0.013418   -0.037577     0.12483   -0.081101     0.27781   -0.061288   -0.045372
0.0088706   -0.037902     0.10924    -0.06551     0.36129   0.0023744   -0.055116
0.0059473   -0.038551    0.085525   -0.043748     0.47757    0.045249   -0.061613
0.0059473   -0.038876    0.057267   -0.018413     0.62925    0.079029   -0.060313
0.0062721   -0.039526    0.029009   0.0020496     0.77931     0.11313   -0.055441
0.0088706   -0.039526   0.0020496    0.010819     0.83031     0.15049   -0.048296
0.014392   -0.035628   -0.023285   0.0036737     0.62406     0.18362   -0.043748
0.019589   -0.028807    -0.04927   -0.017764    0.027709     0.19921     -0.0405
0.028359   -0.020687   -0.078503   -0.052518    -0.88208     0.19466   -0.036278
0.037778   -0.013866    -0.10968   -0.097666     -1.8081     0.17452   -0.029782
0.048822  -0.0089938    -0.14216    -0.14574     -2.4337     0.15114   -0.020362
0.062464  -0.0037969    -0.17497    -0.19024     -2.5785     0.13684  -0.0093186
0.078704   0.0010752    -0.20193    -0.22239     -2.2518     0.13814   0.0039985
0.090722   0.0043233     -0.2146    -0.23668     -1.6145     0.15179    0.017965
0.094295   0.0049729     -0.2081    -0.23344    -0.88403     0.17192    0.030633
0.0865    0.003024    -0.18212    -0.22174    -0.24188     0.19011    0.036479
0.067336      0.0014    -0.14444    -0.21265     0.20765     0.20376    0.034206
0.038428  0.00042559    -0.10059    -0.20778     0.45451       0.207    0.023812
0.0072465  -0.0024977   -0.058365    -0.20875     0.54838     0.19596    0.011144
-0.019388  -0.0073698   -0.022636    -0.21037     0.55422      0.1768  -0.0018481
-0.036278   -0.012242   0.0088706    -0.20843     0.52499     0.15633   -0.011917
-0.044398   -0.018738    0.036804    -0.20323     0.49088     0.13457   -0.020037
-0.047971   -0.024585    0.061814    -0.19771     0.46035     0.11378   -0.026209
-0.051868   -0.030106    0.083251    -0.18861     0.43015    0.094945   -0.028157
-0.055766   -0.036278    0.094295    -0.17172     0.40806     0.07773   -0.027833
-0.061937   -0.042124    0.089748    -0.14834     0.41326    0.064413   -0.026209
-0.068109   -0.043748    0.071234    -0.12268     0.45581    0.057267   -0.026858
-0.072981   -0.041799    0.044275    -0.10286     0.54155    0.054668   -0.030106
-0.07428   -0.036278    0.014717   -0.093119     0.64484    0.053369    -0.03238
-0.071357   -0.031081   -0.013541   -0.098316     0.71013    0.053044    -0.03303
-0.064211   -0.027183   -0.034004    -0.11358     0.65881    0.050121    -0.03238
-0.056416   -0.023935   -0.042774     -0.1282     0.39702    0.040702   -0.033354
-0.052193   -0.020687   -0.034329    -0.12852     -0.1191    0.021538    -0.04115
-0.052518   -0.019063   -0.012892    -0.10806    -0.80542  -0.0073698   -0.055116
-0.060313   -0.020687    0.014392   -0.069083     -1.4736   -0.036602   -0.073306
-0.07428    -0.02426    0.038103   -0.045697     -1.9221   -0.043423   -0.088896
-0.086298   -0.026858    0.049147    -0.11261     -2.0293 -0.00054884   -0.096042
-0.090521    -0.03303    0.039402    -0.35426     -1.8039     0.10339   -0.088572
-0.084674   -0.047646  -0.0044465    -0.78853     -1.3657     0.24566   -0.063561
-0.071032   -0.065186   -0.079152     -1.3443    -0.87558     0.38467   -0.026858
-0.051219   -0.080127    -0.16945     -1.8974     -0.4608     0.47757    0.012768
-0.027508   -0.084024     -0.2552     -2.3242    -0.18699     0.50063    0.047523
-0.0057458   -0.075255    -0.32048     -2.5181   -0.064536      0.4597     0.06831
0.0056225   -0.057065    -0.35589     -2.3531   -0.069083      0.3889    0.071558
0.0075714   -0.032705    -0.35491     -1.7159    -0.15905     0.32198    0.065062
0.0065969  -0.0024977    -0.31139    -0.59332    -0.28248     0.27164    0.058891
0.011794    0.032582    -0.22791     0.82966    -0.41208     0.23071    0.057917
0.020888    0.067661    -0.12625      2.1487    -0.55759      0.1768    0.060515
0.029009    0.094295   -0.036927      3.0539    -0.72552    0.081303    0.063438
0.03453     0.10761    0.016991      3.3901    -0.88792   -0.065186    0.061489
0.038428     0.10599    0.026735      3.2021    -0.99186    -0.23246    0.058891
0.043625    0.093321  0.00042559      2.6664    -0.99381    -0.37473    0.063763
0.055643    0.078055   -0.043748      2.0003    -0.87168     -0.4556      0.0852
0.071558    0.061165   -0.084349      1.3841    -0.63197    -0.47282      0.1232
0.083576    0.042651    -0.10611     0.92385      -0.301     -0.4556     0.16121
0.084226    0.025436    -0.10156     0.65199    0.072533    -0.44326     0.18037
0.067661   0.0095202   -0.066485     0.54026     0.42203    -0.45755     0.16965
0.036804  -0.0034721  -0.0044465     0.52694      0.6835    -0.49003     0.13457
0.0033489   -0.010943     0.06961      0.5474     0.80887    -0.52381    0.086175
-0.020362    -0.01484     0.14074      0.5539     0.78549    -0.52739    0.040702
-0.03173   -0.013541     0.19953     0.52531     0.64907    -0.45885   0.0072465
-0.03173   -0.008669     0.23786     0.46295     0.47594    -0.29742   -0.015165
-0.02426  -0.0044465      0.2567     0.37948      0.3418   -0.072006   -0.030106
-0.018738  -0.0024977     0.25767     0.28626     0.29892     0.16445    -0.04115
-0.018413  -0.0050961     0.23981     0.19271     0.35609     0.35122    -0.04992
-0.021337  -0.0099683     0.20376     0.11021     0.48017     0.44639    -0.05739
-0.024585   -0.012242     0.15893    0.042651     0.61853     0.43957   -0.062587
-0.026858   -0.010293     0.11736   -0.013541     0.73319     0.35447   -0.064211
-0.030431  -0.0034721    0.083576   -0.060963     0.80367     0.22552   -0.059014
-0.040175      0.0014    0.056292    -0.10806     0.82836    0.083576   -0.046022
-0.054467  0.00075039    0.029333    -0.15158     0.81374   -0.053168   -0.032705
-0.070382  -0.0054209  -0.0041217    -0.18147     0.76567    -0.18926   -0.022961
-0.084024   -0.014191   -0.045697    -0.19998     0.68902     -0.3299   -0.017439
-0.090196   -0.021012   -0.096042    -0.22272     0.59645     -0.4673   -0.013866
-0.085324   -0.026533    -0.14411    -0.26299     0.49998    -0.57611   -0.015165
-0.072656   -0.026209    -0.17562    -0.30262     0.40514    -0.63425   -0.019063
-0.055116   -0.021986    -0.17952    -0.31399     0.30964    -0.63132   -0.022961
-0.038227   -0.015165    -0.14964    -0.27436     0.21025    -0.57936   -0.021337
-0.023935  -0.0089938   -0.087597    -0.17789     0.11898     -0.5027   -0.010943
-0.012892  -0.0024977  -0.0021729   -0.044073    0.055318      -0.428     0.01017
-0.0067202   0.0072465    0.087799    0.084876    0.047523     -0.3757     0.03518
-0.0054209    0.024461     0.16705      0.1677     0.10436    -0.34517    0.056292
-0.0063954    0.045899     0.22487     0.18102      0.2174    -0.32016    0.070584
-0.0028225    0.063113     0.26384     0.13165     0.36161    -0.27696    0.080328
0.0039985     0.06961     0.28691    0.046873     0.50875    -0.20193    0.087149
0.008221    0.062139     0.29665   -0.037902     0.63348   -0.095717    0.086175
0.0023744    0.047523     0.29697    -0.10026      0.7163    0.029658    0.075131
-0.011267    0.032906     0.29405    -0.13892     0.74716     0.15731    0.054344
-0.029782    0.021538     0.29503      -0.161     0.72572     0.26514    0.027709
-0.044398    0.015692     0.29795     -0.1714     0.66173      0.3379  -0.0011985
-0.051219    0.015367     0.28853    -0.17432     0.57436     0.37201   -0.027183
-0.052843    0.019264     0.23526    -0.17465     0.49153      0.3772   -0.044723
-0.04927    0.022837     0.10761    -0.17919     0.43242     0.36226   -0.052843
-0.041799    0.024786   -0.098641    -0.19024     0.40546     0.33628   -0.055441
-0.03238    0.022188    -0.34517     -0.2029     0.40091     0.30769   -0.059664
-0.019063    0.014392    -0.55857    -0.21102     0.40708     0.28073   -0.067459
-0.0037969   0.0059473    -0.66316    -0.21427     0.41196     0.26027   -0.079477
0.0078962 -0.00022403    -0.62678    -0.21525     0.40579     0.25215   -0.087922
0.015042  -0.0011985    -0.47022    -0.21037      0.3824     0.26384   -0.089871
0.016991    0.003024    -0.25292    -0.19933     0.32783     0.29925   -0.084999
0.016666   0.0095202   -0.044073    -0.18699     0.22454     0.34829   -0.077203
0.016666    0.013743     0.10047    -0.17822    0.048822     0.39279   -0.069733
0.013418    0.012443     0.16413    -0.17107    -0.19608     0.41553   -0.062912
0.0075714   0.0039985     0.16023    -0.16425    -0.46015     0.40708   -0.058689
0.003024  -0.0076946     0.11898    -0.15029    -0.66835      0.3811   -0.056741
0.0026992   -0.017114    0.068635    -0.13177    -0.76385     0.35382   -0.050569
0.0072465   -0.021337    0.028684    -0.11066    -0.73234     0.33433   -0.035303
0.015042   -0.020362   0.0065969   -0.085648    -0.61216     0.32523   -0.016789
0.020888   -0.017439  0.00075039   -0.051219     -0.5014     0.33693  -0.0034721
0.023162   -0.014191   0.0046481   -0.008669     -0.5027     0.38792   0.0017248
0.023812    -0.01614    0.008221    0.034206    -0.64464     0.48212   0.0023744
0.021213   -0.026533   0.0078962    0.063763    -0.88208      0.5971   0.0046481
0.013093   -0.041799   0.0075714    0.073507     -1.1117     0.70428   0.0065969
0.0017248   -0.052518    0.019589    0.057592     -1.2157     0.78126    0.011469
-0.0037969   -0.052193    0.049472    0.019914      -1.127     0.80465    0.022512
0.00010078   -0.038227    0.084226   -0.029457    -0.85479      0.7582    0.043625
0.012119    -0.01484     0.10631   -0.060963    -0.48061     0.65166     0.06831
0.027385     0.01017     0.10209   -0.042449    -0.10676     0.50518    0.088448
0.036804     0.02641     0.06831     0.03453      0.1781      0.3405    0.098193
0.036154    0.028034   0.0088706     0.11606     0.32004     0.17225    0.095269
0.026085    0.013093   -0.063886    0.094295     0.32296   0.0056225    0.076106
0.013093  -0.0099683    -0.13145    -0.11033     0.24241    -0.14509    0.048822
0.0036737   -0.027508    -0.17822    -0.47639     0.15309    -0.26851    0.022512
0.0036737   -0.030431    -0.19251    -0.90709     0.10696    -0.36531   0.0049729
0.013093   -0.017114     -0.1714     -1.3017     0.11703     -0.4569  -0.0021729
0.024461   0.0043233    -0.11553     -1.5733     0.15926    -0.56117  -0.0015233
0.031282    0.029983   -0.028482     -1.6139     0.19921    -0.68784   0.0023744
0.031607    0.055643    0.080978     -1.3225      0.2044    -0.84018   0.0033489
0.022512    0.080003     0.19141    -0.71642     0.16088     -1.0113  -0.0011985
0.0069217    0.095269     0.27391    0.020239    0.064737     -1.1861  -0.0067202
-0.0080194    0.097218     0.30347     0.62081   -0.085324     -1.3482   -0.014516
-0.018088    0.087149     0.27456     0.91768    -0.28833     -1.4784   -0.030756
-0.023935     0.06961     0.20538     0.90599    -0.53616     -1.5567   -0.061937
-0.03173    0.044599     0.11995     0.70428    -0.79405     -1.5638    -0.10221
-0.046347     0.01829    0.036154     0.46555     -1.0032     -1.4761    -0.13892
-0.061613  -0.0018481   -0.033354     0.29113      -1.115     -1.2796    -0.15711
-0.067459   -0.012892   -0.084674     0.19856     -1.0961    -0.98926    -0.15093
-0.059014   -0.011592    -0.12105     0.15438    -0.95451    -0.64237    -0.11715
-0.035953  0.00042559    -0.15483     0.12613    -0.73689    -0.29677   -0.069083
-0.0037969     0.01829    -0.18829     0.10924     -0.5079  -0.0041217   -0.024585
0.027709    0.033231    -0.21265     0.11638    -0.32958     0.20473   0.0085458
0.051096    0.039402    -0.21687      0.1625    -0.23246     0.33011    0.029658
0.061814    0.037778    -0.19608     0.24695     -0.2081     0.39604    0.039727
0.058241    0.030308    -0.15711     0.34212    -0.21849     0.44249    0.038103
0.046223    0.022512    -0.10936     0.40773    -0.20031     0.49706    0.030957
0.033881    0.014392   -0.065835      0.4178   -0.095393     0.56039    0.022512
0.024461   0.0052977    -0.03173     0.37038     0.11248     0.61788    0.015042
0.021538  -0.0044465   -0.011267     0.28528      0.3811     0.64842     0.01017
0.022512   -0.012567  -0.0054209     0.18881     0.63737      0.6416    0.011469
0.024786   -0.015815   -0.010618     0.10501     0.82349     0.60684    0.017965
0.025111   -0.012242   -0.021661    0.029333     0.91281     0.56039    0.027385
0.026085  -0.0047713   -0.034654   -0.056091     0.91378     0.51362    0.034206
0.025436  0.00042559   -0.046671    -0.16393     0.85012     0.46328    0.033231
0.021538  -0.0018481   -0.055116     -0.2945     0.75495     0.40481     0.02706
0.010495   -0.008669   -0.059989    -0.43157     0.65556       0.334    0.022188
-0.0050961   -0.018413   -0.057715    -0.54817     0.56299     0.24923    0.020564
-0.020687   -0.026858   -0.050244     -0.6271     0.47594     0.16218     0.01764
-0.036278   -0.030756   -0.040175    -0.66121     0.38565    0.079354   0.0085458
-0.052843    -0.03303   -0.032055     -0.6375     0.29113    0.011469  -0.0067202
-0.065835   -0.034654   -0.022311    -0.54493     0.20018   -0.030756   -0.019388
-0.068758   -0.032055  -0.0073698    -0.37895     0.13002   -0.043748   -0.026858
-0.059339   -0.021337    0.011469    -0.15581    0.089423   -0.035303   -0.029457
-0.039201  -0.0044465    0.033881     0.09462    0.076106  -0.0099683   -0.030106
-0.013541    0.010819    0.053369     0.34212     0.07773    0.018615   -0.030431
0.011794    0.016666    0.059865     0.56072    0.076755    0.032906   -0.034654
0.030633    0.010819    0.052395     0.72832    0.060515    0.022837   -0.042124
0.039402  -0.0031473    0.038103     0.82674    0.029009  -0.0037969   -0.054467
0.036479   -0.019063    0.020239     0.85012  -0.0080194   -0.034329   -0.069408
0.025761   -0.031081 -0.00054884      0.8092   -0.036278   -0.057715     -0.0837
0.011469   -0.039201   -0.027183     0.72052   -0.043423   -0.066485   -0.093769
-0.0060706   -0.043099   -0.061613     0.60717   -0.029132   -0.070058    -0.09929
-0.018738   -0.046347   -0.098641     0.48959  -0.0057458   -0.078503    -0.10091
-0.02426   -0.047971    -0.13469     0.38078    0.010495    -0.09117   -0.096042
-0.021661   -0.049595    -0.16847     0.28821    0.008221   -0.096367   -0.079802
-0.013866   -0.052843    -0.19998      0.2096  -0.0076946   -0.080776   -0.047971
-0.0044465   -0.058689    -0.22564     0.13944   -0.030431   -0.042124  -0.0028225
0.003024   -0.065186    -0.23084    0.075781    -0.06551   0.0065969    0.047523
0.0052977   -0.072981    -0.20323    0.028034    -0.11586    0.041027    0.090072
-0.0011985   -0.082725    -0.14671   0.0095202    -0.17302    0.040377     0.11346
-0.01484   -0.092469   -0.079477    0.025761    -0.21785  -0.0031473     0.11508
-0.035953    -0.10319   -0.026209    0.071558    -0.23279   -0.075255     0.10047
-0.05739    -0.11326 -0.00087364      0.1349    -0.20713    -0.14964    0.083251
-0.072331    -0.11618    0.013093     0.19336    -0.14574    -0.19868    0.070909
-0.073306    -0.10676    0.039727     0.20993   -0.065835    -0.20778    0.070909
-0.066485   -0.086948    0.082602     0.13782    0.020564    -0.18082    0.078704
-0.062262   -0.064211     0.12288   -0.043099    0.097218    -0.13502    0.082277
-0.067784   -0.041799     0.14691    -0.30067     0.15373   -0.089871    0.079029
-0.076554   -0.020362     0.16185    -0.56864     0.19628   -0.043748    0.075131
-0.080776   0.0056225     0.19044    -0.76417     0.24111    0.011144    0.079679
-0.071357    0.039402     0.24566    -0.82751     0.29438    0.076755    0.089098
-0.050244    0.075131     0.31581    -0.74046      0.3457     0.13814    0.092671
-0.02361     0.10371     0.37623    -0.53128      0.3746      0.1755    0.081952
-0.0041217     0.11671     0.40579     -0.2591     0.36681     0.17452    0.050446
-0.0037969     0.11054     0.39734   0.0059473     0.32556     0.13912 -0.00022403
-0.022636    0.088448     0.35771      0.2044     0.26872      0.0865   -0.061613
-0.048945    0.058566     0.29827     0.30932     0.21772     0.04395    -0.11651
-0.068109    0.030633     0.22747     0.32166      0.1781    0.040377    -0.14736
-0.070058   0.0069217     0.14172     0.25637     0.14172    0.095594    -0.14476
-0.053168   -0.013541    0.033556     0.14107    0.092996     0.21382    -0.10546
-0.024585    -0.03238    -0.10384   0.0095202    0.012443     0.37525   -0.039851
0.0062721   -0.051219    -0.26527    -0.13372    -0.11293     0.54805    0.032257
0.031607   -0.070707    -0.42117    -0.31659    -0.29385     0.69649    0.093645
0.047198   -0.086298    -0.52966     -0.5459    -0.53616     0.78808     0.13262
0.053369   -0.090196    -0.54947    -0.75832    -0.81192     0.80855     0.15016
0.05272   -0.080127    -0.46827    -0.87298     -1.0451     0.75918     0.15373
0.053044   -0.059989    -0.31399    -0.88695     -1.1549     0.64939     0.14691
0.059216   -0.035953    -0.14022    -0.87655     -1.0864     0.49771     0.13132
0.067986   -0.017439  -0.0015233    -0.90059     -0.8457     0.32523     0.10599
0.075131  -0.0060706    0.079679    -0.94509    -0.49036     0.15114    0.071234
0.079029   0.0036737     0.11021    -0.93729    -0.10741  -0.0037969    0.032257
0.081952     0.01764     0.10859    -0.79893     0.20473     -0.1243  -0.0031473
0.080003    0.033231    0.092021    -0.49036     0.37265    -0.21232    -0.03238
0.070584    0.048822    0.078379   -0.026209     0.37493    -0.28703   -0.052843
0.054668    0.064413    0.079354     0.52174     0.24306    -0.36563   -0.060313
0.040702    0.080003    0.096893      1.0479    0.053044    -0.45073   -0.054792
0.033231    0.093321     0.12418      1.4621   -0.095717    -0.53388   -0.038876
0.032257     0.10436     0.14756      1.6946    -0.10871    -0.60599   -0.016789
0.03453     0.10956     0.15341      1.7131    0.048822    -0.65926   0.0059473
0.037129     0.10696     0.13555      1.5481     0.31711    -0.69044    0.016666
0.03583    0.098842     0.10047      1.2656     0.54675    -0.70148   0.0065969
0.028034    0.087149    0.054993     0.93685     0.52824    -0.69791   -0.022961
0.014068    0.071883   0.0049729     0.61626    0.063438    -0.68622   -0.063886
-0.0067202    0.053369    -0.04862      0.3418    -0.84732    -0.67355    -0.10676
-0.028807    0.033231   -0.099615     0.13749     -1.9338    -0.65698    -0.14216
-0.047646     0.01829    -0.14087    0.012119      -2.839    -0.62385    -0.15905
-0.058365    0.011794    -0.16295    -0.04927     -3.2912    -0.56441    -0.15613
-0.059664     0.01017    -0.16782   -0.071357     -3.1993    -0.48094    -0.13664
-0.055441    0.009845     -0.1623   -0.081751     -2.6464    -0.38122    -0.10871
-0.046671   0.0069217    -0.15483   -0.097991     -1.8315    -0.27826   -0.081751
-0.038227   0.0039985    -0.14834    -0.12138    -0.97172    -0.18277   -0.058689
-0.033679   0.0020496    -0.14216    -0.14866    -0.23733    -0.10124   -0.039201
-0.03173  0.00010078    -0.13794    -0.17854      0.2921   -0.035953    -0.02361
-0.033354  -0.0018481    -0.13437     -0.2042     0.61788    0.010495   -0.014191
-0.041475  -0.0073698    -0.13015    -0.22012     0.79003    0.037778   -0.008669
-0.054792   -0.020687    -0.12885    -0.22369     0.86344    0.038103  -0.0083442
-0.071032   -0.039201    -0.13145    -0.21525     0.88065    0.011469    -0.01484
-0.081101    -0.05804    -0.13242    -0.19381     0.86994   -0.031406   -0.029457
-0.082725   -0.070382     -0.1217    -0.16035     0.84622   -0.076554   -0.044723
-0.080776   -0.072331   -0.097666    -0.12333     0.82121    -0.10774   -0.055766
-0.075579   -0.064861   -0.067459   -0.093119     0.80335    -0.11326   -0.056741
-0.070707   -0.050244   -0.040175   -0.069083     0.79653   -0.087922   -0.046996
-0.06551   -0.032705   -0.018088   -0.052843     0.78808   -0.034654   -0.029132
-0.061613   -0.016789  -0.0015233   -0.044398     0.75268    0.030633   -0.011917
-0.055766  -0.0034721    0.010495   -0.045372     0.68187    0.091372   0.0020496
-0.046671   0.0065969     0.01894   -0.054467     0.59417     0.13132    0.010819
-0.037902    0.014392    0.023812    -0.06551     0.51687     0.14561    0.016016
-0.033354    0.019914    0.029658   -0.072656     0.46068     0.14139    0.015042
-0.034978     0.01894    0.037454   -0.075579     0.41423     0.12743     0.01017
-0.039851    0.010819    0.047847   -0.075904     0.36096     0.11768    0.003024
-0.044073  -0.0024977    0.052395   -0.076229     0.28723     0.11833  -0.0050961
-0.044723   -0.013866    0.049796   -0.083375     0.19531      0.1258   -0.011917
-0.042774   -0.018738    0.041027    -0.10416     0.11833     0.13295   -0.017764
-0.038876   -0.017764    0.031607    -0.13372    0.094295     0.13587   -0.018738
-0.031081   -0.012892    0.023812    -0.16165     0.15016     0.13165   -0.012242
-0.022636   -0.008669    0.020564    -0.17562     0.28333     0.11736  -0.0015233
-0.012567   -0.007045    0.020239    -0.17075      0.4714    0.096244   0.0085458
-0.0063954   -0.008669    0.013418    -0.15093     0.70039    0.070584    0.014392
-0.0037969   -0.010293  -0.0060706    -0.12463      0.9677    0.049796    0.015042
-0.0031473  -0.0089938   -0.032055   -0.096692      1.2565    0.040052   0.0088706
-0.0034721  -0.0021729    -0.05804   -0.065835      1.5098    0.043625  0.00010078
-0.0034721   0.0056225   -0.076229   -0.030106      1.6352    0.059541  -0.0089938
-0.0028225    0.013743   -0.085648   0.0039985      1.5644     0.07708   -0.017439
0.00075039    0.016991   -0.085648    0.030633      1.3032    0.087474   -0.021337
0.009845    0.011794   -0.077853    0.048497     0.92385    0.087149   -0.018088
0.021863  0.00042559   -0.062912    0.054344     0.53701    0.079679   -0.011917
0.032582   -0.011592   -0.044723    0.047523     0.23364    0.070259  -0.0073698
0.038753   -0.018738   -0.023285     0.03453    0.037778    0.059541  -0.0089938
0.039727   -0.018738  -0.0054209    0.020239    -0.10286    0.048822   -0.013541
0.039078   -0.012567   0.0062721   0.0062721    -0.26364    0.040377   -0.019063
0.036479  -0.0041217    0.013743   -0.011592    -0.49328    0.033556   -0.026209
0.033231   0.0023744    0.018615   -0.039526    -0.77164    0.028359   -0.037902
0.026085   0.0026992    0.022512   -0.082076     -1.0224    0.022837   -0.054467
0.014392  -0.0047713    0.027385    -0.13697     -1.1608    0.015367   -0.069733
0.0010752    -0.01549    0.030308     -0.2042       -1.14   0.0043233   -0.075904
-0.011267   -0.028482    0.031932    -0.28605     -0.9753   -0.015165   -0.070707
-0.023935   -0.042449    0.026085    -0.39389    -0.72487   -0.047646   -0.059339
-0.035953    -0.05739    0.013093    -0.56312    -0.45593   -0.092145    -0.04992
-0.04992   -0.067784  -0.0015233    -0.82004    -0.21622    -0.13892   -0.045047
-0.060963   -0.072981   -0.013866     -1.1448   -0.022311     -0.1727   -0.040175
-0.065186   -0.073955   -0.018413     -1.4885      0.1336    -0.17594   -0.022961
-0.061937   -0.068434   -0.015165      -1.813      0.2606    -0.13697    0.012119
-0.046996   -0.057065  -0.0089938     -2.0878     0.36876   -0.058689    0.060515
-0.019388   -0.038876  0.00042559     -2.2463      0.4636     0.03518     0.11183
0.018615   -0.012242    0.020888     -2.1573     0.53538     0.12158     0.15049
0.057592     0.01894    0.056292     -1.6795     0.56786     0.18167     0.16868
0.085525     0.05142    0.097868    -0.76547      0.5513     0.20311      0.1651
0.10047    0.083576      0.1284     0.45158     0.49153     0.19401     0.14561
0.10631     0.11151     0.13457      1.6394     0.40579     0.17062      0.1219
0.11411      0.1323     0.11346      2.5404     0.30477     0.14626     0.10501
0.1245     0.14367    0.072858      3.0345     0.19499       0.131    0.097543
0.13652     0.14496    0.029983      3.1381     0.11248      0.1219    0.094945
0.14204     0.13262 -0.00087364      2.9572    0.083901     0.10989    0.094295
0.13814     0.10664   -0.012892      2.6255    0.096893    0.087474    0.088773
0.1258     0.07708  -0.0063954      2.2598     0.09397    0.059541    0.073507
0.11216    0.054993    0.014392       1.933  -0.0041217    0.032582    0.049147
0.10501    0.042651    0.040702       1.666    -0.26916    0.014392    0.022188
0.10404    0.039078    0.063438      1.4432    -0.69531    0.015367   0.0026992
0.10242    0.037454    0.076431      1.2347     -1.1783      0.0433  -0.0018481
0.089423    0.035505    0.081627      1.0193     -1.5635    0.093321   0.0056225
0.067011    0.028684    0.079679     0.79361      -1.725     0.14854    0.016341
0.040052    0.016666    0.073507     0.56299     -1.6171     0.18816    0.023162
0.016991   0.0052977    0.066037     0.34147     -1.2891     0.19531    0.020888
0.0049729  0.00042559    0.058891     0.14399    -0.85317     0.16705    0.013418
0.0010752   0.0017248    0.050771   -0.015165    -0.42572     0.11573      0.0014
0.0010752   0.0049729    0.042001    -0.13892   -0.088896    0.054993   -0.011592
0.0010752   0.0075714    0.033881    -0.23636     0.12028  -0.0018481   -0.020037
0.003024   0.0059473    0.027385    -0.30977        0.22   -0.046347   -0.019388
0.008221   0.0010752    0.023162    -0.35426     0.24988   -0.077853  -0.0067202
0.014068  -0.0067202    0.021538    -0.37538      0.2463    -0.10124    0.010819
0.01764   -0.014516    0.023812    -0.38285     0.22877    -0.11261    0.027709
0.015042   -0.020362    0.029658     -0.3822     0.20863    -0.10709    0.040377
0.0046481   -0.025884    0.033556      -0.377     0.18849   -0.086948    0.044599
-0.01484   -0.028157    0.033556    -0.36596     0.17387   -0.066485    0.039727
-0.034978   -0.026209    0.029009    -0.34939     0.16673   -0.060313    0.028359
-0.051544   -0.023285    0.020888    -0.32958     0.16185   -0.081101    0.014392
-0.063561   -0.025234   0.0091954    -0.32503     0.14367     -0.1334    0.003024
-0.07428   -0.033679   -0.011592    -0.35816     0.10209    -0.21752  -0.0054209
-0.089221   -0.047646   -0.038551    -0.42962    0.044275    -0.31756   -0.013216
-0.10221    -0.06551   -0.064536    -0.51732   -0.010943     -0.4137   -0.025559
-0.10546   -0.078178   -0.075255    -0.58748   -0.047646    -0.48581   -0.040175
-0.096367   -0.076554   -0.062587    -0.61638   -0.065186    -0.52609   -0.053817
-0.079152   -0.059664   -0.032705    -0.60534   -0.065835    -0.52869   -0.060963
-0.059014   -0.035953   0.0049729    -0.56344   -0.050894    -0.47087   -0.056741
-0.044723   -0.014516     0.03583     -0.5066   -0.020037    -0.32276   -0.047646
-0.042124  -0.0028225    0.052395    -0.45398    0.024137   -0.080776   -0.040825
-0.04927  -0.0031473    0.053694     -0.4163    0.079354     0.21447   -0.044073
-0.059664   -0.010618    0.044275    -0.39259     0.14139      0.5003    -0.05739
-0.064861   -0.018413    0.032257    -0.37668     0.20246     0.71435   -0.074605
-0.059339   -0.023285    0.023162    -0.36563     0.25702     0.81244   -0.088572
-0.044073   -0.020687     0.01894    -0.35621     0.29892     0.78061   -0.096367
-0.023935   -0.011917    0.016016    -0.34777     0.31711     0.63672   -0.093444
-0.00087364  -0.0021729    0.014392    -0.33965     0.30087      0.4152   -0.081101
0.022512   0.0033489    0.014068    -0.33088      0.2489     0.15991   -0.061937
0.042326   0.0033489    0.016016    -0.31366     0.17777   -0.085324   -0.034654
0.051745 -0.00054884    0.017316    -0.28443     0.11054    -0.29255   -0.007045
0.045899  -0.0054209    0.023812     -0.2474     0.06831    -0.45593    0.013743
0.024461   -0.008669    0.036154    -0.21427    0.058241    -0.56571    0.019914
-0.0073698   -0.010293    0.046873    -0.19511    0.073832    -0.60372    0.017965
-0.038876   -0.012567    0.054993    -0.18861    0.095594    -0.56799    0.014068
-0.060313   -0.016464    0.057267    -0.19316     0.10144    -0.48094    0.015367
-0.065835   -0.020687    0.045899    -0.21232    0.080003    -0.37505    0.027385
-0.059989    -0.02426    0.014392    -0.24708    0.030308    -0.28086    0.052395
-0.047646   -0.028157   -0.034329    -0.29547   -0.035953    -0.22077    0.085525
-0.034654   -0.034004   -0.089546     -0.3429    -0.10546    -0.20648     0.11118
-0.024585   -0.042774    -0.13502     -0.3718    -0.17302    -0.23766     0.11736
-0.017764   -0.049595    -0.16035     -0.3731    -0.23571    -0.29417    0.097543
-0.0093186   -0.049595    -0.16263    -0.34777    -0.28443    -0.34842    0.058241
0.0033489     -0.0405    -0.14996    -0.29872    -0.30814    -0.37862    0.014392
0.014717   -0.026533    -0.13307    -0.22369    -0.29515    -0.36726   -0.021661
0.017965    -0.01484     -0.1204    -0.11975    -0.24773    -0.30717   -0.046347
0.012443   -0.012242    -0.10676   0.0078962      -0.174     -0.2094   -0.062262
0.0023744   -0.019063   -0.085648     0.14042   -0.084024   -0.094093   -0.075579
-0.010943   -0.031081    -0.05804     0.25313    0.010495    0.018615   -0.084024
-0.026209   -0.042449   -0.032705     0.32653    0.098517     0.11248   -0.088572
-0.038551   -0.046996   -0.016789     0.35609      0.1755     0.17777   -0.089221
-0.043748   -0.044398    -0.01484     0.34829     0.24078      0.2135   -0.084999
-0.043423   -0.037252   -0.026533     0.31257     0.29405     0.22324   -0.073955
-0.043748   -0.028482   -0.050569     0.26612     0.32069      0.2174   -0.058689
-0.044723   -0.020362   -0.081101     0.22747     0.29697     0.20538   -0.046022
-0.046347    -0.01614    -0.11131     0.20148     0.21642     0.18881   -0.041799
-0.045372   -0.014516    -0.13664     0.17842    0.093645     0.16803   -0.045697
-0.041799   -0.014516    -0.15288     0.14789   -0.054792     0.14529   -0.053168
-0.034654   -0.012892    -0.15418     0.11606     -0.2055      0.1349   -0.060313
-0.027183   -0.007045    -0.13404    0.092346     -0.3286     0.16088    -0.06551
-0.018413   0.0078962   -0.089871    0.072533    -0.39129      0.2476    -0.06551
-0.010618    0.028684   -0.025234    0.047523    -0.39389     0.39377   -0.056741
0.00075039    0.050771    0.048822    0.014717    -0.37245     0.56721   -0.042124
0.017316    0.067336     0.11378   -0.021986    -0.40071     0.71987   -0.027508
0.032906    0.073182     0.15341   -0.073631    -0.54168     0.82349   -0.013541
0.039727    0.067661     0.15211    -0.14996    -0.78528     0.86571   0.0026992
0.033556    0.055643     0.11378    -0.24091     -1.0302     0.84622    0.022837
0.021213    0.042651    0.050446    -0.32276     -1.1608     0.77249    0.044924
0.0072465    0.031282   -0.026858    -0.38155     -1.1127     0.66108    0.057917
-0.0050961    0.021863    -0.10774    -0.41565    -0.89864     0.53506    0.059216
-0.011267    0.016666    -0.17919    -0.42117    -0.58325     0.42332    0.053369
-0.0054209    0.014392    -0.22174    -0.38707     -0.2474     0.35609    0.053369
0.011144    0.019589    -0.22044    -0.29385    0.030633     0.33855    0.069934
0.023812    0.031932     -0.1727    -0.13437     0.20278     0.33985    0.095594
0.025111    0.045249   -0.097666    0.071234     0.25962     0.30932     0.11508
0.011144    0.058241   -0.023935     0.27489     0.22552     0.20473     0.11866
-0.011917    0.063113    0.026085     0.42527     0.13912    0.017965     0.10014
-0.036278    0.056617    0.045249     0.49088    0.042326    -0.21492    0.065387
-0.051219    0.041676    0.036804     0.47107   -0.031406    -0.44261    0.026735
-0.050569    0.026085    0.011144     0.39247   -0.069733    -0.62905  -0.0080194
-0.035303    0.013093   -0.019712     0.29535   -0.071682    -0.77489   -0.034329
-0.016789   0.0078962   -0.042124      0.2148   -0.046022    -0.89409   -0.052843
-0.0044465   0.0023744   -0.043748     0.16705  -0.0044465    -0.99186   -0.062587
-0.0015233  -0.0050961   -0.021661     0.13717    0.036804     -1.0679   -0.067134
-0.0041217    -0.01614    0.014068     0.07708    0.065712     -1.1195   -0.070382
-0.008669   -0.027183    0.051745   -0.055441    0.081303     -1.1364   -0.070382
-0.012242   -0.034978    0.079029     -0.2487    0.092346     -1.1163    -0.06616
-0.013541   -0.036278    0.092021    -0.45625     0.10794     -1.0659   -0.057715
-0.011917   -0.032055    0.096569    -0.64984     0.13295     -1.0032    -0.04992
-0.011267    -0.02426    0.095594    -0.81711     0.17582    -0.94671   -0.050569
-0.010293   -0.013541     0.10112    -0.89539     0.23883    -0.91098   -0.060313
-0.0060706  0.00010078     0.12288    -0.75703     0.31776     -0.8902    -0.07493
0.00010078    0.015692     0.15796    -0.33023     0.39377    -0.86389   -0.086623
0.0078962    0.027709     0.18849     0.29015     0.44119    -0.81224   -0.088247
0.013093    0.029983     0.19011     0.88455     0.43957    -0.73234   -0.085324
0.014392    0.025111     0.15146      1.2769     0.38954    -0.63132   -0.084674
0.0088706    0.015692    0.078055      1.4016     0.31354    -0.52024   -0.088247
-0.00087364   0.0039985   -0.011592       1.298     0.24143    -0.39974   -0.091495
-0.0047713  -0.0044465   -0.095717      1.0664     0.19076    -0.26592   -0.088896
-0.00087364  -0.0089938     -0.1623      0.8053     0.16185    -0.12398   -0.081426
0.0056225   -0.010293    -0.20713     0.57079     0.13555   0.0085458   -0.072981
0.0078962    -0.01549    -0.23311     0.36843    0.090722     0.11183   -0.063561
0.0033489   -0.028807    -0.23831     0.18816    0.030308     0.18687    -0.04992
-0.008669   -0.045372    -0.21525    0.029333   -0.026209     0.24663   -0.027183
-0.025234   -0.057065    -0.16165   -0.097017   -0.064211     0.30347   0.0033489
-0.043748   -0.060313   -0.085648    -0.17335   -0.076879     0.36389     0.03583
-0.058365   -0.055116   0.0026992    -0.19219   -0.063886      0.4243    0.063113
-0.065186   -0.042449    0.090072    -0.15841   -0.030756     0.47335    0.080653
-0.064861   -0.025884      0.1625   -0.076879    0.013743     0.49576      0.0865
-0.060638  -0.0067202      0.2083    0.038428    0.054993     0.48504     0.07773
-0.05739   0.0078962     0.21805     0.15796    0.089423     0.44606    0.053369
-0.054467    0.014392     0.19109     0.24046     0.11476     0.39344     0.01829
-0.047646    0.012119     0.13262      0.2593     0.13132     0.34764   -0.017764
-0.034654   0.0065969    0.056292     0.22584     0.14399     0.32361   -0.045047
-0.017764   0.0023744   -0.020037     0.16868     0.15796     0.32393   -0.059664
-0.00022403   0.0017248   -0.086298    0.098193      0.1703     0.33628   -0.063561
0.015367    0.003024    -0.13989   0.0033489     0.17842     0.34375   -0.061613
0.026735   0.0046481    -0.18049    -0.10319     0.19109     0.33855   -0.061937
0.03453   0.0056225    -0.20778    -0.18017     0.21252     0.33465    -0.06681
0.039078   0.0043233    -0.22499    -0.22629     0.24338     0.35934   -0.072331
0.042651   0.0017248    -0.23766    -0.27404     0.27684     0.43047   -0.068758
0.045574  -0.0024977    -0.25455    -0.35264     0.30087     0.53798   -0.049595
0.046223   -0.010293    -0.27306     -0.4634      0.3012     0.64387   -0.017439
0.044924   -0.015815    -0.27728    -0.58098     0.26904     0.71143    0.022188
0.049796   -0.012242    -0.25033    -0.66575      0.2109     0.73482    0.064413
0.066037   0.0065969    -0.18634    -0.66673     0.14204     0.74034     0.10826
0.092671    0.036154   -0.092469     -0.5524    0.081952     0.76242     0.15406
0.1232     0.06896    0.013093     -0.3299    0.040377     0.81147     0.19628
0.14626    0.097543     0.10956   -0.040825    0.016341     0.86799     0.22877
0.15049     0.11313     0.17712     0.25443 -0.00022403     0.89592     0.24241
0.1336     0.11151      0.2057     0.49771   -0.024585     0.87026     0.23039
0.10112    0.092996     0.19726     0.65134   -0.060313     0.79263     0.19401
0.059865    0.063113     0.17095     0.70656    -0.10449     0.68415     0.14432
0.01894    0.031282     0.14626     0.68057    -0.15873     0.56137    0.093645
-0.013866   0.0075714     0.13847     0.60457     -0.2133     0.43307    0.054019
-0.036278  -0.0015233     0.14854     0.50842    -0.22954     0.30282    0.033231
-0.046022   0.0039985     0.16998     0.41683    -0.16458     0.17777    0.031282
-0.044723    0.017965     0.19271       0.347   0.0020496     0.06084    0.036804
-0.038227    0.036479     0.21545     0.30185      0.2567   -0.046347     0.03583
-0.030756    0.051745     0.23851     0.27781     0.55877    -0.14444    0.018615
-0.026858    0.057267     0.26579     0.26449     0.85402    -0.23116   -0.015165
-0.027833    0.054019     0.29535     0.24923      1.0996    -0.29742   -0.056416
-0.030431    0.047847     0.32231     0.22292      1.2412     -0.3312   -0.093769
-0.031081    0.038753     0.32686      0.1768      1.1743    -0.32471    -0.11358
-0.027833    0.024461     0.27879     0.10501     0.75625    -0.28086    -0.10774
-0.026533   0.0020496     0.14529   0.0085458   -0.038227     -0.2159   -0.079152
-0.033354   -0.029132   -0.082725    -0.10286    -0.97757    -0.14866     -0.0405
-0.043748   -0.065835    -0.36336    -0.21427     -1.7227   -0.094093  -0.0083442
-0.052843    -0.10026    -0.61736    -0.31334     -2.0423   -0.066485    0.008221
-0.062262      -0.123     -0.7619    -0.38317     -1.8877   -0.071357   0.0085458
-0.069733    -0.13372     -0.7541    -0.41468     -1.3738   -0.094093  -0.0034721
-0.069083     -0.1308    -0.60567    -0.40818    -0.68687    -0.10871   -0.020037
-0.062262    -0.11488    -0.37668    -0.37408   -0.013541    -0.10189    -0.03173
-0.054792   -0.094743    -0.14769    -0.32633     0.48244   -0.068758   -0.035628
-0.050244   -0.071357    0.017316    -0.28216     0.67115   -0.026533   -0.037252
-0.044723   -0.049595    0.097868    -0.25325     0.47432   0.0010752   -0.038227
-0.034978    -0.03238     0.10859     -0.2435   -0.071032      0.0014   -0.042449
-0.022961   -0.021661    0.078055    -0.24643    -0.77521   -0.027833   -0.046022
-0.014191    -0.01614    0.031932    -0.25617      -1.382   -0.074605   -0.045697
-0.012567   -0.013866  -0.0076946    -0.26754     -1.6964    -0.12073   -0.036927
-0.018088    -0.01484   -0.031406    -0.27274      -1.647    -0.15288   -0.017764
-0.028157   -0.016464   -0.041799    -0.26527       -1.29    -0.18049   0.0065969
-0.037902    -0.01549   -0.038876     -0.2435    -0.76222    -0.22856     0.02641
-0.043423   -0.007045   -0.029132    -0.21167    -0.20778    -0.32178    0.038103
-0.044073   0.0043233   -0.016464    -0.18439     0.26774    -0.46145    0.039402
-0.039526    0.014392   -0.007045    -0.18471     0.61399      -0.631    0.032582
-0.028807    0.019914  -0.0028225    -0.23051     0.82966     -0.8064    0.022837
-0.012242    0.016666  -0.0031473     -0.3325     0.94139    -0.95418    0.012443
0.0043233   0.0088706   -0.008669    -0.48646      0.9755     -1.0438  -0.0015233
0.011469  -0.0031473   -0.023285     -0.6651     0.95763     -1.0607   -0.017764
0.0052977   -0.015165    -0.04927    -0.82913     0.89754     -1.0036   -0.038551
-0.013866   -0.028807   -0.078827    -0.94314     0.80173     -0.8811   -0.059664
-0.037252   -0.037902   -0.095393    -0.96945     0.67083     -0.7122   -0.068434
-0.04927   -0.035303   -0.081426    -0.85869      0.5094    -0.51699   -0.054792
-0.037902   -0.013541   -0.027833    -0.56961     0.33238    -0.31821   -0.021986
-0.0067202    0.021863    0.057267    -0.11683     0.15114    -0.14022    0.017316
0.033231    0.059541     0.14561     0.41943   -0.032055  -0.0050961    0.050771
0.065387    0.091372     0.20993     0.92028    -0.22142    0.075456    0.066686
0.083901     0.11183     0.23429      1.2646    -0.44586     0.10501    0.065387
0.085525     0.11703     0.22065      1.3838    -0.74858     0.09462    0.054344
0.073182     0.10729     0.18394       1.285     -1.1302    0.065062    0.041676
0.05272      0.0865      0.1362      1.0333     -1.5275     0.03518    0.029009
0.029658    0.059865    0.091372     0.72247     -1.8386    0.017965    0.015692
0.0078962    0.037129    0.059541     0.43372     -1.9692    0.021213 -0.00054884
-0.011917    0.021538    0.041676     0.21902     -1.8565    0.042975   -0.021986
-0.028482    0.010819    0.036804    0.092021     -1.4826    0.077405   -0.043423
-0.040825    0.003024    0.041351    0.036804    -0.90156     0.11638   -0.059664
-0.04927  -0.0015233    0.051745    0.020888    -0.22532     0.15503   -0.068109
-0.052193  -0.0044465    0.058566    0.017965     0.40351     0.19401   -0.070058
-0.050569  -0.0063954    0.058891   0.0078962     0.87058     0.23136    -0.06551
-0.047646  -0.0063954    0.054019   -0.013216       1.135     0.25995   -0.059339
-0.043748  -0.0057458    0.045249     -0.0405      1.2152     0.26969   -0.059339
-0.038551  -0.0057458    0.037129   -0.067134      1.1629     0.26644   -0.063561
-0.030106   -0.007045    0.033231   -0.087272      1.0434     0.26644    -0.06616
-0.022961  -0.0093186    0.036154    -0.10059     0.91833     0.27164    -0.06551
-0.018088   -0.011592    0.045249    -0.10384     0.81537     0.26839   -0.064211
-0.01549   -0.012567    0.059541   -0.097666     0.74196     0.23818   -0.059014
-0.017114   -0.010618    0.070259   -0.088247     0.68382     0.17062   -0.053492
-0.020037  -0.0073698    0.071883   -0.075904     0.61983    0.070909   -0.045047
-0.020362  -0.0057458    0.067986   -0.062912     0.52109   -0.046022    -0.03303
-0.017114   -0.008669     0.06084   -0.049595     0.37265    -0.16653   -0.021012
-0.010293   -0.014516    0.054668   -0.034654     0.17615    -0.27793  -0.0076946
-0.0018481   -0.018088    0.048822   -0.022961   -0.044398    -0.37115   0.0039985
0.0049729   -0.018413    0.042975   -0.015165     -0.2513    -0.44294    0.017965
0.008221   -0.013541    0.039402  -0.0080194    -0.40461    -0.49913    0.030308
0.0095202  -0.0080194    0.041027   0.0020496    -0.47672    -0.54785    0.036154
0.010819  -0.0063954    0.042975     0.01894    -0.45625    -0.58845    0.036804
0.011794   -0.008669    0.041351    0.039078    -0.36303    -0.60534     0.03518
0.017965    -0.01484    0.032257    0.055318    -0.22759    -0.57546    0.038103
0.028034   -0.023285    0.013418    0.059541   -0.079477    -0.48646    0.046548
0.032257   -0.030106  -0.0083442      0.0433    0.065062    -0.35459     0.06019
0.028684   -0.036602   -0.022636    0.011144     0.20246    -0.20453    0.075131
0.019589   -0.042124    -0.02361   -0.029457     0.33238   -0.064536    0.084551
0.0072465   -0.045047   -0.013216   -0.073955     0.45223    0.050121    0.083901
-0.0047713   -0.043748 -0.00087364    -0.13892     0.55422      0.1323     0.06831
-0.014191   -0.040825   0.0069217    -0.27469     0.61431     0.18946    0.042001
-0.021337   -0.042124   0.0046481    -0.50822     0.59385     0.23429    0.016341
-0.026209   -0.049595   -0.010293    -0.81809     0.47594     0.27456 -0.00022403
-0.028482    -0.05739   -0.036602     -1.1556      0.2908      0.3051  -0.0047713
-0.027183   -0.058365   -0.070382     -1.4774     0.11443     0.32198 -0.00022403
-0.022311   -0.046996    -0.10319     -1.7402    0.030308     0.32393   0.0091954
-0.014516   -0.027833    -0.13112     -1.8549    0.075781     0.31257    0.021213
-0.0044465   -0.007045    -0.15418     -1.6759     0.22974      0.2908    0.028684
0.011144    0.012443    -0.16425     -1.0948     0.43632     0.25962    0.025436
0.033556    0.031282    -0.15093    -0.15451     0.63023     0.22584    0.017965
0.054668    0.048497    -0.10871     0.91313     0.75983     0.19563    0.009845
0.064088    0.060515   -0.047971      1.8135     0.78516     0.17387   0.0056225
0.061814    0.065387    0.014717      2.3715     0.70071     0.16445   0.0026992
0.05207    0.059216    0.066686       2.545     0.53473     0.17355  -0.0011985
0.037454    0.042651     0.10112      2.3972      0.3353     0.20278  -0.0028225
0.01764    0.020239     0.11378      2.0441     0.14854     0.24013  -0.0018481
-0.0057458  -0.0024977     0.10664      1.5949   0.0020496     0.26937  -0.0024977
-0.026533    -0.02426    0.090397      1.1304    -0.09182     0.27749  -0.0073698
-0.0405   -0.039851    0.077405     0.70818    -0.13502     0.25735   -0.015815
-0.045372   -0.045047     0.07773     0.36713    -0.13762     0.20863   -0.021986
-0.042124   -0.038227    0.091696     0.12743    -0.12398     0.13782   -0.022961
-0.03173   -0.023285     0.10891   -0.014191    -0.11975     0.05272   -0.023285
-0.018738  -0.0096434     0.10371   -0.080776    -0.15451   -0.034004   -0.027183
-0.0076946 -0.00054884    0.053044    -0.10936    -0.25942    -0.11163   -0.034004
-0.0024977   0.0023744   -0.036278    -0.13015    -0.45008    -0.17367   -0.038551
-0.0047713   0.0020496    -0.13924    -0.17042    -0.69239    -0.20778    -0.04115
-0.0093186 -0.00022403    -0.21947    -0.23019    -0.90579    -0.19901   -0.039526
-0.0080194  -0.0041217    -0.25422     -0.2906     -1.0097    -0.13762   -0.028807
-0.0015233  -0.0093186    -0.24156    -0.32731      -0.974    -0.03303  -0.0080194
0.0059473   -0.015815    -0.19641    -0.33153      -0.834    0.088773    0.013093
0.0091954   -0.020362    -0.13794    -0.28735    -0.64009     0.19921     0.02706
0.011144    -0.01614   -0.081751    -0.17627    -0.43709     0.27554    0.033231
0.016341 -0.00022403   -0.035303  -0.0011985    -0.25422     0.31516    0.036154
0.024461    0.022188  -0.0050961     0.19271    -0.11001     0.32686    0.041027
0.030957    0.041676   0.0075714     0.34667   -0.013541     0.31322    0.049147
0.031607    0.047847   0.0046481     0.41585    0.026735     0.26677    0.055318
0.02641    0.038428   -0.013866     0.38402   0.0078962     0.19109    0.051096
0.017316    0.022188   -0.042124     0.27132   -0.055116     0.10599    0.037454
0.0085458   0.0095202   -0.068758      0.1232    -0.13307    0.030308    0.018615
0.0023744   0.0049729   -0.079802   -0.019388    -0.19771   -0.026858  0.00075039
-0.0015233   0.0065969   -0.074605    -0.14119    -0.23636   -0.068434  -0.0083442
-0.0041217    0.015692   -0.061613    -0.23896    -0.24968    -0.10124   -0.010618
-0.0057458    0.026085    -0.04992    -0.30977     -0.2448    -0.13632   -0.012567
-0.0073698     0.03453   -0.043748    -0.34972    -0.23928    -0.18212   -0.017114
-0.0096434     0.03453   -0.041799    -0.36238     -0.2526    -0.22889   -0.020687
-0.012567    0.027385   -0.040175    -0.35881    -0.27988    -0.25487   -0.019712
-0.015165     0.01764   -0.034329    -0.35361    -0.29028    -0.24968    -0.01484
-0.018738   0.0088706   -0.028157    -0.35394    -0.23993    -0.22174   -0.011592
-0.020687   0.0017248   -0.026858     -0.3718    -0.10351    -0.18764   -0.014516
-0.019712  -0.0067202    -0.03303    -0.42117     0.10989    -0.15353   -0.023935
-0.01614   -0.014516    -0.04992    -0.50465     0.35869    -0.11261   -0.037252
-0.0099683   -0.023285   -0.078178    -0.61736     0.59482   -0.044723   -0.050894
-0.0031473   -0.034978    -0.11293    -0.73624     0.78419    0.063438   -0.064211
0.00010078   -0.044073    -0.14216    -0.82166     0.91021     0.20603   -0.073306
0.0023744   -0.044073    -0.15613    -0.84537     0.97192     0.35869   -0.075255
0.0059473   -0.035953    -0.14736     -0.8038     0.97452     0.48341    -0.06681
0.014068   -0.024909    -0.11553    -0.69434     0.93327        0.55   -0.045697
0.026085   -0.011917   -0.063561    -0.50368     0.86766     0.55455   -0.014191
0.040052   0.0010752  0.00075039    -0.22304     0.79231      0.5003    0.018615
0.051096    0.013743    0.067661      0.1258     0.71013     0.39799    0.048822
0.054019    0.024461     0.12385     0.47822     0.60814     0.26482    0.070259
0.046548    0.030633     0.16283     0.74878     0.46945     0.11736    0.077405
0.030308    0.030633     0.18134     0.87741     0.28496   -0.032705    0.069934
0.0078962    0.020564      0.1781     0.86182    0.048497    -0.18536     0.05272
-0.013216   0.0036737     0.15991     0.74326    -0.23279    -0.35069    0.038103
-0.029782   -0.014191      0.1349     0.57728    -0.56214    -0.52836    0.033881
-0.038227   -0.027508     0.10924     0.40741    -0.96198    -0.70636    0.033556
-0.042124   -0.035628    0.084226     0.26449     -1.4294    -0.85317    0.026085
-0.043423   -0.039526    0.061165     0.15633     -1.9169    -0.92138   0.0023744
-0.042449     -0.0405    0.039402    0.081303     -2.3408    -0.87915   -0.034654
-0.043099   -0.038876    0.022512     0.03518     -2.5958    -0.73169   -0.079152
-0.046347    -0.03238    0.011144   0.0052977      -2.585    -0.52057     -0.1178
-0.048296    -0.02361   0.0043233   -0.018413     -2.2576     -0.2958    -0.14087
-0.047971   -0.014191  -0.0037969   -0.045697     -1.6515   -0.093769    -0.14281
-0.044073  -0.0060706   -0.019063   -0.084024    -0.90092     0.06831    -0.12592
-0.041799  -0.0044465   -0.039851    -0.12885    -0.17952     0.18362   -0.096692
-0.043423  -0.0099683   -0.061613     -0.1701     0.36973     0.24825   -0.062587
-0.047646   -0.015815   -0.078178    -0.20388     0.69519     0.26255   -0.031406
-0.050569   -0.016789   -0.088572    -0.23181      0.8368     0.23364  -0.0073698
-0.04992   -0.011917   -0.097017     -0.2591     0.87351     0.16088    0.010819
-0.045047  -0.0037969    -0.10546    -0.29158     0.87708    0.043625    0.023487
-0.036602   0.0023744    -0.11586    -0.32731     0.89105   -0.097666    0.033556
-0.026533   0.0059473    -0.12592    -0.35361     0.91833    -0.22824    0.044924
-0.013541   0.0091954    -0.13112    -0.35491      0.9284    -0.32081    0.056617
-0.00054884     0.01017     -0.1282    -0.32341     0.88033     -0.3757    0.065062
0.0075714   0.0078962    -0.12073    -0.25877     0.74294    -0.40656    0.062789
0.0059473   0.0017248    -0.10968     -0.1727     0.51947    -0.43579    0.046223
-0.00087364  -0.0044465   -0.095717   -0.084349     0.25767    -0.47477    0.020564
-0.0047713   -0.008669   -0.084349   -0.016464    0.026085    -0.52901  -0.0050961
-0.0021729  -0.0076946   -0.084024    0.013743    -0.11845    -0.59819   -0.024585
0.0062721  0.00042559   -0.092794    0.011144    -0.17724     -0.6768   -0.037577
0.014392    0.012768    -0.10351   -0.010943    -0.21297    -0.75573   -0.045047
0.016016    0.023487    -0.10676   -0.037252    -0.31431    -0.82361    -0.04927
0.0095202    0.031607   -0.097017   -0.052193    -0.52641    -0.86746   -0.055766
-0.0063954    0.033556   -0.075904   -0.047321    -0.80607    -0.86226    -0.06551
-0.025234    0.033881   -0.045697   -0.025884     -1.0507    -0.78853   -0.076229
-0.041475    0.033556    -0.01484  -0.0021729      -1.165    -0.64009   -0.080776
-0.045372    0.033231   0.0091954    0.008221     -1.1026    -0.43124   -0.071682
-0.034329    0.030308    0.019264   0.0020496    -0.88467    -0.19413   -0.047321
-0.0099683    0.026085    0.017965   -0.010943    -0.58065    0.031932   -0.017439
0.019264     0.01764   0.0078962   -0.022636    -0.26689     0.21805   0.0088706
0.045899   0.0072465  -0.0037969   -0.035303  0.00010078     0.35024    0.027385
0.059216  -0.0015233   -0.017764   -0.048296     0.18784     0.43047    0.032906
0.058241  -0.0050961    -0.03303   -0.046671     0.28821     0.47172    0.024461
0.047523  -0.0021729   -0.038876   -0.008669     0.31419     0.48374   0.0075714
0.031282   0.0069217   -0.020362    0.073507     0.29373     0.47464  -0.0083442
0.013743    0.022188     0.03453     0.17647     0.26092     0.45516    -0.01549
0.00010078    0.038753     0.11768     0.26417     0.23721     0.43664    -0.01614
-0.0083442    0.048497     0.21123     0.30802     0.23006     0.42917   -0.014516
-0.0050961    0.051096     0.28691     0.30737     0.23754     0.44249   -0.013216
0.0065969    0.046873     0.32134     0.27424      0.2541     0.48666  -0.0096434
0.018615     0.03583     0.31484     0.22389     0.27586     0.55877  -0.0044465
0.024461    0.022188     0.27424     0.16868     0.29568     0.64257 -0.00022403
0.021538   0.0072465      0.2109     0.11313     0.31354     0.71305   0.0039985
0.0069217  -0.0083442     0.13684    0.069934     0.33693     0.74683   0.0036737
-0.010943   -0.021986    0.056942    0.053044     0.40026     0.73384  -0.0015233
-0.023935    -0.03173   -0.026209    0.067661     0.53993     0.67765  -0.0099683
-0.027183   -0.038876    -0.11261    0.088124      0.7608     0.59287   -0.016789
-0.021661   -0.042774    -0.19576    0.081952      1.0229      0.5042   -0.013541
-0.014191   -0.047971    -0.26494    0.034206      1.2681     0.43372 -0.00054884
-0.012567   -0.053168    -0.30197   -0.041475      1.4387      0.3798    0.013743
-0.018413   -0.055116    -0.29255    -0.11651      1.4945     0.32523    0.022188
-0.027508   -0.048945    -0.23311    -0.16523      1.4273      0.2606    0.022512
-0.031406   -0.036927    -0.13275    -0.17237      1.2656     0.19531    0.021863
-0.031081   -0.024585   -0.013541    -0.14249       1.058     0.14529    0.031282
-0.029782   -0.016464     0.10047   -0.096367     0.84493     0.12353    0.058566
-0.025884   -0.012892     0.18719   -0.055441     0.65361      0.1362    0.099167
-0.020037   -0.013541     0.23656   -0.034978     0.48309      0.1768     0.13912
-0.019712   -0.019388     0.24728   -0.037577     0.31354     0.21902     0.15958
-0.026533   -0.028807     0.23234    -0.04862      0.1245     0.23006     0.14919
-0.039201   -0.041475     0.20928   -0.043423   -0.094093     0.19499     0.10891
-0.052518   -0.054467     0.18946   -0.017439    -0.33218     0.12937    0.052395
-0.061288   -0.064211       0.169  -0.0057458    -0.55305    0.061489  -0.0021729
-0.065835   -0.067784     0.14367   -0.062912    -0.69174    0.011144   -0.040825
-0.063561   -0.060638     0.11054    -0.18504    -0.66478   -0.021337   -0.059989
-0.04862   -0.039526    0.074806    -0.28476    -0.43157    -0.04862   -0.060638
-0.022961  -0.0096434    0.042975    -0.27046   -0.037902   -0.077203   -0.055116
0.008221    0.020239    0.019264    -0.12787     0.36648    -0.10546   -0.050894
0.03518      0.0433   0.0039985    0.087149     0.55682     -0.1321   -0.050569
0.052395    0.055968  -0.0054209     0.29795     0.32036    -0.15743   -0.051544
0.056292    0.057267    -0.01549     0.43859    -0.36401    -0.18342   -0.047971
0.051096    0.048822   -0.028157     0.48829     -1.2306     -0.2094   -0.038551
0.042326    0.037778   -0.039851     0.45938     -1.9159    -0.23571   -0.027833
0.033881    0.027385   -0.048945     0.38175     -2.1774    -0.26332   -0.016789
0.02641    0.019914   -0.054792     0.29145     -1.9991    -0.28573   -0.010618
0.019914    0.014068   -0.061613      0.2083     -1.5548    -0.30262  -0.0093186
0.014392   0.0091954   -0.068434     0.14042     -1.0627    -0.31269  -0.0083442
0.0095202   0.0072465   -0.078178    0.087474    -0.67615    -0.30847 -0.00054884
0.0046481   0.0069217   -0.095393    0.042975    -0.43157    -0.27274    0.013093
0.0014   0.0052977    -0.12333   0.0062721    -0.28605    -0.19154    0.029333
-0.0018481  -0.0011985    -0.15451   -0.022961    -0.17789   -0.055116    0.039402
-0.0054209   -0.010618    -0.18309   -0.042774   -0.072331     0.12385    0.038753
-0.015165   -0.019712    -0.20031   -0.055116    0.030633     0.32134    0.028034
-0.029782   -0.026858    -0.19933   -0.062912     0.11346     0.50485    0.010819
-0.042774   -0.031081    -0.18114   -0.066485     0.16283     0.64354  -0.0060706
-0.051219    -0.03238    -0.15029   -0.068109     0.18232      0.7228   -0.014516
-0.053817   -0.033679     -0.1178   -0.068434     0.18849     0.74326   -0.012892
-0.047646   -0.035953   -0.090845   -0.066485     0.20213     0.71338  -0.0067202
-0.038876   -0.038551   -0.072331   -0.057715     0.23494      0.6364 -0.00087364
-0.03173   -0.039526   -0.060313   -0.038227      0.2973     0.52272   0.0056225
-0.028807   -0.039526   -0.055116   -0.012567     0.39637      0.3837   0.0091954
-0.028807   -0.038551   -0.051219    0.016016     0.53051     0.23591   0.0095202
-0.03303   -0.037252   -0.042774    0.049147      0.6783    0.095594    0.008221
-0.039526    -0.03303    -0.03238    0.087474     0.80302   -0.027183   0.0085458
-0.044073   -0.021986   -0.024909     0.12678     0.87091     -0.1321    0.013093
-0.037902  -0.0083442   -0.019388     0.15796     0.85824    -0.23311    0.020888
-0.020037   0.0036737   -0.015815     0.17615     0.76242    -0.34549    0.030308
0.0026992     0.01017    -0.01614     0.17355     0.59775    -0.47834    0.038428
0.022837   0.0095202   -0.021986     0.11736     0.38695     -0.6284    0.038428
0.032582   0.0049729    -0.03238    -0.02426      0.1664    -0.77976    0.026085
0.028034 -0.00087364   -0.041799    -0.23928   -0.021661    -0.90579   0.0059473
0.011469  -0.0018481   -0.050569    -0.47899    -0.15743    -0.98114   -0.017764
-0.0080194   0.0010752   -0.055766    -0.70213    -0.25033    -0.99024    -0.03238
-0.019712   0.0085458   -0.056091    -0.88955    -0.32438    -0.92593   -0.039851
-0.020687    0.020888     -0.0405    -0.99478    -0.39616    -0.79503   -0.040175
-0.0099683    0.040702   0.0052977    -0.91001     -0.4621    -0.62061   -0.032705
0.010495    0.062139    0.080328    -0.54882    -0.51667    -0.43936   -0.022636
0.032582     0.07708     0.15763    0.029983    -0.57059    -0.28833   -0.018413
0.045574    0.082277     0.20895     0.62406    -0.65049    -0.19024   -0.021661
0.044275    0.073832     0.21415      1.0395    -0.75767    -0.14574   -0.033679
0.027709    0.054993     0.17322       1.184    -0.86064    -0.14152   -0.053168
0.0036737    0.029658     0.10177       1.083    -0.91683    -0.15516    -0.07428
-0.020687   0.0036737    0.029009      0.8446    -0.90189    -0.16653   -0.093119
-0.04115   -0.017439   -0.025234      0.5841    -0.81549    -0.16588    -0.10416
-0.052843    -0.03303   -0.059339     0.38013    -0.67907    -0.15061    -0.10644
-0.054142     -0.0405   -0.071682     0.25735     -0.5066     -0.1256   -0.094418
-0.047646   -0.036927   -0.067134     0.19953    -0.29353   -0.093769   -0.073955
-0.033679   -0.023935   -0.051868     0.17225    -0.04992   -0.056416   -0.052518
-0.013866  -0.0041217   -0.032705     0.14529     0.18979   -0.017114   -0.034978
0.0072465    0.014717   -0.019063     0.10501     0.38272    0.024137   -0.023285
0.025111    0.027709   -0.010943    0.050771     0.49478    0.062789    -0.01614
0.037454    0.035505  -0.0028225   -0.010618     0.51882    0.095594  -0.0093186
0.040377    0.037454    0.010495   -0.068758     0.46782     0.11671  -0.0031473
0.036804    0.037129    0.027385    -0.10319     0.36324     0.12483  0.00042559
0.029333     0.03518    0.039078   -0.091495     0.22584     0.12483   0.0017248
0.020564    0.029009    0.041676   -0.029132    0.073832     0.11963  -0.0021729
0.013093     0.01764    0.041351    0.074482   -0.072006     0.10891   -0.010618
0.0069217   0.0062721    0.049472     0.20018    -0.17302     0.09397   -0.017764
0.0039985   0.0020496    0.065387     0.32361    -0.19738    0.081627    -0.02361
0.0023744   0.0052977    0.084226     0.41845    -0.13827    0.073832   -0.026533
-0.0024977    0.015042    0.096569     0.45646   -0.017764    0.067011    -0.02426
-0.010618    0.023812    0.097218     0.39572     0.12613    0.061814   -0.017764
-0.02426    0.025436    0.079029      0.2044     0.24858    0.064088   -0.008669
-0.037252    0.022188    0.040052    -0.10221     0.33011    0.073507  -0.0024977
-0.042124    0.017316   -0.010943    -0.44748     0.37688    0.096244   0.0010752
-0.034004    0.014392   -0.057065    -0.72779     0.40579     0.13132   0.0033489
-0.018088    0.017316   -0.086298    -0.85999     0.42625     0.17582   0.0026992
-0.0024977    0.023487   -0.089871    -0.81062     0.43339     0.22259    0.003024
0.0062721    0.029658   -0.069408    -0.60664     0.41683     0.26482   0.0020496
0.0072465    0.031932   -0.039201    -0.32795     0.37428     0.29892   0.0036737
0.0059473    0.028684   -0.011592   -0.067784     0.31354     0.31516    0.011794
0.0059473    0.022837   0.0065969     0.11313     0.24793     0.30477     0.02641
0.0091954     0.01894     0.01829     0.19466     0.19401     0.26222    0.043625
0.013418    0.016991     0.02641     0.19531     0.15666     0.19434     0.05207
0.019264    0.014717    0.032257     0.14756     0.13684     0.10826    0.048172
0.024786    0.013418    0.031607      0.0865      0.1271    0.019264    0.033556
0.028684    0.014068    0.028034    0.035505     0.12288   -0.061288    0.016666
0.030308    0.017316    0.023162   0.0085458     0.11995     -0.1243   0.0065969
0.028684    0.022512    0.019914   0.0046481     0.11054    -0.15126    0.008221
0.023812    0.024786    0.022837    0.013743    0.092346    -0.13632    0.015692
0.016991    0.022512    0.029983    0.020888    0.067661   -0.092469    0.022512
0.012768    0.016341    0.034206     0.01829    0.041676   -0.039201     0.02706
0.012768   0.0088706    0.033881   0.0062721    0.014392  -0.0024977    0.029658
0.015042   0.0017248    0.025761   -0.012242   -0.014516  -0.0050961    0.032257
0.016016  0.00010078    0.011794    -0.03173     -0.0405   -0.062912    0.030633
0.014068    0.003024  -0.0018481   -0.045047   -0.059664    -0.17887    0.023812
0.012768   0.0056225  -0.0096434   -0.054792   -0.070707      -0.339    0.016016
0.015692   0.0046481   -0.014516   -0.065186   -0.075904    -0.51147   0.0036737
0.019264  -0.0024977   -0.020037   -0.072981   -0.079152    -0.65569   -0.011267
0.01894   -0.012892   -0.027183   -0.077528   -0.080776    -0.73169   -0.024585
0.016991   -0.021337   -0.034654   -0.079477   -0.076229    -0.71545   -0.027508
0.019264   -0.022311    -0.04115   -0.093769   -0.059339    -0.60794   -0.015165
0.025436   -0.019063   -0.046347    -0.13697    -0.02426    -0.43839   0.0043233
0.034206   -0.016789   -0.050244    -0.21817    0.036479    -0.25715    0.022512
0.040702   -0.019388   -0.057065    -0.32958     0.13295    -0.10903    0.031932
0.042651   -0.025234    -0.06551    -0.45301     0.27261   -0.022636    0.029333
0.040702   -0.031081    -0.07493    -0.56019     0.45288   0.0072465    0.016016
0.033556   -0.034329   -0.081101     -0.6388     0.65102   0.0043233  -0.0024977
0.020239   -0.034329   -0.078827    -0.68752     0.82316  -0.0041217   -0.022311
0.0049729   -0.035303   -0.065835    -0.69694      0.9245   0.0085458    -0.03238
-0.011917   -0.038876   -0.046996    -0.65341     0.93165    0.059541   -0.026858
-0.028157   -0.037902    -0.02426    -0.54135      0.8524     0.15438 -0.00087364
-0.035628   -0.029132   0.0017248    -0.35426      0.7189     0.28073    0.039402
-0.033354   -0.010943     0.02641    -0.11358     0.56039     0.40806    0.080328
-0.023935    0.010495    0.042651     0.13977      0.3889     0.49348     0.11021
-0.0099683    0.032257    0.046223     0.35771     0.20863     0.51557     0.12158
0.0059473    0.051096    0.034855     0.51654    0.012443      0.5042     0.11898
0.022837    0.065387     0.01764     0.61853    -0.21979     0.51362     0.10989
0.038428    0.072858    0.010495     0.67667    -0.51082     0.56364     0.10047
0.046873    0.071234    0.019589     0.70233    -0.89247     0.62503    0.091047
0.040702    0.064088    0.045249     0.69974     -1.3878     0.64484    0.076431
0.017316    0.053044    0.082602     0.66076     -1.9393     0.58508     0.05272
-0.017439     0.03518     0.11801     0.58151     -2.4243     0.45191    0.019914
-0.053817    0.010495     0.14042     0.47107     -2.7094     0.28918   -0.019063
-0.081426    -0.01614     0.14659     0.34602     -2.6874     0.14074   -0.053168
-0.092794   -0.037902     0.14367     0.22129     -2.3096    0.036479   -0.072006
-0.088572    -0.04927     0.13977     0.10404     -1.6496  -0.0024977   -0.068109
-0.073955   -0.050244     0.14009  0.00010078    -0.86811    0.029333   -0.047321
-0.057715   -0.045697     0.14204   -0.080127    -0.14087     0.11151    -0.01614
-0.045047   -0.039851     0.12483    -0.11878     0.40481     0.20181    0.016991
-0.036602   -0.035628    0.064088    -0.11618     0.73222     0.25085    0.044275
-0.030756   -0.031081   -0.064536   -0.089221     0.88195     0.22129    0.055968
-0.027183   -0.027183    -0.25812   -0.058365     0.91866     0.10079    0.052395
-0.023935   -0.025234     -0.4673   -0.034329     0.90047   -0.088247    0.033556
-0.023935   -0.026858    -0.62061   -0.012242     0.86539    -0.31009  0.00042559
-0.026858   -0.030756    -0.66348    0.022837     0.83128    -0.52511   -0.039201
-0.027183    -0.03303    -0.58098    0.080003       0.804    -0.69629   -0.080127
-0.023285   -0.032705    -0.40656     0.15568     0.78224    -0.79145    -0.11228
-0.022636   -0.033354    -0.20713     0.22584     0.74488    -0.79958    -0.12495
-0.028482   -0.036927    -0.04927     0.24793     0.66433    -0.73169    -0.11326
-0.043099   -0.046996     0.02706      0.1781     0.50518    -0.61606   -0.082076
-0.062912   -0.062587     0.02706   -0.008669     0.24078    -0.48549   -0.040825
-0.074605   -0.076554   -0.015165    -0.35621    -0.12333    -0.36628      0.0014
-0.069083   -0.081751   -0.056416    -0.89052    -0.52024    -0.27274    0.036804
-0.042449   -0.071682   -0.068434      -1.557    -0.85349     -0.2068    0.062464
-0.0047713    -0.04992   -0.045047     -2.2187     -1.0568    -0.16977    0.080003
0.026735   -0.028807  -0.0031473     -2.7406     -1.1166    -0.15938    0.088773
0.040052   -0.016464    0.027709     -3.0378     -1.0685    -0.17237     0.08585
0.033556   -0.018413    0.028034     -3.0482    -0.97562    -0.20388     0.06896
0.013743   -0.028807   0.0033489     -2.6805    -0.88857    -0.23733    0.040052
-0.0083442   -0.034654   -0.025559     -1.8494    -0.81224    -0.25065   0.0095202
-0.021337   -0.021012   -0.029132    -0.56182     -0.7187    -0.22467   -0.014191
-0.020362    0.015692    0.013093     0.96803     -0.5917    -0.15711   -0.024909
-0.008669    0.066037    0.092671      2.3247    -0.45755   -0.070058   -0.020362
0.0069217     0.10891     0.17745      3.2378    -0.37343    0.008221  -0.0083442
0.01829       0.131     0.22584      3.5821    -0.36921    0.056617  -0.0011985
0.019914      0.1245     0.21252      3.4047    -0.40493    0.070259  -0.0076946
0.010819    0.096244     0.14464      2.8776    -0.39454     0.06019   -0.029457
-0.0076946    0.057592    0.053369      2.2078    -0.25033    0.047198   -0.056416
-0.025884    0.023487   -0.024909      1.5598    0.072858    0.041676   -0.080776
-0.036602      0.0014   -0.070058      1.0226     0.56039    0.044275    -0.10059
-0.034329   -0.008669   -0.076554     0.62146      1.1317    0.052395    -0.11391
-0.021661   -0.012892   -0.053168     0.33433      1.6696    0.066686    -0.11975
-0.0073698   -0.014191   -0.013216     0.13555      2.0396    0.095919     -0.1178
-0.0021729   -0.015815    0.029658  -0.0076946      2.0873     0.14854    -0.11228
-0.010293   -0.019063    0.064413    -0.13534      1.6612     0.22097    -0.10774
-0.025884   -0.023935    0.082927    -0.26689     0.74781      0.2934    -0.10351
-0.039526   -0.026858    0.089423    -0.38155    -0.40104     0.34829    -0.10026
-0.044073   -0.025234    0.097218    -0.42767      -1.356     0.38142   -0.094093
-0.039201   -0.018413     0.11898    -0.35979     -1.8172     0.40026   -0.077203
-0.029457  -0.0050961     0.15309    -0.17822     -1.7061     0.40611   -0.050894
-0.017439    0.012119     0.17745    0.052395     -1.1604     0.39474   -0.019388
-0.0054209    0.022188     0.17517     0.23786    -0.44261     0.36161    0.008221
0.0072465    0.019264     0.14269     0.33108     0.17874     0.30445    0.029009
0.019264   0.0046481     0.09397     0.35447     0.54415     0.22519    0.042975
0.026085    -0.01484    0.050121     0.36681      0.6377     0.12418     0.05142
0.025436    -0.03173    0.027709     0.41261     0.52694   0.0091954    0.050771
0.018615   -0.041475    0.024137     0.48114     0.31549    -0.10709    0.042975
0.012443   -0.043099    0.031932     0.52921     0.10729    -0.20875    0.031282
0.009845   -0.036927     0.04395     0.52012   -0.026858     -0.2906     0.01894
0.015042   -0.022961     0.06019     0.44314   -0.073955    -0.35069   0.0095202
0.024137   -0.008669    0.075781     0.31646   -0.065835    -0.39129   0.0043233
0.030308 -0.00022403    0.086824      0.1664   -0.035953    -0.41468   0.0069217
0.029658   0.0017248    0.092021    0.025761   0.0078962    -0.42735    0.009845
0.024461 -0.00087364    0.088448   -0.086948    0.075781    -0.43027   0.0059473
0.015367  -0.0096434    0.077405     -0.1662     0.16121    -0.42475   -0.013216
0.0010752   -0.022961    0.056942    -0.21687     0.23331    -0.40071   -0.044723
-0.016464   -0.036602    0.030308    -0.25325     0.27099    -0.34355   -0.076554
-0.034978   -0.046022  -0.0011985    -0.29612     0.28788    -0.24091   -0.099615
-0.052518   -0.048945   -0.035303    -0.36206     0.31744   -0.090196    -0.11066
-0.06616   -0.043748   -0.072006    -0.44456     0.38695    0.098517    -0.11098
-0.069408   -0.034329    -0.10676    -0.52219     0.48829     0.31581    -0.10384
-0.061288   -0.028157    -0.13599     -0.5826     0.58086     0.53376   -0.090196
-0.045372    -0.02426    -0.15516    -0.61508     0.61399     0.71143   -0.071357
-0.028807   -0.020687    -0.16523    -0.62028     0.56786      0.8105   -0.051868
-0.01614   -0.017114     -0.1701    -0.60696     0.46782     0.82056   -0.035303
-0.008669   -0.012892     -0.1753     -0.5878     0.37103       0.753   -0.018413
-0.0054209  -0.0080194    -0.17465    -0.56409     0.32783      0.6403      0.0014
-0.0028225  -0.0037969    -0.16295    -0.53583     0.36259     0.51784    0.030957
0.0010752 -0.00054884    -0.14249     -0.5053     0.45743     0.41456    0.070259
0.0069217  0.00042559     -0.1178    -0.47184     0.57274     0.33335     0.10989
0.010819  -0.0018481   -0.095717    -0.43839     0.67765     0.25702     0.13555
0.011794  -0.0060706   -0.079477    -0.40981     0.76015     0.15958     0.14042
0.0091954   -0.010293   -0.069083    -0.39194     0.82121    0.032257     0.12743
0.0065969   -0.011592   -0.065186    -0.38447     0.85987    -0.11586     0.10436
0.0020496   -0.010943   -0.063561    -0.38057     0.86636    -0.26397    0.080978
-0.0018481   -0.012242   -0.060638     -0.3731     0.83518    -0.38869    0.060515
-0.0041217   -0.014516   -0.052843    -0.35979      0.7621    -0.48061    0.047198
-0.0024977   -0.013216   -0.038227    -0.33932     0.65037    -0.54363    0.038428
0.00042559  -0.0083442   -0.017764    -0.31399      0.5133    -0.58975    0.030957
0.0039985  -0.0024977   0.0043233    -0.28703     0.36908    -0.62353    0.022837
0.011144   0.0039985     0.02706    -0.25975     0.23429    -0.63685   0.0088706
0.022837    0.011794    0.048497    -0.22856     0.11703    -0.61476   -0.011917
0.038428    0.016016    0.065387    -0.19056    0.027385    -0.56019    -0.03303
0.048172    0.014068    0.072208    -0.14866   -0.033679    -0.49426   -0.048296
0.050121   0.0075714     0.06896    -0.11098   -0.083375    -0.44196   -0.056091
0.046548   0.0036737    0.057592   -0.084674    -0.14411    -0.41143   -0.056741
0.041027   0.0046481    0.044275   -0.067784    -0.23149    -0.38642   -0.052193
0.03518   0.0069217    0.033556   -0.056416    -0.36791    -0.34777   -0.042449
0.033231   0.0049729    0.028034   -0.046996    -0.57221    -0.28638   -0.033354
0.031282 -0.00087364    0.024461   -0.040175    -0.82329    -0.20583   -0.027508
0.025761  -0.0073698    0.022512   -0.032705      -1.064    -0.12495   -0.025234
0.016991   -0.011592    0.024137   -0.023935     -1.2267   -0.063561   -0.022961
0.0023744   -0.016789    0.027385  -0.0093186     -1.2718   -0.029782   -0.018088
-0.013216   -0.021661    0.031282    0.015042     -1.2299   -0.021986   -0.014191
-0.028157   -0.027508    0.033881      0.0433     -1.1585   -0.030756   -0.015165
-0.0405   -0.033679    0.033556    0.070909     -1.0906    -0.04992   -0.023935
-0.045047   -0.038227    0.030633     0.09462     -1.0217   -0.068434   -0.038551
-0.039201   -0.036278    0.025436     0.10989     -0.9295   -0.081426   -0.050244
-0.023935   -0.028482    0.017965     0.11866    -0.79958   -0.092794   -0.051219
-0.0067202   -0.013541   0.0091954     0.12515    -0.64627    -0.10968   -0.044398
0.0014   0.0026992  -0.0034721     0.12937    -0.50238    -0.13697   -0.039526
-0.0018481    0.018615   -0.020037      0.1323    -0.39876    -0.17757   -0.045372
-0.014191    0.029009   -0.035953     0.13814    -0.34387    -0.22499   -0.062587
-0.029132     0.03518   -0.045697     0.14496    -0.31756    -0.26592   -0.079802
-0.0405    0.037129   -0.050569     0.15016    -0.28118    -0.27306   -0.082725
-0.040825    0.038753   -0.051544     0.15114    -0.19901    -0.22791   -0.065186
-0.028157    0.039078   -0.045047     0.14269   -0.064861     -0.1256   -0.025559
-0.010293    0.037454   -0.031406     0.11801    0.089748    0.022188    0.023812
0.0039985    0.033881   -0.007045    0.074482      0.2187     0.19693    0.072533
0.01017    0.027709     0.02641    0.016666     0.28821     0.37525     0.11183
0.0095202    0.023487    0.061165   -0.048945     0.28691     0.52726     0.13295
0.0075714    0.023487    0.081303    -0.11228     0.23136     0.62763     0.13717
0.0072465     0.02641    0.070909    -0.15938     0.15796     0.66303     0.13132
0.0088706    0.028684    0.024137    -0.18147     0.10404     0.63802      0.1206
0.013743    0.026735    -0.04927    -0.17822    0.087149     0.57176     0.10664
0.020239    0.021213    -0.12203    -0.14899    0.099492     0.48406    0.092996
0.023162    0.016016      -0.174   -0.086623     0.11898     0.39474    0.076755
0.01764    0.011144    -0.19219    0.011794     0.12223     0.32198    0.054993
0.0095202   0.0065969    -0.17497     0.13522     0.10209     0.28463     0.02641
0.0014   0.0036737    -0.12625      0.2593    0.066686     0.30639  -0.0018481
-0.0044465   0.0056225    -0.05739     0.35771     0.02706     0.38565   -0.021337
-0.0073698    0.009845    0.016991     0.40871   -0.022636     0.49056   -0.031081
-0.008669    0.011794    0.082927     0.40221    -0.10416     0.57631   -0.034004
-0.0096434   0.0078962     0.12613     0.34375    -0.23766     0.60164   -0.029782
-0.0076946 -0.00022403      0.1284     0.24858    -0.40591      0.5487   -0.021337
-0.0047713  -0.0073698    0.082277     0.14139    -0.56214     0.42365  -0.0080194
-0.0031473  -0.0076946    0.003024    0.047523    -0.65244     0.24273   0.0065969
-0.0037969  -0.0021729   -0.075904   -0.013866     -0.6336     0.02641    0.018615
-0.0063954   0.0052977    -0.11748   -0.034329    -0.49685    -0.19511     0.02641
-0.0080194   0.0091954    -0.10189   -0.026533    -0.27728    -0.39324     0.02641
-0.0093186    0.010495   -0.035303   -0.012892   -0.034329    -0.54623    0.019589
-0.011592    0.010495    0.048822  -0.0076946     0.17452    -0.64042   0.0072465
-0.013541    0.010495     0.11736   -0.008669     0.30997    -0.66965  -0.0067202
-0.01614    0.014717     0.15146   0.0026992     0.36421     -0.6349   -0.018413
-0.020362    0.020239     0.15471    0.048497     0.35024     -0.5498   -0.023935
-0.031081    0.023812     0.13912     0.13587     0.29373    -0.44131   -0.025559
-0.044723    0.022188     0.11411     0.24468     0.22194     -0.3351   -0.028482
-0.054792     0.01764    0.082927     0.34407     0.16445    -0.24026   -0.035628
-0.060638    0.014068    0.053044     0.40903     0.14042    -0.14769   -0.041799
-0.063886    0.014717    0.027385     0.43209     0.14789   -0.057715   -0.044073
-0.062262    0.017965   0.0056225     0.41878     0.16478    0.015692   -0.038551
-0.05804    0.024786   -0.015815     0.38272     0.16185    0.065062   -0.018088
-0.04862    0.033231   -0.038876     0.33595      0.1349    0.093645    0.016016
-0.034654    0.041027   -0.062587     0.29178     0.10371     0.11476     0.05272
-0.016789    0.042326   -0.084024     0.26352    0.091372     0.14139    0.075781
0.0017248    0.037778    -0.10221     0.25345     0.10599     0.17745    0.074806
0.015042    0.026735    -0.12203     0.23851     0.12872      0.2135    0.054344
0.020888    0.011794    -0.15158     0.19239     0.13684     0.23851    0.024786
0.019914  -0.0037969    -0.18731    0.098842     0.11476     0.24338  -0.0028225
0.017316   -0.015815    -0.21492   -0.021986    0.066362     0.22974   -0.018413
0.022188   -0.018738    -0.21362    -0.12463    0.019589     0.20603   -0.021661
0.036479   -0.010618    -0.17789    -0.16295    0.017965      0.1781   -0.010943
0.054019   0.0023744    -0.11943    -0.12203     0.09462     0.14334   0.0056225
0.064088    0.011794   -0.068758   -0.026858     0.23948    0.090072    0.024786
0.064737    0.014392   -0.042774     0.07773     0.40189   0.0065969    0.040377
0.060515    0.010495   -0.041799     0.15503     0.52564    -0.10709    0.047847
0.054993   0.0078962   -0.044723     0.18849     0.57144    -0.23051    0.050121
0.053694   0.0088706   -0.034978     0.17387     0.53636    -0.33055    0.047198
0.054668    0.012768  -0.0060706     0.12515     0.44476     -0.3796    0.039727
0.057917    0.019589    0.033556    0.073832      0.3327    -0.36368    0.028684
0.06084    0.025436    0.065387    0.050446     0.22844     -0.2867    0.014392
0.061165    0.025436    0.079029    0.051745     0.15438     -0.1701  -0.0024977
0.055318    0.016991    0.074157    0.064413     0.12678   -0.045697   -0.019712
0.0433   0.0023744    0.054019    0.081627     0.15179    0.056942   -0.035303
0.02706   -0.011917     0.02641    0.092021     0.22129     0.12223   -0.047646
0.0049729   -0.021337  -0.0018481    0.065062     0.31484     0.14821   -0.056091
-0.019063   -0.024585   -0.021986   -0.020687     0.40611     0.14724   -0.059664
-0.036927   -0.022311   -0.024909    -0.13047     0.47464      0.1362   -0.059664
-0.042449   -0.016789  -0.0063954    -0.18699     0.51687     0.12743   -0.059339
-0.0405   -0.010943    0.030957    -0.15321     0.54415     0.12645   -0.061288
-0.036602  -0.0057458    0.070259   -0.067784     0.56397     0.12548   -0.063886
-0.035953  -0.0057458    0.092021   0.0039985     0.57631     0.11931   -0.067784
-0.037902  -0.0076946    0.084551    0.019589     0.57663     0.10794   -0.070058
-0.039851   -0.011917    0.049147   -0.022636     0.56299    0.096569   -0.070382
-0.04115   -0.016464   0.0033489   -0.085973     0.53214      0.0865    -0.06681
-0.042449   -0.018413   -0.032055     -0.1256     0.47367    0.073182   -0.062262
-0.039201   -0.018738   -0.042449    -0.11391     0.36746    0.055968   -0.057065
-0.033679   -0.020037   -0.029132    -0.04992     0.19791    0.034855   -0.048296
-0.024909   -0.019712 -0.00022403    0.040377   -0.040175    0.011794   -0.036927
-0.019388   -0.019712    0.032257     0.11508    -0.34679  -0.0096434   -0.025234
-0.019712   -0.017114    0.055968     0.14496     -0.7122   -0.028482   -0.021012
-0.02426   -0.015165    0.065387      0.1271     -1.1146   -0.045372   -0.025884
-0.035303   -0.014191    0.067011    0.074157     -1.5109   -0.063886   -0.036927
-0.049595   -0.014191     0.06961   0.0095202     -1.8217   -0.082725   -0.050569
-0.065186    -0.01614    0.071558   -0.044398     -1.9621   -0.098965   -0.062587
-0.076229   -0.018088    0.070259   -0.072331     -1.8877    -0.11163   -0.072656
-0.076879   -0.014191    0.064737   -0.073955     -1.6174    -0.11975   -0.079477
-0.06681  -0.0041217    0.054019   -0.061613     -1.2257    -0.12398   -0.079802
-0.052518   0.0095202    0.039402   -0.052843     -0.8038     -0.1217   -0.072006
-0.041799    0.019589    0.022512   -0.055116    -0.42929    -0.11423   -0.061937
-0.039201    0.022837   0.0036737   -0.067784    -0.15256    -0.10319   -0.050569
-0.040175    0.020564   -0.015815   -0.087272    0.013743   -0.088896   -0.038876
-0.040175    0.014717   -0.035953    -0.10838    0.091047   -0.056091   -0.029132
-0.036927   0.0095202   -0.051544    -0.12365     0.11411    0.017316   -0.021337
-0.028482   0.0043233   -0.061288    -0.12885     0.11508     0.13912   -0.015815
-0.020037 -0.00022403   -0.063886     -0.1243     0.11248     0.28138   -0.012892
-0.016464  -0.0050961   -0.060638    -0.11228     0.11508     0.39994   -0.010293
-0.016464   -0.010618   -0.054142   -0.094743     0.11054     0.46523  -0.0034721
-0.018413   -0.011917   -0.044723   -0.075255    0.079029     0.47919   0.0075714
-0.018413  -0.0089938   -0.032705   -0.052518  -0.0057458     0.46068     0.01894
-0.012892  -0.0050961   -0.020687   -0.033679    -0.16263      0.4308    0.027385
-0.007045  -0.0018481   -0.013866    -0.02361    -0.37635     0.40189    0.029983
-0.0050961  -0.0024977   -0.014516   -0.023285    -0.59625     0.38825    0.028684
-0.0067202   -0.011267   -0.016789   -0.029782    -0.76125     0.39669    0.030633
-0.0050961   -0.022636   -0.018413   -0.036927    -0.82881     0.41456    0.046873
-0.00054884    -0.03173   -0.018088   -0.033679    -0.78301     0.41228    0.074806
0.0065969   -0.037577   -0.014191   -0.018413    -0.64627     0.35122     0.10534
0.012443   -0.038227  -0.0073698 -0.00087364    -0.46405     0.20928      0.1323
0.015692   -0.032055  -0.0015233   0.0088706    -0.28768  0.00010078     0.15016
0.01764   -0.021012 -0.00054884   0.0095202    -0.15776    -0.23766     0.15601
0.019589   -0.010943  -0.0083442   0.0056225     -0.0837    -0.46405     0.15211
0.017316  -0.0063954   -0.022311 -0.00054884   -0.045697    -0.64757     0.13879
0.01017  -0.0067202   -0.039526  -0.0031473   -0.013216    -0.77879     0.11703
0.0014   -0.010943   -0.056091  -0.0018481    0.038753    -0.87201    0.091696
-0.0047713   -0.018413   -0.069733   0.0010752     0.12548    -0.95418    0.067986
-0.0063954   -0.025234   -0.076879 -0.00022403     0.25637     -1.0464    0.054344
-0.0028225   -0.029457   -0.072981  -0.0067202     0.44671     -1.1504    0.054019
0.0052977    -0.03303   -0.057715    -0.01614     0.70363     -1.2533     0.06019
0.014068   -0.033679   -0.038227   -0.027833     0.99823     -1.3323    0.062464
0.01894   -0.031406   -0.021012   -0.038876      1.2652      -1.353    0.054344
0.015042   -0.025559  -0.0073698   -0.047971      1.4195     -1.2852    0.037129
0.0052977   -0.017764 -0.00054884   -0.055766      1.4003     -1.1221    0.016666
-0.0047713  -0.0093186  0.00010078   -0.063886      1.2172     -0.8837   0.0020496
-0.0099683  -0.0054209  -0.0041217   -0.071682      0.9323    -0.61703  -0.0037969
-0.0067202  -0.0060706  -0.0076946    -0.07493     0.61659    -0.36921  -0.0057458
0.003024   -0.010943  -0.0067202   -0.070707     0.31581    -0.16912   -0.012567
0.017965   -0.017439 -0.00022403   -0.060638    0.047523   -0.025884   -0.027508
0.032582   -0.022636    0.008221   -0.046022    -0.18764    0.065712   -0.042774
0.039727   -0.025234    0.014068   -0.034329    -0.38545     0.11866   -0.056091
0.03453    -0.02361    0.012443   -0.032705    -0.53031     0.14854   -0.065835
0.013743   -0.018088   0.0046481   -0.044398    -0.61736     0.17062   -0.070707
-0.017439   -0.011592  -0.0083442   -0.081751     -0.6664     0.19401    -0.06616
-0.048296   -0.010293   -0.029457    -0.17042    -0.73104      0.2174   -0.057065
-0.065835    -0.01549   -0.055766    -0.33315    -0.85025     0.23624   -0.048296
-0.068109   -0.028482   -0.079802    -0.54525     -1.0152     0.24013   -0.043748
-0.062587   -0.042124   -0.098316    -0.75832     -1.1715     0.23266   -0.043748
-0.056091   -0.051544    -0.10774    -0.93989     -1.2322     0.22584   -0.048296
-0.04927    -0.04992    -0.10156      -1.074     -1.1306     0.22844   -0.054142
-0.038876   -0.034978   -0.071032        -1.1    -0.85577     0.24046   -0.059014
-0.021986  -0.0063954   -0.010618    -0.90806    -0.45528     0.25767   -0.055766
0.0014    0.027385    0.074157    -0.44099    -0.01549     0.27391    -0.04862
0.025761    0.057917     0.15893     0.20343     0.35901     0.27976   -0.041799
0.039402    0.076431     0.21512     0.80692     0.57696     0.26969     -0.0405
0.034206     0.07773     0.22552      1.1918     0.61561     0.24468    -0.04927
0.010819    0.061165     0.18979      1.2867     0.51979     0.21058    -0.06551
-0.020362    0.034855     0.12418       1.135     0.38045     0.18167   -0.085648
-0.046347   0.0065969    0.051745     0.85499     0.28463     0.15893    -0.10449
-0.058689   -0.016789   -0.012567     0.57566     0.27229     0.14107    -0.11715
-0.059339   -0.030106   -0.057065     0.37818     0.33563     0.11833    -0.12268
-0.053492   -0.031406   -0.073306     0.28398      0.4308    0.082927    -0.12203
-0.045372   -0.021012   -0.061613     0.26547     0.51037    0.045249    -0.11975
-0.038876  -0.0015233   -0.029782     0.27879     0.54968    0.028034    -0.11618
-0.031081    0.016341   0.0039985     0.28658     0.54513    0.044599    -0.10903
-0.021661    0.029009    0.027709     0.26904     0.51005    0.091696   -0.096042
-0.010618     0.03583     0.03453     0.22324     0.46425      0.1729   -0.072981
0.0023744    0.036479    0.028684     0.15763      0.4204       0.296   -0.042124
0.016341    0.032257    0.014717    0.087474     0.38695     0.46198  -0.0080194
0.033231    0.027385  -0.0021729     0.02641     0.36583     0.66206    0.023487
0.051096    0.023487   -0.018088   -0.023285     0.35771     0.87968    0.053044
0.067661    0.024461   -0.030756   -0.066485     0.36291      1.1038    0.080978
0.080653    0.029333   -0.038227    -0.11358     0.37525      1.3126     0.11281
0.083576    0.033881   -0.040825    -0.16588     0.38565      1.4663     0.14464
0.074806    0.037129   -0.040175    -0.21622     0.37915      1.5238     0.16933
0.054993    0.035505   -0.037902     -0.2578     0.34212      1.4656     0.17874
0.030308    0.030308   -0.034654    -0.28118     0.27359      1.2912      0.1677
0.0046481    0.023812   -0.028807    -0.28086     0.18264      1.0145     0.14237
-0.018413    0.016991   -0.020687    -0.25812    0.092021     0.66303     0.11443
-0.033679    0.011469   -0.010943    -0.22012    0.021213     0.28041    0.095269
-0.036927   0.0085458  -0.0021729    -0.18179   -0.017764   -0.086948    0.089098
-0.026858    0.011794   0.0023744    -0.15386   -0.020037    -0.40331     0.09462
-0.008669    0.022512  -0.0021729    -0.13892  0.00075039    -0.65698     0.11086
0.012443     0.03453   -0.012567    -0.12203    0.021863    -0.86454     0.12905
0.033231      0.0433   -0.021986   -0.084024    0.020564     -1.0412     0.14107
0.0433    0.045249    -0.02361   -0.023285  -0.0096434      -1.188     0.13717
0.042651    0.038428   -0.017439    0.044924   -0.059664     -1.2991     0.11768
0.032257    0.029658   -0.007045    0.093321    -0.10319     -1.3706    0.088124
0.016341    0.021213  -0.0031473    0.096569    -0.11683     -1.4034    0.060515
0.00075039    0.016666   -0.016464    0.048497    -0.10189     -1.4044    0.037778
-0.010293     0.01764   -0.047971   -0.037252   -0.070707     -1.3748     0.01764
-0.01549    0.021863    -0.08305     -0.1308    -0.02426     -1.3037  -0.0031473
-0.013541    0.024786    -0.10189    -0.18536    0.046223     -1.1757   -0.024909
-0.007045    0.023487   -0.094418    -0.18017     0.14691    -0.98796   -0.044398
-0.00054884    0.016991    -0.06616    -0.13957     0.27586    -0.75215   -0.055116
-0.00022403   0.0020496   -0.031406    -0.13372     0.42105     -0.4962   -0.059664
-0.0089938   -0.020362  -0.0076946    -0.24415     0.55974    -0.25357   -0.064211
-0.025234   -0.043748  -0.0083442    -0.52316      0.6796   -0.056741   -0.076229
-0.045372   -0.060638    -0.03303    -0.95646     0.77672    0.074482   -0.094418
-0.063886   -0.071032   -0.071682     -1.4622     0.85857     0.14172    -0.11228
-0.075255   -0.077853    -0.11521     -1.8942     0.93912     0.16088      -0.123
-0.081101   -0.075904    -0.15841       -2.09      1.0219     0.14756    -0.12365
-0.075904   -0.060313    -0.19446     -1.9452      1.0859     0.11898    -0.10838
-0.058365   -0.030106    -0.21005     -1.4385       1.058    0.094295   -0.075904
-0.029132   0.0078962    -0.19478    -0.62418      0.8053    0.081303   -0.029782
0.0065969    0.045574    -0.14964     0.37265     0.19466    0.073182    0.021538
0.038428    0.076431   -0.085324       1.326    -0.74143    0.058566    0.065062
0.058566    0.096244   -0.021337      2.0643     -1.7386    0.030957    0.088773
0.063763     0.10144    0.029983       2.504      -2.486   -0.014191    0.089098
0.058566    0.089423    0.063438      2.6492     -2.7793   -0.071032     0.06896
0.051096    0.061165    0.081627      2.5654        -2.6    -0.13242    0.031607
0.042001    0.022837    0.093321      2.3485     -2.0894    -0.18991   -0.015815
0.029658    -0.01549     0.11151      2.0785     -1.4466    -0.23246   -0.065186
0.017316   -0.041799     0.14464      1.7947    -0.85512    -0.25292    -0.10709
0.012443   -0.046996     0.19174      1.4851    -0.43417    -0.23993    -0.13404
0.012119   -0.032705     0.22747       1.121    -0.22661    -0.19348    -0.14639
0.013093   -0.011917     0.22584     0.70396    -0.22207    -0.11943    -0.14574
0.012443  0.00075039     0.17647     0.27456    -0.36758   -0.023285    -0.13437
0.012443 -0.00087364    0.090072    -0.10644    -0.56994      0.0865    -0.11358
0.019264   -0.010293  -0.0037969    -0.38512    -0.72487     0.19726   -0.084999
0.028684   -0.019388   -0.076554    -0.54168    -0.74761     0.29633   -0.054467
0.031932   -0.027183    -0.11456    -0.59072    -0.60956     0.36973   -0.026858
0.023162   -0.035303    -0.10903    -0.56571    -0.34874     0.41326  -0.0060706
0.0010752   -0.045372   -0.062262    -0.50433   -0.048296     0.43112   0.0039985
-0.026533   -0.055766   0.0072465    -0.44943     0.20895     0.43209   0.0056225
-0.047321   -0.059339    0.074157    -0.42507     0.37428     0.42755   0.0033489
-0.054142   -0.053492     0.12028     -0.4267     0.44476     0.42397   0.0026992
-0.047321   -0.040175     0.13944    -0.42929     0.44509     0.42592   0.0065969
-0.034004   -0.026858      0.1349     -0.4137     0.41131      0.4308    0.014392
-0.020037   -0.015165     0.11216    -0.36985     0.37201     0.43209    0.021538
-0.008669   -0.008669    0.083576    -0.31204      0.3405     0.42138    0.023487
-0.0031473  -0.0096434    0.060515    -0.27111     0.32036     0.39507    0.016991
-0.0050961   -0.016789    0.050771    -0.29742     0.30997     0.35187  0.00075039
-0.016789   -0.024585    0.056617    -0.43936     0.29795     0.29308    -0.02361
-0.032055   -0.026858    0.072208    -0.69012     0.25897     0.22714   -0.053168
-0.044073   -0.022636    0.087149    -0.98894     0.15698     0.16056   -0.085324
-0.04992   -0.015165    0.093321     -1.2647   -0.027508     0.10047    -0.11488
-0.04927   -0.010943    0.080978     -1.4885    -0.26039    0.055318    -0.13762
-0.041475    -0.01484    0.045574     -1.6675    -0.46243    0.033231    -0.14606
-0.026858   -0.025559  -0.0096434     -1.7623    -0.54493    0.045249    -0.14022
-0.0093186   -0.037577   -0.078827     -1.6548     -0.4634    0.097218    -0.12138
0.008221   -0.043748    -0.14801     -1.2244    -0.22986     0.19076   -0.086298
0.027385   -0.038227    -0.20583    -0.47022    0.083576     0.33335   -0.036278
0.044275    -0.02361    -0.24838     0.44606     0.36486     0.52272    0.015367
0.051096  -0.0096434    -0.27664      1.2555     0.51135     0.73482    0.054344
0.042651  -0.0050961    -0.28898       1.768     0.47627     0.91671    0.070584
0.023812   -0.011917    -0.26949      1.9243     0.28333      1.0164    0.064413
0.0046481   -0.021012    -0.20908       1.783   0.0056225      1.0044    0.044599
-0.008669   -0.022311    -0.11683      1.4663    -0.26137     0.88033    0.016666
-0.012242   -0.013216   -0.019712      1.0947    -0.44618     0.66791   -0.010293
-0.0067202  0.00075039    0.055318     0.75495    -0.51537     0.40481   -0.024909
-0.00022403    0.015367    0.093321     0.48764    -0.47672     0.13392   -0.020037
0.0014    0.022512    0.098517      0.2921    -0.36823    -0.11391  -0.0018481
0.0010752    0.024137    0.082277     0.15244    -0.24188    -0.32243    0.018615
-0.0011985    0.023812    0.058241    0.049472    -0.13437    -0.49263    0.035505
-0.0021729    0.025436    0.033231   -0.033679   -0.060963    -0.62645    0.053694
0.00010078    0.028359    0.012443    -0.10351   -0.019388     -0.7174    0.072208
0.0046481    0.029333  -0.0015233    -0.15808 -0.00022403    -0.75865    0.090722
0.009845    0.028359  -0.0047713    -0.19933    0.010495    -0.75053     0.10242
0.013418    0.029333 -0.00087364    -0.22434     0.04395    -0.70473     0.10761
0.014717    0.032582   0.0069217    -0.23506     0.14074    -0.64042     0.11021
0.015367    0.039078    0.013093    -0.23181     0.31809    -0.57903     0.11021
0.015367    0.045249    0.010819    -0.22012     0.55032    -0.53161     0.10599
0.009845    0.046548   0.0026992    -0.20615     0.78451    -0.50238    0.095594
-0.0037969    0.040052  0.00010078    -0.19316     0.96445    -0.47834    0.079029
-0.022311    0.026735   0.0072465    -0.18471      1.0525    -0.43936    0.055968
-0.035303    0.012443    0.021538    -0.17627       1.045    -0.37115    0.038103
-0.04115   0.0023744     0.03453    -0.16588     0.96965    -0.26332    0.037454
-0.038876 -0.00022403    0.042651    -0.14931     0.86929    -0.11423    0.056617
-0.030756  0.00042559    0.045899     -0.1243     0.77542    0.061814    0.087474
-0.019712  -0.0011985    0.046223   -0.096367     0.70461     0.23624     0.11378
-0.010293  -0.0093186    0.043625   -0.072656     0.65654     0.36778     0.12125
-0.0073698   -0.023935    0.037129   -0.051544     0.62438     0.42495     0.10112
-0.014516   -0.037252    0.031607   -0.035303     0.60424     0.39864    0.063763
-0.027508   -0.041475    0.028684   -0.020037     0.58475     0.30639    0.017965
-0.040175   -0.034004    0.031282   -0.010943     0.55552     0.17972   -0.028482
-0.048945   -0.019712    0.039402  -0.0083442     0.51167    0.058891   -0.065835
-0.049595   -0.007045    0.048172   -0.011917     0.45223   -0.028482   -0.086298
-0.040175      0.0014    0.050121   -0.019712     0.38078   -0.069408   -0.089221
-0.024909   0.0049729     0.04395   -0.031081     0.30704   -0.071357   -0.079152
-0.0093186   0.0049729    0.032257   -0.046022     0.23234   -0.053817   -0.066485
0.0043233   0.0023744    0.016991   -0.064861     0.15244   -0.035953   -0.054467
0.013418  -0.0021729   0.0033489   -0.085648    0.055318   -0.028157   -0.046022
0.019914  -0.0044465   -0.007045    -0.10611   -0.067134   -0.028157   -0.039526
0.024786  -0.0041217   -0.012242    -0.12235    -0.22694   -0.026533   -0.034329
0.024786  -0.0011985   -0.017764    -0.13567    -0.43644   -0.017114   -0.031406
0.018615 -0.00054884   -0.029457    -0.14964    -0.70083  0.00010078   -0.030431
0.0065969  -0.0054209   -0.051868    -0.17497     -1.0256    0.020888   -0.030756
-0.0054209   -0.010943   -0.079152    -0.21395     -1.3813    0.038428   -0.032055
-0.0093186    -0.01614    -0.11033    -0.25747     -1.6886    0.040052   -0.032055
-0.0047713   -0.018088    -0.13859    -0.29158     -1.8516    0.021538    -0.03173
0.0039985   -0.015165    -0.15483    -0.30359     -1.8042   -0.014516   -0.031081
0.0088706  -0.0076946    -0.15581    -0.28703     -1.5447   -0.061937    -0.03238
0.011469  0.00075039    -0.14152    -0.23961     -1.1406    -0.11261   -0.034329
0.015367    0.011469    -0.10871    -0.16393    -0.69076    -0.16165   -0.036927
0.021863    0.024137   -0.058689   -0.063561    -0.26592     -0.2016   -0.038876
0.030308    0.034855  -0.0015233    0.047523     0.11931    -0.22597   -0.039851
0.034206    0.038103    0.052395     0.14789      0.4675    -0.22564   -0.037252
0.029333    0.033881     0.09397     0.21415     0.76405     -0.2029   -0.031406
0.015692    0.025761      0.1219     0.23754     0.97387    -0.16588   -0.026209
-0.0041217    0.017316      0.1362     0.21837      1.0593    -0.12722   -0.022636
-0.025234     0.01017     0.14237     0.16803     0.99174   -0.098641   -0.020687
-0.043423   0.0020496     0.14561    0.095594     0.79166     -0.0824   -0.020687
-0.054142  -0.0063954     0.14529    0.011144     0.53408   -0.075579   -0.025884
-0.055766   -0.012567     0.13977   -0.070382     0.31322   -0.076879   -0.034978
-0.04992   -0.015165     0.12645    -0.13307     0.19401    -0.07428   -0.048945
-0.036602   -0.013216     0.10761    -0.17302     0.19141    -0.04862   -0.065186
-0.019063   -0.010293    0.088124    -0.19673     0.26969    0.018615   -0.081751
-0.0015233  -0.0076946    0.071883    -0.19413     0.36973     0.13782   -0.097017
0.009845  -0.0031473    0.064413    -0.11651     0.44476     0.29925    -0.11066
0.017316   0.0039985     0.06896    0.071558     0.46782     0.46977    -0.11975
0.024461   0.0091954    0.063113      0.3327     0.43567     0.61041    -0.12527
0.02706   0.0059473  -0.0041217     0.55487     0.36389     0.69551    -0.12657
0.019264  -0.0096434    -0.17237     0.62568     0.28268     0.72345     -0.1178
0.0056225   -0.033679    -0.42865      0.5107     0.21252     0.70493   -0.095068
-0.0037969   -0.059339    -0.69856     0.27846     0.15471     0.65394   -0.052193
-0.0054209   -0.083375    -0.87526    0.049147    0.095594     0.57306    0.003024
-0.00054884    -0.09929    -0.88857   -0.073306    0.011469     0.46717    0.059541
0.0069217    -0.10481    -0.73916   -0.068434    -0.12333     0.35122     0.11118
0.016341    -0.10124    -0.48776  -0.0024977    -0.31529     0.24663     0.15536
0.025436   -0.092145    -0.21947     0.05142    -0.56474      0.1638     0.20051
0.034206   -0.079152   0.0033489    0.087474    -0.86811    0.096893      0.2476
0.041027   -0.059664     0.15438     0.13717     -1.1994    0.022837      0.2895
0.046223   -0.039851     0.23169     0.18979     -1.5012   -0.090845     0.31386
0.049472   -0.022636     0.24793     0.20895     -1.7003    -0.26787     0.31679
0.051096   -0.010293     0.22162     0.17745     -1.7392    -0.51277     0.29568
0.047198  -0.0080194     0.17192     0.10664     -1.6044    -0.81647     0.25443
0.037129   -0.016789     0.11606     0.01829     -1.3329     -1.1699     0.19726
0.021213   -0.027183    0.067336   -0.061937    -0.99641     -1.5483      0.1271
0.0023744    -0.03238    0.033881    -0.11813     -0.6703     -1.9026    0.048497
-0.019388   -0.029782    0.016016    -0.14541    -0.40591     -2.1566   -0.028482
-0.045047   -0.017114    0.010819    -0.14866    -0.21914     -2.2453   -0.092469
-0.07428   0.0017248    0.012119    -0.13599    -0.10124     -2.1378    -0.13762
